"ID","sea_time","fid_signal"
1,0,1167.282
2,0.00165,1168.698
3,0.003317,1168.698
4,0.004983,1169.518
5,0.00665,1170.486
6,0.008317,1173.541
7,0.009983000000000001,1173.541
8,0.01165,1172.945
9,0.013317,1174.807
10,0.014983,1175.702
11,0.01665,1175.702
12,0.018317,1173.913
13,0.019983,1170.561
14,0.02165,1170.561
15,0.023317,1168.698
16,0.024983,1167.506
17,0.02665,1166.537
18,0.028317,1166.537
19,0.029983,1168.922
20,0.03165,1170.412
21,0.033383,1171.753
22,0.034983,1171.753
23,0.03665,1174.435
24,0.038317,1175.702
25,0.039983,1177.49
26,0.04165,1177.49
27,0.043317,1173.839
28,0.044983,1174.957
29,0.04665,1176.372
30,0.048317,1176.372
31,0.049983,1173.541
32,0.05165,1176
33,0.053317,1176
34,0.054983,1175.553
35,0.05665,1172.647
36,0.058317,1173.019
37,0.059983,1173.019
38,0.061633,1174.212
39,0.0633,1175.255
40,0.064967,1177.341
41,0.06675,1177.341
42,0.0683,1177.266
43,0.069983,1175.329
44,0.071633,1172.125
45,0.0733,1172.125
46,0.07496700000000001,1168.624
47,0.07663300000000001,1166.388
48,0.07829999999999999,1166.388
49,0.079967,1164.824
50,0.081633,1163.93
51,0.0833,1164.228
52,0.084967,1164.228
53,0.086633,1168.027
54,0.0883,1168.996
55,0.08996700000000001,1172.945
56,0.09163300000000001,1172.945
57,0.09329999999999999,1175.851
58,0.094967,1173.69
59,0.096633,1174.435
60,0.0983,1174.435
61,0.099967,1173.243
62,0.101633,1173.243
63,0.1033,1174.51
64,0.104967,1174.51
65,0.106633,1176.521
66,0.1083,1177.49
67,0.109967,1177.49
68,0.111633,1174.957
69,0.1133,1173.988
70,0.114967,1171.082
71,0.116633,1171.082
72,0.118317,1169.071
73,0.119983,1168.4
74,0.121617,1169.22
75,0.123283,1169.22
76,0.12495,1171.976
77,0.126617,1173.839
78,0.128283,1176.745
79,0.12995,1176.745
80,0.131617,1176.074
81,0.133283,1175.776
82,0.13495,1175.776
83,0.136617,1171.008
84,0.138283,1169.369
85,0.13995,1171.082
86,0.141617,1171.082
87,0.143283,1171.455
88,0.14495,1173.243
89,0.146617,1175.851
90,0.148283,1175.851
91,0.14995,1176.372
92,0.151633,1175.106
93,0.153283,1176.447
94,0.15495,1176.447
95,0.156617,1174.36
96,0.158283,1172.274
97,0.15995,1172.274
98,0.161617,1171.678
99,0.163283,1172.498
100,0.16495,1173.243
101,0.166617,1173.243
102,0.168283,1174.36
103,0.16995,1175.478
104,0.171617,1176.596
105,0.173283,1176.596
106,0.17495,1178.607
107,0.176617,1178.831
108,0.178283,1177.788
109,0.17995,1177.788
110,0.1816,1177.713
111,0.183267,1174.286
112,0.185017,1174.137
113,0.1866,1174.137
114,0.188267,1175.553
115,0.189933,1171.529
116,0.1916,1171.529
117,0.193267,1173.392
118,0.19495,1173.317
119,0.196667,1172.498
120,0.198267,1172.498
121,0.199933,1174.807
122,0.2017,1172.647
123,0.203267,1173.243
124,0.204933,1173.243
125,0.2066,1170.859
126,0.208267,1171.231
127,0.209933,1172.349
128,0.2116,1172.349
129,0.213267,1171.306
130,0.214933,1173.615
131,0.2166,1173.615
132,0.21825,1173.466
133,0.219917,1173.615
134,0.221583,1173.317
135,0.22325,1173.317
136,0.224917,1173.541
137,0.226583,1172.274
138,0.22825,1174.51
139,0.229917,1174.51
140,0.231583,1175.702
141,0.23325,1176.968
142,0.234917,1178.235
143,0.236583,1178.235
144,0.23825,1177.49
145,0.2399,1176.67
146,0.241567,1172.647
147,0.243233,1172.647
148,0.244917,1174.286
149,0.246567,1173.541
150,0.248233,1173.541
151,0.2499,1174.36
152,0.251567,1176.894
153,0.253233,1173.69
154,0.2549,1173.69
155,0.256567,1172.945
156,0.258267,1170.412
157,0.2599,1167.208
158,0.261567,1167.208
159,0.263233,1169.369
160,0.264917,1169.22
161,0.266567,1168.177
162,0.268233,1168.177
163,0.269917,1168.996
164,0.271567,1167.953
165,0.273233,1167.953
166,0.2749,1168.698
167,0.276567,1173.69
168,0.278233,1179.799
169,0.2799,1179.799
170,0.281567,1181.215
171,0.283233,1178.831
172,0.2849,1176.67
173,0.286667,1176.67
174,0.288233,1171.082
175,0.2899,1169.89
176,0.291567,1170.933
177,0.293233,1170.933
178,0.2949,1169.22
179,0.296567,1171.604
180,0.298233,1171.604
181,0.299883,1172.125
182,0.30155,1172.498
183,0.303333,1173.765
184,0.304883,1173.765
185,0.30655,1172.349
186,0.308217,1172.572
187,0.309883,1173.765
188,0.31155,1173.765
189,0.313217,1174.137
190,0.314883,1175.851
191,0.31655,1175.553
192,0.318217,1175.553
193,0.319883,1174.286
194,0.32155,1173.69
195,0.323217,1172.051
196,0.324883,1172.051
197,0.32655,1170.933
198,0.328217,1172.2
199,0.329883,1172.2
200,0.33155,1172.647
201,0.333217,1171.455
202,0.334883,1170.263
203,0.33655,1170.263
204,0.338217,1168.177
205,0.339883,1168.475
206,0.34155,1171.678
207,0.343217,1171.678
208,0.344883,1175.925
209,0.34655,1179.576
210,0.348217,1179.576
211,0.349883,1179.576
212,0.35155,1178.98
213,0.353217,1176.372
214,0.354883,1176.372
215,0.35655,1176.745
216,0.358217,1175.329
217,0.359867,1176
218,0.361533,1176
219,0.3632,1178.384
220,0.364867,1181.066
221,0.366533,1185.76
222,0.3682,1185.76
223,0.369867,1187.474
224,0.371533,1189.113
225,0.3732,1190.23
226,0.374867,1190.23
227,0.376533,1190.081
228,0.3782,1191.72
229,0.379867,1196.712
230,0.381533,1196.712
231,0.3832,1199.842
232,0.384867,1209.453
233,0.386533,1209.453
234,0.3882,1219.064
235,0.389867,1225.323
236,0.391533,1232.251
237,0.3932,1232.251
238,0.394867,1235.53
239,0.396533,1241.788
240,0.3982,1251.474
241,0.399867,1251.474
242,0.401533,1258.329
243,0.4032,1268.387
244,0.404967,1277.253
245,0.406533,1277.253
246,0.4082,1286.566
247,0.409867,1298.785
248,0.411533,1298.785
249,0.4132,1308.62
250,0.414867,1315.698
251,0.416533,1321.51
252,0.4182,1321.51
253,0.419867,1332.834
254,0.421567,1343.861
255,0.423183,1354.814
256,0.42485,1354.814
257,0.426517,1371.95
258,0.428183,1385.361
259,0.42985,1401.976
260,0.431517,1401.976
261,0.433183,1425.073
262,0.43485,1441.613
263,0.436517,1457.557
264,0.43825,1457.557
265,0.43985,1474.842
266,0.441517,1493.618
267,0.443183,1493.618
268,0.44485,1517.013
269,0.44655,1543.388
270,0.448183,1569.837
271,0.44985,1569.837
272,0.451517,1598.895
273,0.453183,1633.242
274,0.45485,1671.463
275,0.456517,1671.463
276,0.458183,1719.37
277,0.45985,1777.336
278,0.461517,1841.56
279,0.463183,1841.56
280,0.46485,1920.387
281,0.466517,2016.649
282,0.468183,2016.649
283,0.46985,2132.207
284,0.471517,2272.874
285,0.473183,2449.677
286,0.47485,2449.677
287,0.476517,2662.688
288,0.478183,2908.185
289,0.47985,3199.205
290,0.4815,3199.205
291,0.483167,3531.799
292,0.484833,3908.5
293,0.4865,4340.187
294,0.488167,4340.187
295,0.489833,4823.133
296,0.4915,5358.532
297,0.493167,5947.053
298,0.494833,5947.053
299,0.4965,6583.557
300,0.498167,7269.233
301,0.499833,7269.233
302,0.5014999999999999,8000.657
303,0.503167,8774.027
304,0.504833,9589.195
305,0.5065,9589.195
306,0.508167,10443.106
307,0.509817,11332.929
308,0.511483,12257.844
309,0.51315,12257.844
310,0.514817,13213.456
311,0.516483,14195.517
312,0.51815,15204.251
313,0.519817,15204.251
314,0.521483,16240.105
315,0.5232329999999999,17297.715
316,0.524817,17297.715
317,0.526483,18377.826
318,0.52815,19474.924
319,0.529817,20587.816
320,0.531483,20587.816
321,0.53315,21719.41
322,0.534817,22865.607
323,0.536483,24026.482
324,0.53815,24026.482
325,0.539917,25198.533
326,0.541483,26377.738
327,0.543133,27563.348
328,0.5448,27563.348
329,0.546467,28755.664
330,0.548133,29948.502
331,0.5498,29948.502
332,0.551467,31146.406
333,0.553133,32344.311
334,0.5548,33544.227
335,0.5566,33544.227
336,0.558133,34746.23
337,0.5598,35946.52
338,0.561467,37144.57
339,0.563133,37144.57
340,0.5648,38338.156
341,0.5664670000000001,39528.758
342,0.568133,40716.008
343,0.5698,40716.008
344,0.5714669999999999,41900.949
345,0.573133,43077.395
346,0.5748,44245.57
347,0.576467,44245.57
348,0.578133,45408.906
349,0.5798,46561.508
350,0.581467,46561.508
351,0.583133,47706.813
352,0.5848,48845.707
353,0.586467,49974.098
354,0.588133,49974.098
355,0.5898,51092.656
356,0.591467,52203.387
357,0.593133,53301.453
358,0.5948,53301.453
359,0.596467,54385.512
360,0.598133,55463.539
361,0.599783,56532.176
362,0.60145,56532.176
363,0.603117,57593.734
364,0.604783,58645.309
365,0.60645,58645.309
366,0.608133,59686.453
367,0.609783,60712.918
368,0.61145,61726.125
369,0.613117,61726.125
370,0.6148169999999999,62732.398
371,0.6164500000000001,63726.68
372,0.618117,64711.793
373,0.619783,64711.793
374,0.6214499999999999,65689.984
375,0.623117,66651.258
376,0.624783,67597.92200000001
377,0.62645,67597.92200000001
378,0.628117,68534.609
379,0.629783,69461.094
380,0.63145,70379.523
381,0.633117,70379.523
382,0.634783,71286.781
383,0.63645,72184.133
384,0.638117,72184.133
385,0.639783,73068.961
386,0.64145,73944.92999999999
387,0.643117,74816.125
388,0.644783,74816.125
389,0.64645,75677.258
390,0.6481170000000001,76526.92200000001
391,0.649783,77367.57000000001
392,0.65145,77367.57000000001
393,0.6531169999999999,78198.461
394,0.654783,79019.07000000001
395,0.65645,79831.70299999999
396,0.6581,79831.70299999999
397,0.659783,80636.891
398,0.661433,81431.344
399,0.6631,81431.344
400,0.664767,82219.32000000001
401,0.6664330000000001,82998.273
402,0.6681,83767.69500000001
403,0.669767,83767.69500000001
404,0.6714329999999999,84532.273
405,0.6731,85291.641
406,0.674883,86041.164
407,0.676433,86041.164
408,0.6781,86779.594
409,0.679767,87506.625
410,0.681433,88217.633
411,0.6831,88217.633
412,0.684767,88918.57799999999
413,0.68645,89610.219
414,0.688117,90296.266
415,0.689767,90296.266
416,0.691433,90976.42999999999
417,0.6931,91657.56299999999
418,0.694767,91657.56299999999
419,0.696433,92338.992
420,0.6981000000000001,93012.523
421,0.699767,93676.898
422,0.70145,93676.898
423,0.7030999999999999,94330.383
424,0.704767,94973.219
425,0.706433,95606.375
426,0.7081,95606.375
427,0.709767,96243.023
428,0.711433,96877.43799999999
429,0.7131,97501.5
430,0.714767,97501.5
431,0.716433,98121.539
432,0.7181,98735.914
433,0.719767,98735.914
434,0.721417,99340.227
435,0.723083,99939.55499999999
436,0.72475,100533.891
437,0.726417,100533.891
438,0.728083,101110.414
439,0.72975,101677.18
440,0.731417,102243.719
441,0.733083,102243.719
442,0.73475,102805.797
443,0.736417,103361.305
444,0.738083,103908.852
445,0.73975,103908.852
446,0.741417,104444.023
447,0.743083,104933.156
448,0.74475,104933.156
449,0.746417,105352.18
450,0.7480830000000001,105717.328
451,0.74975,106043.219
452,0.751417,106043.219
453,0.7530829999999999,106381.547
454,0.75475,106766.742
455,0.756417,107187.109
456,0.758083,107187.109
457,0.7598,107631.531
458,0.761417,108088.703
459,0.763083,108558.164
460,0.76475,108558.164
461,0.766417,109033.359
462,0.768083,109520.258
463,0.76975,110011.695
464,0.771417,110011.695
465,0.773083,110501.352
466,0.77475,110993.758
467,0.776417,110993.758
468,0.778083,111468.734
469,0.7797500000000001,111917.93
470,0.7814,112307.445
471,0.783067,112307.445
472,0.784733,112301.109
473,0.7864,110513.867
474,0.788067,104721.938
475,0.789733,104721.938
476,0.7914,93574.45299999999
477,0.793117,77584.984
478,0.794733,59275.254
479,0.7964,59275.254
480,0.798067,42146.965
481,0.799733,28584.6
482,0.801383,28584.6
483,0.80305,19083.471
484,0.804717,12927.502
485,0.806383,9105.578
486,0.80805,9105.578
487,0.809717,6772.354
488,0.811383,5349.517
489,0.8130500000000001,4478.171
490,0.814717,4478.171
491,0.816383,3935.024
492,0.8180500000000001,3585.517
493,0.819717,3350.675
494,0.821383,3350.675
495,0.823083,3185.645
496,0.824717,3059.73
497,0.826383,2966.523
498,0.82805,2966.523
499,0.829717,2887.771
500,0.831383,2816.245
501,0.83305,2816.245
502,0.834717,2756.64
503,0.836383,2698.824
504,0.83805,2645.999
505,0.8397,2645.999
506,0.841367,2601.892
507,0.843033,2562.18
508,0.8447,2523.884
509,0.846367,2523.884
510,0.848033,2487.227
511,0.8497,2453.774
512,0.851367,2421.662
513,0.853033,2421.662
514,0.8547,2390.668
515,0.856367,2364.144
516,0.858033,2364.144
517,0.8597,2334.788
518,0.861367,2304.316
519,0.8630330000000001,2278.76
520,0.8647,2278.76
521,0.866367,2252.162
522,0.8680330000000001,2227.277
523,0.8697,2207.309
524,0.871367,2207.309
525,0.8730329999999999,2186.075
526,0.8747,2163.425
527,0.876383,2146.14
528,0.8781,2146.14
529,0.8797,2126.098
530,0.881367,2110.079
531,0.883033,2096.444
532,0.8847,2096.444
533,0.886367,2079.457
534,0.888033,2065.45
535,0.8897,2065.45
536,0.891367,2048.835
537,0.893033,2031.997
538,0.8947000000000001,2018.288
539,0.896367,2018.288
540,0.898033,2002.493
541,0.8997000000000001,1988.113
542,0.90135,1976.788
543,0.903017,1976.788
544,0.904683,1961.961
545,0.90635,1949.295
546,0.908017,1936.033
547,0.909683,1936.033
548,0.911467,1921.505
549,0.913017,1907.87
550,0.914683,1907.87
551,0.91635,1894.906
552,0.918017,1883.283
553,0.919683,1871.586
554,0.92135,1871.586
555,0.923017,1865.178
556,0.924683,1855.195
557,0.92635,1845.062
558,0.928017,1845.062
559,0.929683,1837.09
560,0.93135,1827.478
561,0.933017,1819.804
562,0.934683,1819.804
563,0.93635,1813.695
564,0.938017,1804.382
565,0.939683,1804.382
566,0.94135,1791.79
567,0.943017,1781.583
568,0.9446830000000001,1772.866
569,0.94635,1772.866
570,0.948017,1764.968
571,0.9496830000000001,1756.698
572,0.95135,1745.895
573,0.953017,1745.895
574,0.9546829999999999,1735.389
575,0.95635,1725.853
576,0.958017,1721.01
577,0.959683,1721.01
578,0.961333,1717.88
579,0.963,1710.653
580,0.9646670000000001,1704.991
581,0.966333,1704.991
582,0.968,1698.583
583,0.969683,1692.772
584,0.971383,1692.772
585,0.973,1686.737
586,0.974667,1683.533
587,0.976333,1674.891
588,0.978,1674.891
589,0.979667,1666.397
590,0.981333,1661.554
591,0.983,1651.794
592,0.984667,1651.794
593,0.986333,1646.653
594,0.988,1644.12
595,0.989667,1638.681
596,0.991333,1638.681
597,0.993,1637.712
598,0.994667,1632.869
599,0.9964,1623.258
600,0.998,1623.258
601,0.999667,1617.894
602,1.001333,1613.2
603,1.003,1613.2
604,1.004667,1610.219
605,1.006333,1607.463
606,1.008,1601.204
607,1.009667,1601.204
608,1.011333,1592.04
609,1.013067,1585.111
610,1.014667,1582.056
611,1.016333,1582.056
612,1.018,1578.48
613,1.01965,1573.563
614,1.021317,1571.402
615,1.022983,1571.402
616,1.02465,1567.304
617,1.026317,1565.665
618,1.027983,1565.665
619,1.029767,1564.473
620,1.031317,1557.618
621,1.032983,1553.073
622,1.03465,1553.073
623,1.036317,1549.423
624,1.037983,1545.548
625,1.03965,1544.207
626,1.041317,1544.207
627,1.042983,1539.662
628,1.044683,1531.839
629,1.04635,1527.146
630,1.047983,1527.146
631,1.04965,1526.475
632,1.051317,1522.675
633,1.052983,1522.675
634,1.05465,1525.208
635,1.056317,1524.761
636,1.057983,1518.354
637,1.05965,1518.354
638,1.061317,1514.554
639,1.062983,1508.072
640,1.06465,1501.143
641,1.066317,1501.143
642,1.067983,1497.567
643,1.06965,1494.512
644,1.071317,1490.861
645,1.072983,1490.861
646,1.07465,1489.371
647,1.076317,1487.955
648,1.077967,1486.987
649,1.079633,1486.987
650,1.0813,1488.179
651,1.082967,1488.179
652,1.084633,1488.179
653,1.0863,1486.242
654,1.087967,1481.026
655,1.089633,1476.854
656,1.091283,1476.854
657,1.09295,1472.831
658,1.094617,1469.404
659,1.096283,1467.168
660,1.09795,1467.168
661,1.099617,1462.325
662,1.101283,1458.749
663,1.10295,1454.502
664,1.104617,1454.502
665,1.106283,1453.31
666,1.10795,1452.416
667,1.109617,1452.416
668,1.111283,1450.479
669,1.112967,1450.703
670,1.114617,1450.33
671,1.116283,1450.33
672,1.11795,1449.063
673,1.119617,1446.381
674,1.121283,1444.891
675,1.12295,1444.891
676,1.124617,1440.644
677,1.126283,1437.217
678,1.12795,1435.876
679,1.129617,1435.876
680,1.131367,1434.088
681,1.13295,1432.598
682,1.134617,1432.598
683,1.136283,1432.821
684,1.13795,1431.927
685,1.1396,1432.374
686,1.141267,1432.374
687,1.142933,1430.214
688,1.1446,1427.159
689,1.146267,1423.806
690,1.148033,1423.806
691,1.1496,1421.571
692,1.151267,1418.591
693,1.152933,1415.983
694,1.1546,1415.983
695,1.156267,1414.344
696,1.157933,1409.65
697,1.1596,1409.128
698,1.161267,1409.128
699,1.162933,1405.701
700,1.164717,1402.721
701,1.166267,1402.721
702,1.167933,1399.517
703,1.1696,1399.592
704,1.171267,1397.803
705,1.172933,1397.803
706,1.1746,1396.835
707,1.176267,1396.611
708,1.177933,1394.674
709,1.1796,1394.674
710,1.181267,1394.004
711,1.182933,1393.482
712,1.1846,1392.439
713,1.186267,1392.439
714,1.187933,1390.427
715,1.189617,1390.874
716,1.191283,1390.874
717,1.192933,1391.992
718,1.1946,1388.714
719,1.196267,1385.137
720,1.197917,1385.137
721,1.1996,1380.518
722,1.20125,1375.973
723,1.202917,1375.452
724,1.204583,1375.452
725,1.20625,1376.197
726,1.207917,1374.111
727,1.209583,1372.471
728,1.21125,1372.471
729,1.212917,1371.726
730,1.214583,1369.417
731,1.21625,1371.652
732,1.217917,1371.652
733,1.219583,1371.503
734,1.22125,1370.907
735,1.222917,1370.907
736,1.224583,1371.205
737,1.22625,1370.758
738,1.227917,1371.056
739,1.229583,1371.056
740,1.23125,1367.182
741,1.232933,1366.138
742,1.234583,1364.574
743,1.23625,1364.574
744,1.237917,1361.221
745,1.239583,1360.401
746,1.24125,1359.954
747,1.242917,1359.954
748,1.244583,1359.88
749,1.24625,1361.668
750,1.247917,1361.668
751,1.249617,1361.445
752,1.25125,1358.613
753,1.252917,1356.006
754,1.2546,1356.006
755,1.25625,1356.304
756,1.257917,1358.762
757,1.259583,1358.166
758,1.261233,1358.166
759,1.2629,1355.186
760,1.264567,1349.822
761,1.266283,1348.555
762,1.2679,1348.555
763,1.269567,1345.202
764,1.271233,1344.457
765,1.2729,1345.649
766,1.274567,1345.649
767,1.276233,1340.955
768,1.2779,1339.242
769,1.279583,1339.242
770,1.281233,1339.316
771,1.283017,1337.901
772,1.284567,1339.242
773,1.286233,1339.242
774,1.2879,1341.254
775,1.289567,1341.701
776,1.291233,1339.54
777,1.2929,1339.54
778,1.294567,1338.273
779,1.296233,1338.199
780,1.2979,1335.889
781,1.299567,1335.889
782,1.301233,1334.921
783,1.3029,1331.94
784,1.304567,1331.94
785,1.306233,1329.78
786,1.3079,1329.556
787,1.309567,1327.395
788,1.311233,1327.395
789,1.3129,1326.874
790,1.314567,1326.576
791,1.316233,1325.458
792,1.3179,1325.458
793,1.319567,1326.129
794,1.321217,1324.043
795,1.322883,1322.255
796,1.32455,1322.255
797,1.326217,1320.392
798,1.3279,1317.561
799,1.32955,1317.561
800,1.33125,1318.008
801,1.332883,1316.369
802,1.33455,1314.804
803,1.336217,1314.804
804,1.337883,1315.624
805,1.33955,1316.518
806,1.341217,1317.486
807,1.342883,1317.486
808,1.34455,1318.008
809,1.346217,1316.741
810,1.347883,1314.282
811,1.34955,1314.282
812,1.351217,1314.506
813,1.352883,1312.196
814,1.35455,1312.345
815,1.356217,1312.345
816,1.357883,1309.812
817,1.35955,1307.651
818,1.361217,1307.651
819,1.362883,1306.534
820,1.36455,1304.299
821,1.366217,1308.024
822,1.367883,1308.024
823,1.36955,1310.632
824,1.371217,1310.855
825,1.372883,1310.483
826,1.37455,1310.483
827,1.376217,1309.812
828,1.377883,1304.224
829,1.37955,1305.267
830,1.3812,1305.267
831,1.38285,1307.651
832,1.384533,1304.075
833,1.386183,1304.075
834,1.38785,1304.597
835,1.389517,1302.287
836,1.391183,1298.413
837,1.39285,1298.413
838,1.394517,1301.169
839,1.396183,1301.393
840,1.39785,1303.405
841,1.399517,1303.405
842,1.401283,1304.969
843,1.40285,1302.734
844,1.404583,1301.318
845,1.406183,1301.318
846,1.40785,1298.785
847,1.409517,1299.083
848,1.411183,1299.381
849,1.41285,1299.381
850,1.414517,1297.966
851,1.416183,1300.201
852,1.41785,1300.201
853,1.419517,1298.338
854,1.421183,1294.017
855,1.42285,1294.017
856,1.424517,1294.017
857,1.426183,1292.08
858,1.42785,1291.856
859,1.429517,1294.091
860,1.431183,1294.091
861,1.43285,1294.836
862,1.434517,1290.664
863,1.436183,1288.429
864,1.43785,1288.429
865,1.4395,1286.119
866,1.441167,1286.045
867,1.442833,1286.045
868,1.4445,1286.194
869,1.446167,1285.672
870,1.447833,1286.268
871,1.4495,1286.268
872,1.451167,1286.045
873,1.452833,1285.672
874,1.454517,1284.555
875,1.456167,1284.555
876,1.457833,1282.692
877,1.4595,1278.743
878,1.461167,1279.488
879,1.462833,1279.488
880,1.4645,1278.594
881,1.466183,1280.233
882,1.467833,1282.99
883,1.4695,1282.99
884,1.471167,1282.617
885,1.47285,1283.586
886,1.4745,1283.586
887,1.476167,1280.829
888,1.477833,1280.755
889,1.4795,1281.649
890,1.481167,1281.649
891,1.482833,1280.531
892,1.4845,1280.68
893,1.486167,1276.061
894,1.487833,1276.061
895,1.4895,1271.293
896,1.491167,1271.293
897,1.492833,1271.665
898,1.4945,1271.665
899,1.496167,1275.39
900,1.497833,1277.775
901,1.4995,1277.775
902,1.50115,1278.594
903,1.502817,1277.253
904,1.504483,1277.626
905,1.50615,1277.626
