"ID","sea_time","fid_signal"
1,0,1165.122
2,0.001667,1164.228
3,0.003333,1163.408
4,0.005,1161.695
5,0.006667,1161.695
6,0.008333,1160.875
7,0.01,1163.557
8,0.011667,1166.388
9,0.013333,1166.388
10,0.015,1169.145
11,0.016667,1172.423
12,0.01835,1172.423
13,0.02,1170.635
14,0.021667,1169.22
15,0.023333,1168.624
16,0.025017,1168.624
17,0.026683,1165.122
18,0.028333,1166.537
19,0.029983,1165.569
20,0.03165,1165.569
21,0.033317,1167.506
22,0.034983,1167.58
23,0.03665,1165.867
24,0.038317,1165.867
25,0.039983,1165.718
26,0.04165,1165.941
27,0.043383,1168.549
28,0.044983,1168.549
29,0.04665,1170.263
30,0.048317,1169.22
31,0.049983,1169.22
32,0.05165,1169.369
33,0.053317,1166.91
34,0.054983,1165.42
35,0.05665,1165.42
36,0.058317,1164.749
37,0.059983,1163.483
38,0.06165,1167.729
39,0.063317,1167.729
40,0.064983,1170.114
41,0.06665,1171.231
42,0.068317,1171.827
43,0.069983,1171.827
44,0.07165000000000001,1169.592
45,0.07331699999999999,1170.561
46,0.07498299999999999,1170.561
47,0.076733,1170.114
48,0.078317,1166.388
49,0.079983,1165.196
50,0.08165,1165.196
51,0.083317,1161.993
52,0.084983,1161.546
53,0.08665,1163.259
54,0.08831700000000001,1163.259
55,0.08998299999999999,1159.981
56,0.09163300000000001,1160.353
57,0.09329999999999999,1160.875
58,0.094967,1160.875
59,0.096633,1161.769
60,0.0983,1164.451
61,0.099983,1164.377
62,0.101683,1164.377
63,0.1033,1164.898
64,0.104967,1162.812
65,0.10665,1162.812
66,0.1083,1163.036
67,0.109967,1164.824
68,0.111633,1162.44
69,0.1133,1162.44
70,0.114967,1161.918
71,0.116633,1164.451
72,0.1183,1161.695
73,0.119967,1161.695
74,0.121633,1165.867
75,0.1233,1167.282
76,0.124967,1166.686
77,0.126633,1166.686
78,0.1283,1167.357
79,0.129967,1167.208
80,0.131633,1167.208
81,0.1333,1167.804
82,0.134967,1164.153
83,0.136633,1166.09
84,0.1383,1166.09
85,0.139967,1164.377
86,0.141633,1163.483
87,0.1433,1165.718
88,0.144967,1165.718
89,0.146633,1166.612
90,0.1483,1167.059
91,0.149967,1168.922
92,0.151617,1168.922
93,0.153283,1168.177
94,0.15495,1164.6
95,0.156617,1164.6
96,0.158283,1164.153
97,0.15995,1161.62
98,0.1617,1162.961
99,0.163283,1162.961
100,0.16495,1167.357
101,0.166617,1167.357
102,0.168367,1166.463
103,0.16995,1166.463
104,0.171617,1165.867
105,0.173283,1165.122
106,0.17495,1167.432
107,0.176617,1167.432
108,0.178317,1171.008
109,0.17995,1171.38
110,0.181617,1170.784
111,0.183283,1170.784
112,0.18495,1171.529
113,0.186617,1172.2
114,0.188283,1172.2
115,0.18995,1173.243
116,0.191617,1174.51
117,0.193283,1171.231
118,0.195067,1171.231
119,0.196617,1168.773
120,0.198283,1170.337
121,0.19995,1167.059
122,0.201617,1167.059
123,0.203267,1170.114
124,0.204933,1170.635
125,0.2066,1169.592
126,0.208267,1169.592
127,0.209933,1171.753
128,0.211583,1170.635
129,0.21325,1170.635
130,0.214917,1173.765
131,0.216583,1174.36
132,0.21825,1174.733
133,0.219917,1174.733
134,0.221583,1171.529
135,0.22325,1167.282
136,0.224917,1164.824
137,0.226583,1164.824
138,0.22825,1164.675
139,0.229917,1169.518
140,0.231583,1173.243
141,0.23325,1173.243
142,0.234917,1171.604
143,0.236583,1170.412
144,0.238267,1169.22
145,0.239933,1169.22
146,0.241583,1165.122
147,0.24325,1166.612
148,0.244917,1166.612
149,0.246583,1167.357
150,0.24825,1165.122
151,0.249917,1164.079
152,0.251583,1164.079
153,0.25325,1163.334
154,0.254917,1160.428
155,0.256583,1163.259
156,0.25825,1163.259
157,0.259917,1167.58
158,0.261583,1168.996
159,0.26325,1168.847
160,0.264917,1168.847
161,0.266583,1165.494
162,0.26825,1164.675
163,0.269917,1164.675
164,0.271567,1164.153
165,0.273233,1163.855
166,0.2749,1166.016
167,0.276567,1166.016
168,0.278233,1164.749
169,0.27995,1167.282
170,0.281583,1169.369
171,0.283233,1169.369
172,0.2849,1167.133
173,0.286567,1166.314
174,0.288233,1165.345
175,0.2899,1165.345
176,0.291567,1164.302
177,0.293233,1165.271
178,0.2949,1166.537
179,0.296617,1166.537
180,0.298233,1163.036
181,0.2999,1163.855
182,0.301567,1163.855
183,0.303233,1162.663
184,0.3049,1162.514
185,0.306567,1163.185
186,0.308233,1163.185
187,0.3099,1164.824
188,0.311567,1169.816
189,0.313333,1171.604
190,0.314917,1171.604
191,0.316567,1172.647
192,0.318233,1170.635
193,0.3199,1169.741
194,0.321567,1169.741
195,0.323233,1167.282
196,0.3249,1164.079
197,0.326567,1164.079
198,0.328233,1159.832
199,0.3299,1157.001
200,0.33155,1158.118
201,0.333217,1158.118
202,0.334883,1162.663
203,0.33655,1168.549
204,0.338217,1170.635
205,0.339883,1170.635
206,0.34155,1169.518
207,0.343217,1168.922
208,0.344883,1167.879
209,0.34655,1167.879
210,0.348217,1165.345
211,0.349883,1167.729
212,0.35155,1167.729
213,0.353217,1166.537
214,0.354883,1165.494
215,0.35655,1167.879
216,0.358217,1167.879
217,0.359883,1164.898
218,0.36155,1166.91
219,0.363217,1167.58
220,0.364883,1167.58
221,0.36655,1163.632
222,0.368217,1167.879
223,0.369883,1166.463
224,0.37155,1166.463
225,0.373217,1168.326
226,0.374883,1170.188
227,0.37655,1169.145
228,0.378217,1169.145
229,0.379883,1171.827
230,0.38155,1172.647
231,0.383217,1172.647
232,0.384917,1176.298
233,0.38655,1176.447
234,0.388217,1178.458
235,0.389883,1178.458
236,0.391533,1183.152
237,0.3932,1188.591
238,0.394867,1198.128
239,0.396533,1198.128
240,0.3982,1206.622
241,0.399867,1211.688
242,0.401533,1216.531
243,0.4032,1216.531
244,0.404867,1220.852
245,0.406533,1227.111
246,0.4082,1227.111
247,0.409867,1238.584
248,0.411533,1254.231
249,0.4132,1272.559
250,0.414867,1272.559
251,0.416533,1291.409
252,0.4182,1310.11
253,0.419867,1330.45
254,0.421533,1330.45
255,0.4232,1350.567
256,0.424867,1371.503
257,0.426533,1395.941
258,0.4282,1395.941
259,0.429867,1418.74
260,0.431633,1442.954
261,0.4332,1469.478
262,0.434867,1469.478
263,0.436533,1493.916
264,0.4382,1523.569
265,0.439867,1523.569
266,0.441533,1555.383
267,0.4432,1586.899
268,0.444867,1620.874
269,0.446533,1620.874
270,0.4482,1656.19
271,0.44985,1691.431
272,0.451517,1732.334
273,0.453217,1732.334
274,0.45485,1776.814
275,0.456517,1823.157
276,0.458183,1874.939
277,0.45985,1874.939
278,0.461517,1933.649
279,0.463183,1998.991
280,0.46485,1998.991
281,0.466517,2073.869
282,0.468183,2162.01
283,0.46985,2265.349
284,0.471517,2265.349
285,0.473183,2392.232
286,0.47485,2544.299
287,0.476517,2726.689
288,0.4782,2726.689
289,0.47985,2941.862
290,0.481517,3191.307
291,0.483183,3485.158
292,0.48485,3485.158
293,0.486517,3830.567
294,0.488183,4224.256
295,0.48985,4672.706
296,0.491517,4672.706
297,0.493183,5173.311
298,0.494833,5721.003
299,0.4965,5721.003
300,0.498167,6318.986
301,0.499833,6964.952
302,0.5014999999999999,7660.836
303,0.503167,7660.836
304,0.504833,8398.593000000001
305,0.5065,9180.01
306,0.508167,9997.486999999999
307,0.509833,9997.486999999999
308,0.511483,10841.787
309,0.51315,11715.219
310,0.514817,12613.014
311,0.5165999999999999,12613.014
312,0.51815,13528.243
313,0.519817,14459.714
314,0.521483,14459.714
315,0.52315,15401.84
316,0.524817,16350.374
317,0.526483,17297.416
318,0.52815,17297.416
319,0.529817,18238.275
320,0.531483,19168.48
321,0.53315,20080.656
322,0.534817,20080.656
323,0.536483,20973.012
324,0.53815,21836.311
325,0.539817,22658.408
326,0.541483,22658.408
327,0.54315,23430.66
328,0.544817,24140.402
329,0.5464830000000001,24140.402
330,0.54815,24774
331,0.549917,25318.266
332,0.5514829999999999,25749.133
333,0.55315,25749.133
334,0.554817,26051.178
335,0.5564829999999999,26196.018
336,0.55815,26160.031
337,0.559817,26160.031
338,0.561483,25922.582
339,0.56315,25462.135
340,0.564817,24769.902
341,0.566483,24769.902
342,0.56815,23845.359
343,0.569817,22704.602
344,0.5714669999999999,21378.473
345,0.573133,21378.473
346,0.5748,19917.264
347,0.576467,18379.613
348,0.578133,18379.613
349,0.5798,16820.877
350,0.581467,15292.913
351,0.583133,13835.058
352,0.5848,13835.058
353,0.586467,12475.699
354,0.588133,11233.39
355,0.5898,10112.375
356,0.591467,10112.375
357,0.593133,9113.923000000001
358,0.5948,8233.710999999999
359,0.596467,7456.094
360,0.598133,7456.094
361,0.5998,6773.472
362,0.601467,6174.371
363,0.603133,6174.371
364,0.6048,5646.944
365,0.606467,5185.977
366,0.608133,4783.869
367,0.6098,4783.869
368,0.611467,4426.837
369,0.613133,4108.771
370,0.6148,3827.661
371,0.616467,3827.661
372,0.618133,3577.694
373,0.6198,3360.808
374,0.621467,3168.136
375,0.623133,3168.136
376,0.6248,2994.835
377,0.626467,2842.322
378,0.6281330000000001,2699.569
379,0.629783,2699.569
380,0.63145,2571.717
381,0.633117,2460.703
382,0.634867,2460.703
383,0.63645,2357.587
384,0.638117,2266.169
385,0.639783,2184.808
386,0.64145,2184.808
387,0.643117,2110.451
388,0.644783,2041.906
389,0.64645,1983.643
390,0.6481170000000001,1983.643
391,0.649783,1929.179
392,0.65145,1875.758
393,0.6531169999999999,1828.894
394,0.654783,1828.894
395,0.65645,1784.861
396,0.658117,1744.404
397,0.6598000000000001,1744.404
398,0.66145,1709.983
399,0.663117,1676.232
400,0.664783,1645.684
401,0.66645,1645.684
402,0.668233,1618.564
403,0.669783,1593.307
404,0.67145,1573.041
405,0.673117,1573.041
406,0.674783,1553.372
407,0.67645,1533.851
408,0.678117,1512.84
409,0.679783,1512.84
410,0.68145,1493.916
411,0.683117,1477.078
412,0.684783,1462.624
413,0.68645,1462.624
414,0.688117,1452.714
415,0.689767,1437.739
416,0.691433,1437.739
417,0.6931,1424.849
418,0.694767,1414.195
419,0.696433,1404.211
420,0.6981000000000001,1404.211
421,0.699767,1396.835
422,0.701433,1387.373
423,0.7030999999999999,1376.271
424,0.704767,1376.271
425,0.706433,1365.021
426,0.7081,1356.304
427,0.709767,1348.63
428,0.711433,1348.63
429,0.7131,1343.116
430,0.714767,1337.007
431,0.716433,1337.007
432,0.7181,1331.195
433,0.719767,1327.395
434,0.721433,1320.839
435,0.7231,1320.839
436,0.7247670000000001,1316.369
437,0.726433,1311.079
438,0.7281,1308.024
439,0.7297670000000001,1308.024
440,0.731433,1309.067
441,0.7331,1305.64
442,0.7347669999999999,1305.193
443,0.736433,1305.193
444,0.738117,1300.722
445,0.739767,1293.346
446,0.741433,1291.484
447,0.7431,1291.484
448,0.744767,1285.747
449,0.746433,1283.735
450,0.7481,1283.735
451,0.749767,1279.339
452,0.751417,1275.465
453,0.75315,1275.316
454,0.75475,1275.316
455,0.756417,1269.43
456,0.758083,1268.387
457,0.75975,1265.779
458,0.761417,1265.779
459,0.763083,1262.054
460,0.76475,1260.936
461,0.766417,1262.426
462,0.768083,1262.426
463,0.7698,1260.713
464,0.771417,1259.297
465,0.773083,1259.297
466,0.77475,1256.466
467,0.776417,1249.909
468,0.778083,1249.611
469,0.7797500000000001,1249.611
470,0.781417,1246.035
471,0.783083,1245.141
472,0.7847499999999999,1246.929
473,0.7865,1246.929
474,0.788067,1245.141
475,0.789733,1245.588
476,0.7914,1243.129
477,0.793067,1243.129
478,0.794733,1237.541
479,0.7964,1232.028
480,0.798067,1232.028
481,0.799733,1230.463
482,0.8014,1227.856
483,0.803067,1229.197
484,0.804733,1229.197
485,0.8064170000000001,1228.75
486,0.808067,1228.601
487,0.809733,1231.506
488,0.811383,1231.506
489,0.8130500000000001,1231.283
490,0.814717,1229.271
491,0.816383,1225.471
492,0.8180500000000001,1225.471
493,0.819717,1221.821
494,0.821383,1221.597
495,0.8230499999999999,1222.566
496,0.824717,1222.566
497,0.826383,1225.62
498,0.82805,1225.919
499,0.829717,1225.919
500,0.831383,1222.119
501,0.83305,1224.13
502,0.834717,1219.287
503,0.836383,1219.287
504,0.83805,1219.287
505,0.839717,1218.468
506,0.841383,1214.296
507,0.84305,1214.296
508,0.8447170000000001,1212.209
509,0.846383,1211.986
510,0.84805,1210.794
511,0.8497169999999999,1210.794
512,0.851383,1207.888
513,0.85305,1211.017
514,0.8547169999999999,1211.017
515,0.856383,1210.794
516,0.85805,1210.049
517,0.859717,1211.688
518,0.861383,1211.688
519,0.86305,1208.335
520,0.864717,1205.057
521,0.866383,1208.037
522,0.86805,1208.037
523,0.869717,1211.688
524,0.871433,1211.39
525,0.8730329999999999,1211.762
526,0.8747,1211.762
527,0.876367,1208.112
528,0.878033,1202.673
529,0.8797,1203.418
530,0.881367,1203.418
531,0.883033,1201.555
532,0.8847,1200.661
533,0.886367,1200.661
534,0.88815,1199.99
535,0.8897,1196.414
536,0.891367,1196.265
537,0.893033,1196.265
538,0.8947000000000001,1194.254
539,0.896367,1192.54
540,0.898033,1196.116
541,0.8997000000000001,1196.116
542,0.901367,1196.712
543,0.903033,1197.83
544,0.904817,1199.171
545,0.906367,1199.171
546,0.908033,1196.34
547,0.9097,1195.446
548,0.911367,1195.446
549,0.91305,1193.285
550,0.9147,1191.646
551,0.9163829999999999,1192.465
552,0.918033,1192.465
553,0.9197,1196.712
554,0.921467,1196.563
555,0.923033,1198.351
556,0.9247,1198.351
557,0.9263670000000001,1197.755
558,0.928033,1195.893
559,0.9297,1198.575
560,0.93135,1198.575
561,0.933017,1197.979
562,0.934683,1195.297
563,0.93635,1195.297
564,0.938017,1192.391
565,0.939683,1190.379
566,0.94135,1189.56
567,0.943017,1189.56
568,0.944717,1192.689
569,0.94635,1190.454
570,0.948017,1191.422
571,0.9496830000000001,1191.422
572,0.95135,1191.795
573,0.953017,1189.634
574,0.9546829999999999,1191.273
575,0.95635,1191.273
576,0.958017,1191.72
577,0.959683,1192.018
578,0.96135,1193.062
579,0.963017,1193.062
580,0.964683,1191.124
581,0.96635,1191.199
582,0.968017,1191.199
583,0.969683,1189.113
584,0.97135,1187.921
585,0.973017,1190.454
586,0.974683,1190.454
587,0.9763500000000001,1187.697
588,0.978017,1186.207
589,0.979683,1187.474
590,0.9813499999999999,1187.474
591,0.983017,1184.344
592,0.984683,1184.344
593,0.9863499999999999,1184.642
594,0.988017,1184.642
595,0.9897,1184.419
596,0.991367,1184.493
597,0.993,1184.493
598,0.994667,1185.983
599,0.996333,1189.113
600,0.998,1188.889
601,0.999667,1188.889
602,1.001333,1191.124
603,1.003,1189.858
604,1.004667,1187.921
605,1.006367,1187.921
606,1.008,1189.038
607,1.009667,1189.187
608,1.011333,1188.964
609,1.013,1188.964
610,1.014667,1189.187
611,1.016333,1188.666
612,1.018,1185.983
613,1.019667,1185.983
614,1.021333,1185.685
615,1.023067,1186.729
616,1.024667,1186.729
617,1.026333,1184.195
618,1.028,1184.866
619,1.029667,1185.387
620,1.031333,1185.387
621,1.033,1185.387
622,1.034667,1183.525
623,1.036333,1182.407
624,1.038,1182.407
625,1.039767,1182.482
626,1.041333,1180.619
627,1.043,1183.674
628,1.044667,1183.674
629,1.046333,1185.536
630,1.048,1185.238
631,1.049667,1185.238
632,1.051333,1185.536
633,1.052983,1185.611
634,1.05465,1183.376
635,1.056317,1183.376
636,1.057983,1186.281
637,1.05965,1185.387
638,1.061317,1182.705
639,1.062983,1182.705
640,1.06465,1180.992
641,1.066317,1178.905
642,1.067983,1181.513
643,1.06965,1181.513
644,1.071317,1182.407
645,1.072983,1185.76
646,1.07465,1183.227
647,1.076317,1183.227
648,1.077967,1181.141
649,1.07965,1179.054
650,1.0813,1179.054
651,1.082983,1180.693
652,1.084633,1182.333
653,1.0863,1181.29
654,1.087983,1181.29
655,1.089633,1183.301
656,1.0913,1182.556
657,1.092967,1181.886
658,1.094633,1181.886
659,1.0963,1183.301
660,1.097967,1180.097
661,1.099633,1176.596
662,1.1013,1176.596
663,1.102967,1180.172
664,1.104633,1179.725
665,1.1063,1179.725
666,1.108,1183.078
667,1.109633,1182.631
668,1.111283,1177.937
669,1.11295,1177.937
670,1.114617,1175.255
671,1.116283,1175.627
672,1.11795,1178.831
673,1.119617,1178.831
674,1.121283,1181.364
675,1.12295,1186.207
676,1.124683,1187.101
677,1.126283,1187.101
678,1.12795,1187.176
679,1.129617,1185.536
680,1.131283,1185.536
681,1.13295,1181.96
682,1.134617,1179.576
683,1.136283,1177.937
684,1.13795,1177.937
685,1.139617,1179.278
686,1.14135,1179.203
687,1.14295,1182.109
688,1.144617,1182.109
689,1.146283,1182.482
690,1.14795,1179.725
691,1.149617,1181.588
692,1.151283,1181.588
693,1.15295,1179.576
694,1.154617,1177.862
695,1.156283,1176.745
696,1.158033,1176.745
697,1.159617,1176.074
698,1.161283,1177.564
699,1.16295,1177.564
700,1.164617,1181.513
701,1.166283,1183.972
702,1.16795,1185.015
703,1.169617,1185.015
704,1.171267,1182.556
705,1.172933,1176.447
706,1.1746,1172.647
707,1.176267,1172.647
708,1.177933,1171.38
709,1.1796,1171.306
710,1.181267,1172.721
711,1.182933,1172.721
712,1.1846,1176.074
713,1.186267,1174.882
714,1.187933,1174.882
715,1.1896,1173.243
716,1.191267,1176
717,1.192933,1174.212
718,1.1946,1174.212
719,1.196267,1174.286
720,1.197933,1175.329
721,1.1996,1173.765
722,1.201267,1173.765
723,1.202933,1173.69
724,1.2046,1175.851
725,1.206267,1176.968
726,1.207933,1176.968
727,1.2096,1178.607
728,1.211267,1181.215
729,1.212933,1179.799
730,1.2146,1179.799
731,1.216267,1178.905
732,1.217933,1179.054
733,1.2196,1179.054
734,1.221267,1179.501
735,1.222933,1179.352
736,1.2246,1179.352
737,1.226283,1179.352
738,1.227933,1178.384
739,1.229583,1176.298
740,1.23125,1176.596
741,1.232917,1176.596
742,1.234583,1177.192
743,1.23625,1179.65
744,1.237917,1183.674
745,1.239583,1183.674
746,1.24125,1180.917
747,1.242917,1180.843
748,1.244583,1180.843
749,1.24625,1177.639
750,1.247917,1175.702
751,1.249583,1176.372
752,1.25125,1176.372
753,1.252917,1174.137
754,1.254583,1173.019
755,1.25625,1171.455
756,1.257917,1171.455
757,1.2596,1173.019
758,1.26125,1176.298
759,1.262917,1177.49
760,1.264583,1177.49
761,1.26625,1178.905
762,1.267917,1178.98
763,1.269583,1176.596
764,1.27125,1176.596
765,1.272917,1177.341
766,1.274583,1175.627
767,1.276317,1175.627
768,1.277917,1174.882
769,1.279583,1175.702
770,1.28125,1175.404
771,1.282917,1175.404
772,1.284583,1177.49
773,1.28625,1178.905
774,1.287917,1177.639
775,1.289583,1177.639
776,1.291233,1175.329
777,1.2929,1171.976
778,1.294567,1170.635
779,1.296233,1170.635
780,1.2979,1172.796
781,1.299567,1177.341
782,1.301233,1177.341
783,1.3029,1177.639
784,1.304583,1176.447
785,1.3063,1176.521
786,1.3079,1176.521
787,1.309567,1173.839
788,1.311233,1173.317
789,1.3129,1172.423
790,1.314567,1172.423
791,1.31625,1170.039
792,1.3179,1171.008
793,1.319567,1172.721
794,1.321233,1172.721
795,1.3229,1177.341
796,1.324567,1178.235
797,1.326233,1176.894
798,1.3279,1176.894
799,1.329567,1177.788
800,1.331233,1175.851
801,1.3329,1175.851
802,1.334567,1176.521
803,1.336233,1178.011
804,1.3379,1175.553
805,1.339567,1175.553
806,1.341233,1172.274
807,1.3429,1171.678
808,1.344567,1171.827
809,1.346233,1171.827
810,1.3479,1171.902
811,1.349567,1172.572
812,1.351217,1173.839
813,1.352883,1173.839
814,1.35455,1173.541
815,1.356217,1176.819
816,1.357883,1176.819
817,1.35955,1176.372
818,1.361217,1175.627
819,1.362883,1174.36
820,1.36455,1174.36
821,1.366217,1173.168
822,1.367883,1178.458
823,1.369533,1181.588
824,1.3712,1181.588
825,1.372883,1183.227
826,1.374533,1180.396
827,1.3762,1176
828,1.377883,1176
829,1.379533,1171.753
830,1.3812,1168.177
831,1.382867,1168.177
832,1.384533,1168.475
833,1.3862,1169.369
834,1.387867,1168.326
835,1.389533,1168.326
836,1.3912,1170.412
837,1.392867,1173.765
838,1.394633,1173.392
839,1.3962,1173.392
840,1.397867,1175.255
841,1.399533,1175.776
842,1.4012,1175.776
843,1.402867,1175.776
844,1.404533,1176.074
845,1.4062,1176
846,1.407867,1173.69
847,1.409533,1173.69
848,1.411183,1171.231
849,1.41285,1172.498
850,1.414517,1172.498
851,1.416183,1175.851
852,1.41785,1176.67
853,1.419517,1177.639
854,1.421183,1177.639
855,1.42285,1178.011
856,1.424517,1175.478
857,1.426183,1173.243
858,1.42785,1173.243
859,1.429517,1171.604
860,1.431183,1171.082
861,1.43285,1168.773
862,1.434517,1168.773
863,1.436183,1172.498
864,1.43785,1171.678
865,1.439517,1171.678
866,1.441183,1173.466
867,1.442867,1176
868,1.444517,1174.063
869,1.446183,1174.063
870,1.44785,1177.564
871,1.449517,1175.18
872,1.451183,1175.404
873,1.45285,1175.404
874,1.454517,1175.404
875,1.456183,1174.882
876,1.45785,1175.329
877,1.45955,1175.329
878,1.461183,1173.913
879,1.46285,1174.286
880,1.464517,1170.859
881,1.466183,1170.859
882,1.46785,1169.145
883,1.4695,1168.326
884,1.471167,1168.326
885,1.472833,1166.016
886,1.4745,1167.506
887,1.476167,1168.624
888,1.477833,1168.624
889,1.479567,1169.965
890,1.481167,1170.263
891,1.482833,1170.784
892,1.4845,1170.784
893,1.486167,1169.443
894,1.487833,1167.655
895,1.4895,1168.996
896,1.491183,1168.996
897,1.492833,1169.071
898,1.4945,1169.443
899,1.496167,1169.443
900,1.497833,1169.145
901,1.4995,1170.114
902,1.501167,1170.71
903,1.502833,1170.71
904,1.5045,1170.71
905,1.506167,1172.125
906,1.507833,1173.615
907,1.5095,1173.615
908,1.511167,1175.478
909,1.51295,1176.819
910,1.5145,1175.776
911,1.516167,1175.776
912,1.517833,1176.223
913,1.5195,1173.839
914,1.521183,1172.274
