"ID","sea_time","fid_signal"
1,0,139.862
2,0.00165,139.803
3,0.003317,139.803
4,0.004983,139.78
5,0.006683,139.989
6,0.008317,140.026
7,0.009983000000000001,140.026
8,0.011633,140.22
9,0.0133,140.168
10,0.014967,139.87
11,0.016633,139.87
12,0.0183,140.175
13,0.019967,140.242
14,0.021633,140.242
15,0.0233,140.414
16,0.024967,140.883
17,0.026633,140.786
18,0.0283,140.786
19,0.029967,140.57
20,0.031633,140.704
21,0.0333,140.89
22,0.034967,140.89
23,0.036633,140.935
24,0.0383,141.017
25,0.040067,140.831
26,0.041633,140.831
27,0.0433,140.391
28,0.044967,140.354
29,0.046633,140.354
30,0.0483,140.175
31,0.049967,140.153
32,0.051633,140.384
33,0.0533,140.384
34,0.054983,140.309
35,0.056633,140.533
36,0.0583,140.622
37,0.059967,140.622
38,0.061633,140.384
39,0.0633,140.51
40,0.064967,140.309
41,0.066633,140.309
42,0.0683,140.049
43,0.069967,139.944
44,0.071617,139.534
45,0.073283,139.534
46,0.07495,139.534
47,0.076617,139.713
48,0.07828300000000001,139.713
49,0.07994999999999999,139.803
50,0.081617,139.929
51,0.083283,139.974
52,0.08495,139.974
53,0.086617,139.87
54,0.0883,140.153
55,0.08995,140.481
56,0.091617,140.481
57,0.093283,140.421
58,0.094967,140.272
59,0.09661699999999999,139.9
60,0.098283,139.9
61,0.09995,139.907
62,0.101617,139.907
63,0.103283,139.907
64,0.10495,139.959
65,0.106617,139.944
66,0.108283,139.713
67,0.10995,139.713
68,0.111617,139.87
69,0.113283,140.034
70,0.11495,140.421
71,0.116617,140.421
72,0.118283,140.592
73,0.11995,140.406
74,0.121617,140.212
75,0.123283,140.212
76,0.124983,139.78
77,0.126617,139.475
78,0.128283,139.475
79,0.12995,139.706
80,0.1316,140.101
81,0.133267,140.51
82,0.134933,140.51
83,0.1366,140.734
84,0.138267,140.63
85,0.139933,140.324
86,0.1416,140.324
87,0.143267,140.16
88,0.144933,140.049
89,0.1466,140.019
90,0.148267,140.019
91,0.149933,140.265
92,0.1516,140.384
93,0.153267,140.22
94,0.154933,140.22
95,0.1566,140.086
96,0.158383,139.952
97,0.159933,139.952
98,0.1616,139.907
99,0.163267,140.16
100,0.164933,140.592
101,0.1666,140.592
102,0.168267,140.592
103,0.169933,140.384
104,0.1716,140.369
105,0.173267,140.369
106,0.174933,139.818
107,0.1766,139.721
108,0.178267,139.631
109,0.179933,139.631
110,0.1816,139.654
111,0.183267,140.086
112,0.184933,140.086
113,0.1866,140.391
114,0.188267,140.861
115,0.189933,140.958
116,0.191583,140.958
117,0.193267,141.01
118,0.194917,140.972
119,0.196583,140.704
120,0.19825,140.704
121,0.199917,140.682
122,0.2016,140.607
123,0.20325,140.466
124,0.2049,140.466
125,0.206567,140.548
126,0.208233,140.712
127,0.2099,140.54
128,0.211567,140.54
129,0.213233,140.22
130,0.2149,139.922
131,0.216567,139.922
132,0.218233,139.669
133,0.2199,139.937
134,0.221567,140.332
135,0.223233,140.332
136,0.2249,140.525
137,0.226567,140.503
138,0.228233,140.123
139,0.2299,140.123
140,0.231567,139.974
141,0.233233,139.87
142,0.2349,139.743
143,0.236567,139.743
144,0.238233,139.907
145,0.2399,140.063
146,0.241567,140.063
147,0.2433,140.071
148,0.2449,140.354
149,0.246567,140.399
150,0.248233,140.399
151,0.2499,140.518
152,0.251567,140.771
153,0.253217,140.816
154,0.254883,140.816
155,0.256583,140.809
156,0.258217,140.704
157,0.259883,140.704
158,0.26155,140.704
159,0.263217,140.302
160,0.264883,140.168
161,0.26655,139.743
162,0.268233,139.743
163,0.2699,139.43
164,0.27155,139.751
165,0.273217,139.751
166,0.274883,139.751
167,0.27665,139.862
168,0.278217,139.862
169,0.279883,139.862
170,0.28155,139.639
171,0.283217,139.587
172,0.284883,139.557
173,0.28655,139.557
174,0.288217,139.587
175,0.289883,139.572
176,0.29155,139.929
177,0.293217,139.929
178,0.294883,140.019
179,0.29655,140.019
180,0.298217,140.019
181,0.299883,140.294
182,0.30155,140.369
183,0.303217,140.51
184,0.304883,140.51
185,0.30655,140.689
186,0.308217,140.414
187,0.309883,140.175
188,0.31155,140.175
189,0.3132,139.907
190,0.314867,139.728
191,0.316533,140.011
192,0.3182,140.011
193,0.319867,140.019
194,0.321533,140.227
195,0.3232,140.227
196,0.324867,140.257
197,0.326533,140.078
198,0.3282,139.855
199,0.329867,139.855
200,0.331533,139.676
201,0.3332,139.661
202,0.334883,139.862
203,0.3366,139.862
204,0.3382,140.25
205,0.339867,140.54
206,0.341533,140.764
207,0.3432,140.764
208,0.344867,140.95
209,0.346533,140.786
210,0.3482,140.764
211,0.349867,140.764
212,0.351533,140.727
213,0.3532,140.481
214,0.354867,140.481
215,0.356533,140.585
216,0.3582,141.062
217,0.359867,141.114
218,0.361583,141.114
219,0.3632,141.069
220,0.364867,141.457
221,0.366533,141.583
222,0.3682,141.583
223,0.369867,142.15
224,0.371533,142.984
225,0.373183,143.506
226,0.37485,143.506
227,0.376517,143.982
228,0.378183,144.482
229,0.37985,144.482
230,0.381517,144.973
231,0.383183,145.786
232,0.38485,146.553
233,0.386517,146.553
234,0.388183,147.663
235,0.38985,148.848
236,0.391517,149.943
237,0.393183,149.943
238,0.39495,151.686
239,0.396517,153.43
240,0.398183,155.225
241,0.39985,155.225
242,0.401517,156.753
243,0.403183,157.893
244,0.40485,159.1
245,0.406517,159.1
246,0.408183,160.433
247,0.40985,162.207
248,0.411517,162.207
249,0.4132,164.166
250,0.41485,166.178
251,0.416517,167.809
252,0.418183,167.809
253,0.41985,168.987
254,0.421517,170.089
255,0.423183,170.983
256,0.42485,170.983
257,0.426517,172.116
258,0.428183,173.211
259,0.42985,174.113
260,0.431517,174.113
261,0.433167,174.85
262,0.434833,175.186
263,0.4365,175.186
264,0.438167,175.342
265,0.439833,175.506
266,0.4415,175.454
267,0.443167,175.454
268,0.444833,175.163
269,0.4465,174.82
270,0.448167,174.321
271,0.449833,174.321
272,0.4515,173.651
273,0.453167,173.047
274,0.454833,172.079
275,0.4565,172.079
276,0.458167,171.155
277,0.459833,170.082
278,0.4615,168.674
279,0.463167,168.674
280,0.464833,167.459
281,0.4665,165.865
282,0.468167,165.865
283,0.469833,164.285
284,0.4715,163.123
285,0.473167,162.147
286,0.474833,162.147
287,0.4765,160.716
288,0.478167,159.331
289,0.4799,157.937
290,0.4815,157.937
291,0.483167,156.611
292,0.484833,155.836
293,0.4865,155.158
294,0.488167,155.158
295,0.489833,154.644
296,0.4915,153.892
297,0.49315,153.892
298,0.494817,153.415
299,0.496567,153.124
300,0.498133,152.566
301,0.4998,152.566
302,0.501467,152.394
303,0.5031330000000001,151.999
304,0.5048,151.381
305,0.506467,151.381
306,0.5081329999999999,151.031
307,0.5098,150.904
308,0.511467,150.785
309,0.513133,150.785
310,0.5148,151.135
311,0.516467,151.604
312,0.518133,151.604
313,0.5198,151.679
314,0.521467,151.858
315,0.523133,152.022
316,0.5248,152.022
317,0.526467,151.977
318,0.528133,152.387
319,0.5299,152.864
320,0.531467,152.864
321,0.533133,153.065
322,0.5348000000000001,153.095
323,0.536467,152.931
324,0.538133,152.931
325,0.5397999999999999,152.692
326,0.541467,152.454
327,0.543133,152.446
328,0.5448,152.446
329,0.546467,152.603
330,0.548133,152.625
331,0.5498,152.625
332,0.551467,152.685
333,0.553117,152.595
334,0.554783,152.186
335,0.55645,152.186
336,0.558117,151.977
337,0.559783,151.664
338,0.561467,151.902
339,0.563167,151.902
340,0.564783,152.081
341,0.56645,152.64
342,0.568117,153.296
343,0.569783,153.296
344,0.57145,153.646
345,0.573117,154.264
346,0.574783,154.264
347,0.57645,154.808
348,0.578117,155.769
349,0.579783,157.185
350,0.58145,157.185
351,0.583117,158.69
352,0.5847830000000001,160.351
353,0.58645,162.147
354,0.588117,162.147
355,0.5897829999999999,163.965
356,0.59145,166.126
357,0.593117,168.398
358,0.594783,168.398
359,0.59645,170.864
360,0.598117,174.001
361,0.599783,177.465
362,0.60145,177.465
363,0.603117,181.742
364,0.604783,186.794
365,0.60645,186.794
366,0.608117,191.92
367,0.609783,197.746
368,0.611433,204.198
369,0.6131,204.198
370,0.614833,211.567
371,0.616433,219.926
372,0.6181,229.426
373,0.619767,229.426
374,0.621433,240.02
375,0.6231,251.859
376,0.624767,265.405
377,0.626433,265.405
378,0.6281,280.82
379,0.629767,297.882
380,0.631517,317.119
381,0.6331329999999999,317.119
382,0.634833,338.83
383,0.636433,363.044
384,0.6381,363.044
385,0.639767,390.343
386,0.641433,420.704
387,0.6431,454.56
388,0.644767,454.56
389,0.646433,491.954
390,0.6482,533.283
391,0.649767,578.59
392,0.651433,578.59
393,0.6531,628.129
394,0.654767,682.101
395,0.656433,740.617
396,0.6581,740.617
397,0.659767,803.463
398,0.661433,870.973
399,0.6631,870.973
400,0.664767,943.46
401,0.6664330000000001,1020.841
402,0.6681,1103.252
403,0.669767,1103.252
404,0.6714329999999999,1190.439
405,0.6731,1282.342
406,0.67475,1378.38
407,0.676417,1378.38
408,0.678083,1479.223
409,0.67975,1584.887
410,0.6814170000000001,1694.657
411,0.683083,1694.657
412,0.68475,1809.18
413,0.6864170000000001,1927.651
414,0.688083,1927.651
415,0.68975,2049.521
416,0.6914169999999999,2175.197
417,0.693083,2304.062
418,0.69475,2304.062
419,0.696417,2436.236
420,0.698083,2571.173
421,0.69975,2709.016
422,0.701417,2709.016
423,0.703083,2849.452
424,0.70475,2992.213
425,0.706417,3137.179
426,0.7081,3137.179
427,0.70975,3283.769
428,0.711417,3431.827
429,0.713083,3580.92
430,0.71475,3580.92
431,0.716417,3731.281
432,0.718083,3882.058
433,0.71975,3882.058
434,0.721417,4033.595
435,0.723083,4185.893
436,0.72475,4338.778
437,0.726417,4338.778
438,0.728083,4492.424
439,0.72975,4646.838
440,0.731417,4801.027
441,0.733133,4801.027
442,0.734733,4955.105
443,0.7364000000000001,5108.945
444,0.738067,5262.151
445,0.739733,5262.151
446,0.7413999999999999,5414.605
447,0.743067,5565.986
448,0.744733,5565.986
449,0.7464,5716.234
450,0.748067,5864.702
451,0.749767,6011.732
452,0.7514,6011.732
453,0.753067,6156.467
454,0.754733,6298.81
455,0.7564,6438.77
456,0.758067,6438.77
457,0.759733,6576.396
458,0.7614,6712.027
459,0.7630670000000001,6845.243
460,0.764733,6845.243
461,0.7665,6975.151
462,0.7680670000000001,7101.894
463,0.769733,7101.894
464,0.7714,7224.374
465,0.7730669999999999,7342.368
466,0.774733,7455.371
467,0.7764,7455.371
468,0.778067,7562.496
469,0.779733,7662.907
470,0.7814,7755.66
471,0.783067,7755.66
472,0.784733,7840.611
473,0.7864,7916.57
474,0.78805,7983.088
475,0.789717,7983.088
476,0.7913829999999999,8039.244
477,0.793033,8083.977
478,0.7947,8115.88
479,0.796367,8115.88
480,0.798067,8133.091
481,0.7997,8133.493
482,0.8013670000000001,8133.493
483,0.803033,8114.576
484,0.8047,8074.455
485,0.8063669999999999,8010.626
486,0.808033,8010.626
487,0.8097,7921.36
488,0.8113669999999999,7803.783
489,0.813033,7656.067
490,0.8147,7656.067
491,0.816367,7477.261
492,0.818033,7266.373
493,0.8197,7024.78
494,0.821367,7024.78
495,0.823033,6753.519
496,0.8247,6455.183
497,0.826367,6455.183
498,0.828033,6133.839
499,0.8297,5794.101
500,0.831367,5441.852
501,0.833033,5441.852
502,0.8347,5084.09
503,0.836367,4726.365
504,0.838033,4375.279
505,0.8397,4375.279
506,0.841367,4036.047
507,0.843033,3712.915
508,0.8447,3409.468
509,0.846367,3409.468
510,0.848033,3127.694
511,0.8497,2868.63
512,0.8513500000000001,2632.044
513,0.853017,2632.044
514,0.854683,2417.788
515,0.8563499999999999,2224.505
516,0.858017,2224.505
517,0.859683,2050.735
518,0.8613499999999999,1894.988
519,0.863017,1755.387
520,0.864683,1755.387
521,0.86635,1630.545
522,0.868017,1518.831
523,0.869683,1418.814
524,0.87135,1418.814
525,0.873017,1329.243
526,0.874683,1248.606
527,0.87635,1175.746
528,0.878017,1175.746
529,0.879683,1109.779
530,0.88135,1049.966
531,0.8830170000000001,1049.966
532,0.88475,995.539
533,0.88635,946.172
534,0.8880169999999999,901.163
535,0.889683,901.163
536,0.89135,860.192
537,0.8930169999999999,822.47
538,0.894683,787.772
539,0.89635,787.772
540,0.898017,755.765
541,0.899683,725.836
542,0.901367,698.313
543,0.903017,698.313
544,0.904683,672.601
545,0.90635,648.446
546,0.908017,648.446
547,0.909683,626.408
548,0.9113329999999999,605.628
549,0.913,586.204
550,0.914667,586.204
551,0.916333,568.151
552,0.918,551.082
553,0.9197,535.019
554,0.921333,535.019
555,0.923,519.857
556,0.924667,505.783
557,0.926333,492.141
558,0.928,492.141
559,0.929667,479.572
560,0.931333,467.487
561,0.9330000000000001,456.236
562,0.934667,456.236
563,0.936333,445.247
564,0.9379999999999999,434.63
565,0.939667,434.63
566,0.941333,425.108
567,0.9429999999999999,415.839
568,0.944667,407.524
569,0.946333,407.524
570,0.948,399.627
571,0.949667,391.603
572,0.951333,384.167
573,0.953,384.167
574,0.954667,376.828
575,0.956333,369.594
576,0.958,363.179
577,0.959683,363.179
578,0.961333,356.503
579,0.963,350.095
580,0.9646670000000001,350.095
581,0.966333,344.239
582,0.968,338.323
583,0.9697,332.758
584,0.971317,332.758
585,0.972983,327.945
586,0.97465,323.348
587,0.976317,318.892
588,0.977983,318.892
589,0.97965,314.742
590,0.981317,310.145
591,0.9829830000000001,305.429
592,0.98465,305.429
593,0.986333,301.398
594,0.9879829999999999,297.323
595,0.989667,293.493
596,0.991317,293.493
597,0.9929829999999999,289.939
598,0.99465,286.236
599,0.996317,286.236
600,0.997983,282.772
601,0.99965,279.881
602,1.001317,276.797
603,1.003083,276.797
604,1.00465,273.772
605,1.006317,270.985
606,1.007983,267.729
607,1.00965,267.729
608,1.011317,264.868
609,1.012983,262.424
610,1.01465,259.899
611,1.016317,259.899
612,1.017983,257.589
613,1.01965,255.309
614,1.021317,255.309
615,1.022983,252.999
616,1.02465,250.347
617,1.026317,248.089
618,1.027983,248.089
619,1.02965,245.884
620,1.031317,243.567
621,1.032967,241.727
622,1.034633,241.727
623,1.0363,239.894
624,1.037967,238.255
625,1.039633,236.467
626,1.0413,236.467
627,1.042967,234.731
628,1.044633,232.734
629,1.0463,231.065
630,1.047967,231.065
631,1.04965,229.448
632,1.0513,227.638
633,1.052967,227.638
634,1.054633,225.82
635,1.0563,223.964
636,1.057983,222.37
637,1.059633,222.37
638,1.0613,220.984
639,1.062967,219.688
640,1.064633,218.481
641,1.0663,218.481
642,1.067967,217.05
643,1.069633,215.665
644,1.0713,214.368
645,1.072967,214.368
646,1.074633,213.064
647,1.0763,211.798
648,1.077967,211.798
649,1.079617,210.844
650,1.081283,209.719
651,1.08295,208.601
652,1.084617,208.601
653,1.086283,207.61
654,1.088,206.657
655,1.089617,205.845
656,1.091267,205.845
657,1.092933,204.69
658,1.0946,203.587
659,1.096267,202.291
660,1.097933,202.291
661,1.0996,201.099
662,1.101267,200.137
663,1.102933,200.137
664,1.1046,199.482
665,1.106267,198.707
666,1.107933,197.992
667,1.1096,197.992
668,1.111267,197.306
669,1.112933,196.397
670,1.1146,195.533
671,1.116267,195.533
672,1.117933,194.989
673,1.1196,194.177
674,1.121383,193.32
675,1.122933,193.32
676,1.1246,192.627
677,1.126267,191.659
678,1.127933,191.063
679,1.1296,191.063
680,1.131267,190.713
681,1.132933,189.93
682,1.1346,189.93
683,1.1363,189.178
684,1.137933,188.269
685,1.1396,187.181
686,1.141267,187.181
687,1.142933,186.637
688,1.1446,185.892
689,1.146267,185.363
690,1.147933,185.363
691,1.1496,185.058
692,1.151267,184.573
693,1.152917,184.104
694,1.154583,184.104
695,1.15625,183.463
696,1.157917,182.718
697,1.159583,182.718
698,1.16125,182.293
699,1.162917,181.884
700,1.164583,181.705
701,1.16625,181.705
702,1.167917,181.273
703,1.169583,180.408
704,1.17125,179.864
705,1.172917,179.864
706,1.174583,179.365
707,1.17625,179.008
708,1.177917,178.814
709,1.179583,178.814
710,1.18125,178.158
711,1.182917,177.532
712,1.184583,177.063
713,1.18625,177.063
714,1.187917,176.653
715,1.189583,176.504
716,1.19125,176.504
717,1.192917,176.087
718,1.194583,175.655
719,1.19625,175.193
720,1.197917,175.193
721,1.199583,174.962
722,1.201267,174.679
723,1.202917,174.336
724,1.2046,174.336
725,1.206267,173.919
726,1.207917,173.301
727,1.209583,172.704
728,1.211233,172.704
729,1.2129,172.421
730,1.214567,172.138
731,1.216233,172.138
732,1.2179,171.751
733,1.219567,171.632
734,1.221233,171.162
735,1.2229,171.162
736,1.224567,170.626
737,1.226233,170.462
738,1.2279,170.149
739,1.229567,170.149
740,1.231233,169.791
741,1.2329,169.612
742,1.234567,169.188
743,1.236233,169.188
744,1.2379,168.726
745,1.23965,168.532
746,1.241233,168.294
747,1.2429,168.294
748,1.244567,168.256
749,1.246233,168.294
750,1.2479,168.294
751,1.249567,168.078
752,1.251233,167.899
753,1.2529,167.385
754,1.254567,167.385
755,1.256233,166.9
756,1.2579,166.602
757,1.259567,166.26
758,1.261233,166.26
759,1.2629,166.193
760,1.264567,165.969
761,1.266233,165.507
762,1.2679,165.507
763,1.269567,165.157
764,1.271217,164.919
765,1.272883,164.919
766,1.27455,165.001
767,1.276217,164.963
768,1.277883,165.03
769,1.279567,165.03
770,1.281267,165.083
771,1.282883,164.613
772,1.28455,164.479
773,1.286217,164.479
774,1.287883,164.025
775,1.28955,163.399
776,1.291217,163.339
777,1.292883,163.339
778,1.29455,163.227
779,1.296217,163.205
780,1.297883,163.123
781,1.29955,163.123
782,1.301217,162.646
783,1.302883,162.46
784,1.304567,162.46
785,1.306217,162.095
786,1.307883,162.005
787,1.30955,162.184
788,1.311217,162.184
789,1.312883,161.946
790,1.31455,161.909
791,1.316217,161.782
792,1.317883,161.782
793,1.31955,161.447
794,1.321217,161.126
795,1.322883,161.111
796,1.3246,161.111
797,1.326217,160.731
798,1.327883,160.5
799,1.32955,160.5
800,1.331217,160.351
801,1.332867,160.098
802,1.334533,160.12
803,1.3362,160.12
804,1.337867,160.031
805,1.339533,159.837
806,1.3412,159.748
807,1.342867,159.748
808,1.344533,159.629
809,1.3462,159.778
810,1.347867,159.666
811,1.349533,159.666
812,1.351283,159.286
813,1.352867,159.062
814,1.354533,159.062
815,1.3562,158.548
816,1.357967,158.541
817,1.359533,158.831
818,1.3612,158.831
819,1.362867,158.794
820,1.364533,158.69
821,1.3662,158.504
822,1.367867,158.504
823,1.369517,158.057
824,1.371183,157.811
825,1.37285,157.751
826,1.374517,157.751
827,1.376183,157.632
828,1.37785,157.602
829,1.379517,157.699
830,1.381183,157.699
831,1.38285,157.751
832,1.384517,157.49
833,1.386183,157.49
834,1.38785,157.215
835,1.389517,156.805
836,1.391167,156.432
837,1.392833,156.432
838,1.3945,156.276
839,1.396167,156.291
840,1.397833,156.336
841,1.3995,156.336
842,1.401167,156.276
843,1.402833,156.172
844,1.4045,155.889
845,1.406167,155.889
846,1.407833,155.896
847,1.4095,155.978
848,1.411167,155.978
849,1.412833,155.933
850,1.4145,155.911
851,1.416167,155.605
852,1.417833,155.605
853,1.419533,155.389
854,1.421167,155.397
855,1.422833,155.531
856,1.4245,155.531
857,1.426167,155.509
858,1.427833,155.233
859,1.4295,155.397
860,1.431167,155.397
861,1.432833,155.21
862,1.4345,154.942
863,1.436167,154.838
864,1.437833,154.838
865,1.4395,154.376
866,1.441167,154.182
867,1.442833,154.182
868,1.4445,154.205
869,1.446167,154.22
870,1.447833,154.272
871,1.4495,154.272
872,1.451167,154.234
873,1.452817,154.331
874,1.454483,154.443
875,1.45615,154.443
876,1.457817,154.428
877,1.459567,154.167
878,1.46115,153.862
879,1.462817,153.862
880,1.464483,153.497
881,1.46615,153.407
882,1.467817,153.407
883,1.469483,153.303
884,1.47115,153.124
885,1.472817,152.99
886,1.474483,152.99
887,1.476167,152.655
888,1.477817,152.633
889,1.4795,152.67
890,1.48115,152.67
891,1.482817,152.633
892,1.484483,152.841
893,1.48615,152.834
894,1.487817,152.834
895,1.489483,152.953
896,1.49115,153.035
897,1.492933,153.087
898,1.494483,153.087
899,1.49615,153.124
900,1.497833,153.132
901,1.499483,153.132
902,1.50115,153.02
903,1.502817,152.566
904,1.504483,152.58
905,1.50615,152.58
906,1.507817,152.312
907,1.509483,151.969
908,1.51115,151.835
909,1.5128,151.835
910,1.514467,151.448
911,1.516133,151.187
912,1.5178,151.59
913,1.519467,151.59
914,1.521133,151.671
915,1.5228,151.753
916,1.524467,151.753
917,1.526133,151.604
918,1.5278,151.247
919,1.529467,150.971
920,1.531133,150.971
921,1.5328,150.733
922,1.534467,150.762
923,1.536133,150.762
924,1.5378,150.762
925,1.539467,150.904
926,1.541133,151.113
927,1.5428,151.239
928,1.544467,151.239
929,1.546133,151.336
930,1.5478,151.239
931,1.549467,151.239
932,1.551133,151.202
933,1.5528,151.284
934,1.554467,151.12
935,1.556133,151.12
936,1.5578,151.411
937,1.559467,151.336
938,1.561183,151.321
939,1.5628,151.321
940,1.564467,151.306
941,1.566133,151.001
942,1.5678,150.852
943,1.569467,150.852
944,1.571133,150.926
945,1.572783,150.442
946,1.57445,150.144
947,1.576117,150.144
948,1.577817,150.375
949,1.57945,150.085
950,1.581117,150.085
951,1.582783,150.435
952,1.58445,150.383
953,1.586117,149.839
954,1.587783,149.839
955,1.58945,149.436
956,1.591117,149.392
957,1.592783,149.459
958,1.5945,149.459
959,1.596117,149.406
960,1.597783,149.69
