"ID","sea_time","fid_signal"
1,0,1169.667
2,0.001667,1168.549
3,0.003333,1166.388
4,0.005,1166.388
5,0.006667,1163.408
6,0.008333,1163.781
7,0.01,1164.228
8,0.011717,1164.228
9,0.013333,1167.58
10,0.015,1170.114
11,0.016667,1169.22
12,0.018333,1169.22
13,0.019983,1167.282
14,0.02165,1163.706
15,0.023317,1163.706
16,0.024983,1163.557
17,0.02665,1165.867
18,0.028317,1167.282
19,0.03,1167.282
20,0.03165,1171.38
21,0.033317,1174.137
22,0.034983,1172.87
23,0.03665,1172.87
24,0.038317,1172.125
25,0.039983,1170.337
26,0.04165,1171.529
27,0.043317,1171.529
28,0.045067,1172.423
29,0.046667,1173.541
30,0.048317,1172.349
31,0.049983,1172.349
32,0.05165,1171.529
33,0.053317,1171.827
34,0.054983,1171.827
35,0.05665,1171.38
36,0.058317,1173.69
37,0.059983,1170.635
38,0.06165,1170.635
39,0.063317,1170.039
40,0.064983,1170.486
41,0.06665,1169.667
42,0.068317,1169.667
43,0.069983,1171.455
44,0.07165000000000001,1172.721
45,0.07331699999999999,1171.082
46,0.07498299999999999,1171.082
47,0.07665,1170.337
48,0.078317,1167.58
49,0.079967,1167.58
50,0.081633,1164.153
51,0.0833,1163.781
52,0.084967,1162.812
53,0.086633,1162.812
54,0.0883,1163.557
55,0.08996700000000001,1163.93
56,0.09163300000000001,1164.079
57,0.09329999999999999,1164.079
58,0.094983,1166.686
59,0.096633,1168.624
60,0.0983,1169.965
61,0.099967,1169.965
62,0.101667,1170.412
63,0.1033,1166.761
64,0.104967,1164.824
65,0.106633,1164.824
66,0.1083,1163.483
67,0.109967,1162.216
68,0.111633,1162.216
69,0.1133,1165.792
70,0.114967,1169.741
71,0.116633,1171.008
72,0.1183,1171.008
73,0.119967,1171.306
74,0.121633,1170.561
75,0.1233,1169.22
76,0.124967,1169.22
77,0.126633,1170.784
78,0.1283,1170.635
79,0.129967,1168.698
80,0.131633,1168.698
81,0.1333,1167.432
82,0.134967,1164.749
83,0.136633,1164.749
84,0.1383,1167.58
85,0.13995,1166.314
86,0.141617,1167.655
87,0.143283,1167.655
88,0.14495,1168.698
89,0.1467,1167.804
90,0.148283,1169.592
91,0.14995,1169.592
92,0.151617,1169.22
93,0.153283,1168.326
94,0.154933,1167.208
95,0.1566,1167.208
96,0.158267,1166.016
97,0.159933,1165.271
98,0.1616,1165.271
99,0.163283,1166.239
100,0.164933,1166.761
101,0.1666,1168.773
102,0.168267,1168.773
103,0.169933,1167.506
104,0.1716,1168.996
105,0.173267,1171.157
106,0.174933,1171.157
107,0.1766,1168.847
108,0.178267,1166.835
109,0.179933,1161.993
110,0.1816,1161.993
111,0.183267,1156.628
112,0.184933,1157.895
113,0.1866,1160.204
114,0.188267,1160.204
115,0.189933,1160.949
116,0.1916,1163.557
117,0.193267,1163.557
118,0.194933,1163.185
119,0.1966,1162.365
120,0.198267,1164.898
121,0.199933,1164.898
122,0.201583,1164.6
123,0.20325,1166.761
124,0.204917,1168.475
125,0.206583,1168.475
126,0.20825,1168.326
127,0.209917,1168.698
128,0.211583,1166.165
129,0.21325,1166.165
130,0.214917,1167.804
131,0.216583,1165.718
132,0.218267,1165.718
133,0.219917,1167.729
134,0.221583,1171.008
135,0.22325,1171.455
136,0.224917,1171.455
137,0.226583,1172.945
138,0.22825,1173.69
139,0.229917,1171.306
140,0.231583,1171.306
141,0.23325,1169.518
142,0.234917,1168.549
143,0.236583,1165.643
144,0.23825,1165.643
145,0.239917,1165.122
146,0.241583,1163.334
147,0.24325,1163.11
148,0.244917,1163.11
149,0.246583,1162.887
150,0.24825,1164.079
151,0.249917,1164.079
152,0.251583,1163.855
153,0.25325,1164.898
154,0.254917,1164.079
155,0.256583,1164.079
156,0.25825,1162.887
157,0.2599,1162.44
158,0.261567,1161.471
159,0.263233,1161.471
160,0.264933,1163.259
161,0.266567,1163.334
162,0.268233,1166.165
163,0.269917,1166.165
164,0.271567,1167.133
165,0.273233,1169.22
166,0.2749,1169.22
167,0.276567,1168.773
168,0.278233,1169.89
169,0.2799,1170.635
170,0.28165,1170.635
171,0.283233,1171.678
172,0.2849,1171.976
173,0.286567,1169.071
174,0.288233,1169.071
175,0.2899,1167.804
176,0.291567,1165.122
177,0.293233,1164.377
178,0.2949,1164.377
179,0.296567,1163.855
180,0.29835,1165.122
181,0.2999,1167.133
182,0.301567,1167.133
183,0.303233,1168.922
184,0.304917,1168.922
185,0.306567,1168.922
186,0.308233,1168.475
187,0.3099,1167.58
188,0.311567,1168.624
189,0.313233,1168.624
190,0.3149,1167.282
191,0.316583,1167.357
192,0.318233,1166.835
193,0.3199,1166.835
194,0.32155,1167.879
195,0.323217,1169.518
196,0.324883,1170.933
197,0.32655,1170.933
198,0.328217,1167.953
199,0.329883,1168.624
200,0.33155,1168.624
201,0.333217,1166.165
202,0.334883,1166.835
203,0.33655,1169.145
204,0.338217,1169.145
205,0.339883,1166.761
206,0.34155,1172.274
207,0.343217,1168.698
208,0.344883,1168.698
209,0.34655,1170.784
210,0.348217,1169.89
211,0.349883,1170.039
212,0.35155,1170.039
213,0.353217,1171.157
214,0.354883,1166.165
215,0.35655,1166.165
216,0.358217,1165.643
217,0.359883,1160.726
218,0.36155,1163.334
219,0.363217,1163.334
220,0.364883,1164.824
221,0.36655,1164.451
222,0.368217,1167.729
223,0.369883,1167.729
224,0.37155,1165.643
225,0.373217,1165.42
226,0.374883,1169.518
227,0.37655,1169.518
228,0.378217,1168.996
229,0.379883,1170.486
230,0.381567,1175.106
231,0.3833,1175.106
232,0.384867,1174.212
233,0.386533,1177.341
234,0.3882,1177.341
235,0.389867,1180.843
236,0.391533,1182.631
237,0.3932,1190.081
238,0.394867,1190.081
239,0.396533,1199.394
240,0.3982,1211.166
241,0.399883,1220.033
242,0.401533,1220.033
243,0.4032,1231.283
244,0.404867,1242.682
245,0.406533,1252.666
246,0.4082,1252.666
247,0.409867,1269.877
248,0.411533,1283.884
249,0.4132,1283.884
250,0.414867,1299.53
251,0.41665,1316.369
252,0.4182,1334.771
253,0.419867,1334.771
254,0.421533,1354.367
255,0.4232,1374.036
256,0.424867,1401.007
257,0.426533,1401.007
258,0.4282,1425.296
259,0.429867,1452.64
260,0.431533,1481.324
261,0.4332,1481.324
262,0.434867,1507.103
263,0.436533,1539.365
264,0.4382,1572.296
265,0.439867,1572.296
266,0.441517,1610.07
267,0.443183,1648.739
268,0.44485,1648.739
269,0.4465,1687.929
270,0.448167,1730.248
271,0.449833,1776.144
272,0.4515,1776.144
273,0.4532,1825.914
274,0.454833,1880.452
275,0.4565,1941.249
276,0.458167,1941.249
277,0.459833,2012.849
278,0.4615,2096.668
279,0.463183,2192.482
280,0.464833,2192.482
281,0.4665,2310.201
282,0.468167,2448.857
283,0.469833,2448.857
284,0.4715,2619.103
285,0.473167,2828.24
286,0.474833,3075.004
287,0.4765,3075.004
288,0.478167,3368.035
289,0.479833,3714.115
290,0.4815,4116.073
291,0.483167,4116.073
292,0.484833,4580.17
293,0.4865,5109.534
294,0.488167,5700.886
295,0.489833,5700.886
296,0.4915,6357.953
297,0.493167,7077.232
298,0.494833,7077.232
299,0.4965,7858.276
300,0.498167,8698.776
301,0.499817,9594.411
302,0.501517,9594.411
303,0.50315,10542.944
304,0.504817,11535.511
305,0.506483,12572.631
306,0.50815,12572.631
307,0.509817,13648.942
308,0.511483,14761.612
309,0.51315,15909.15
310,0.514817,15909.15
311,0.516483,17081.945
312,0.518217,18282.012
313,0.519817,19503.98
314,0.521483,19503.98
315,0.52315,20742.938
316,0.524817,22002.16
317,0.526483,22002.16
318,0.52815,23269.207
319,0.529817,24545.342
320,0.531483,25829.822
321,0.53315,25829.822
322,0.534933,27109.758
323,0.536483,28390.885
324,0.53815,29666.498
325,0.539817,29666.498
326,0.541483,30924.977
327,0.54315,32172.725
328,0.544817,33399.461
329,0.5464830000000001,33399.461
330,0.54815,34606.086
331,0.549817,35789.906
332,0.5514829999999999,35789.906
333,0.55315,36939.68
334,0.554817,38055.48
335,0.5564829999999999,39118.902
336,0.55815,39118.902
337,0.5598,40125.773
338,0.561467,41060.598
339,0.563133,41898.191
340,0.5648,41898.191
341,0.5664670000000001,42617.992
342,0.568133,43172.465
343,0.5698,43500.438
344,0.5714669999999999,43500.438
345,0.573133,43518.766
346,0.5748,43105.258
347,0.576467,42122.305
348,0.578133,42122.305
349,0.5798,40444.359
350,0.581467,38007.871
351,0.583133,38007.871
352,0.5848,34875.57
353,0.586467,31238.199
354,0.588133,27380.213
355,0.589817,27380.213
356,0.591467,23598.746
357,0.593133,20123.049
358,0.5948,17091.633
359,0.596467,17091.633
360,0.598133,14539.286
361,0.5998,12437.851
362,0.601467,10729.134
363,0.603133,10729.134
364,0.6048,9344.593000000001
365,0.606467,8221.566000000001
366,0.608133,8221.566000000001
367,0.6098,7305.965
368,0.611467,6552.115
369,0.613133,5924.702
370,0.6148,5924.702
371,0.616467,5400.479
372,0.618133,4949.942
373,0.619783,4563.257
374,0.6214499999999999,4563.257
375,0.623117,4228.8
376,0.624783,3933.683
377,0.62645,3680.661
378,0.628117,3680.661
379,0.629783,3463.03
380,0.63145,3268.644
381,0.633117,3096.759
382,0.634783,3096.759
383,0.63645,2944.246
384,0.638117,2801.94
385,0.639783,2801.94
386,0.64145,2677.515
387,0.643117,2565.384
388,0.644783,2459.064
389,0.64645,2459.064
390,0.6481170000000001,2366.304
391,0.649783,2282.262
392,0.65145,2205.297
393,0.653233,2205.297
394,0.654783,2139.36
395,0.65645,2076.477
396,0.658117,2019.554
397,0.659783,2019.554
398,0.66145,1965.985
399,0.663117,1918.972
400,0.664783,1918.972
401,0.66645,1876.801
402,0.668117,1835.078
403,0.669783,1797.005
404,0.67145,1797.005
405,0.673117,1759.157
406,0.674783,1724.511
407,0.67645,1694.188
408,0.678117,1694.188
409,0.679783,1667.291
410,0.681433,1641.661
411,0.6831,1618.564
412,0.684767,1618.564
413,0.686433,1595.84
414,0.6881,1575.798
415,0.689767,1558.959
416,0.691433,1558.959
417,0.6931,1545.548
418,0.694767,1533.553
419,0.696433,1533.553
420,0.6981000000000001,1521.558
421,0.699767,1508.445
422,0.701433,1492.649
423,0.7030999999999999,1492.649
424,0.704767,1475.885
425,0.706433,1461.953
426,0.7081,1453.161
427,0.709767,1453.161
428,0.711433,1444.37
429,0.7131,1436.621
430,0.714767,1430.586
431,0.716433,1430.586
432,0.7181,1420.081
433,0.719767,1410.767
434,0.721433,1410.767
435,0.7231,1403.391
436,0.7247670000000001,1391.694
437,0.72645,1383.424
438,0.7281,1383.424
439,0.7297670000000001,1378.73
440,0.731433,1375.75
441,0.733117,1370.46
442,0.7347669999999999,1370.46
443,0.736417,1365.84
444,0.738167,1359.358
445,0.739733,1353.994
446,0.7413999999999999,1353.994
447,0.743067,1351.61
448,0.744733,1348.704
449,0.7464,1348.704
450,0.748067,1345.649
451,0.749733,1339.391
452,0.7514,1335.964
453,0.753067,1335.964
454,0.754733,1329.929
455,0.7564,1325.905
456,0.758067,1324.043
457,0.759733,1324.043
458,0.7614,1319.945
459,0.7630670000000001,1318.529
460,0.764733,1315.474
461,0.7664,1315.474
462,0.7680670000000001,1310.036
463,0.769733,1304.224
464,0.7715,1300.499
465,0.7730669999999999,1300.499
466,0.774733,1297.742
467,0.7764,1294.985
468,0.778067,1294.985
469,0.779733,1295.432
470,0.7814,1293.793
471,0.783067,1291.335
472,0.784733,1291.335
473,0.7864,1287.609
474,0.788067,1283.735
475,0.789733,1279.861
476,0.7914,1279.861
477,0.793067,1275.986
478,0.794733,1276.21
479,0.7964,1273.23
480,0.798067,1273.23
481,0.799733,1272.485
482,0.801383,1269.132
483,0.80305,1269.132
484,0.80475,1263.171
485,0.806383,1263.767
486,0.80805,1260.266
487,0.809717,1260.266
488,0.8114170000000001,1260.117
489,0.8130500000000001,1260.415
490,0.814717,1255.497
491,0.816383,1255.497
492,0.8180500000000001,1254.082
493,0.819717,1249.611
494,0.821383,1247.972
495,0.8230499999999999,1247.972
496,0.824717,1249.09
497,0.826383,1246.706
498,0.82805,1248.941
499,0.829717,1248.941
500,0.831383,1251.698
501,0.83305,1249.909
502,0.834717,1249.909
503,0.836383,1248.27
504,0.83805,1245.365
505,0.839717,1238.51
506,0.841383,1238.51
507,0.84305,1235.679
508,0.8447170000000001,1235.902
509,0.846383,1236.051
510,0.84805,1236.051
511,0.8497169999999999,1235.53
512,0.851383,1232.55
513,0.85305,1231.953
514,0.8547169999999999,1231.953
515,0.856433,1232.028
516,0.85805,1235.083
517,0.859717,1235.083
518,0.861367,1237.914
519,0.8630330000000001,1233.965
520,0.8647,1231.432
521,0.866367,1231.432
522,0.8680330000000001,1229.867
523,0.8697,1227.185
524,0.871367,1227.707
525,0.8730329999999999,1227.707
526,0.8747,1226.738
527,0.876367,1223.907
528,0.878033,1226.291
529,0.8797,1226.291
530,0.8814,1227.483
531,0.883033,1228.75
532,0.8847,1228.75
533,0.886383,1228.75
534,0.888033,1227.632
535,0.889817,1228.228
536,0.891367,1228.228
537,0.893033,1226.068
538,0.8947000000000001,1226.291
539,0.896367,1222.491
540,0.898033,1222.491
541,0.8997000000000001,1220.703
542,0.901383,1220.033
543,0.903033,1219.213
544,0.9046999999999999,1219.213
545,0.906367,1219.958
546,0.908033,1217.276
547,0.9097,1213.849
548,0.911367,1213.849
549,0.913033,1209.825
550,0.9147,1209.9
551,0.916367,1209.9
552,0.918033,1211.166
553,0.9197,1212.135
554,0.92135,1215.041
555,0.923017,1215.041
556,0.924683,1214.072
557,0.92635,1211.539
558,0.928017,1209.602
559,0.929683,1209.602
560,0.93135,1209.155
561,0.933017,1208.261
562,0.934683,1210.272
563,0.93635,1210.272
564,0.938017,1213.774
565,0.939683,1212.507
566,0.94135,1212.507
567,0.943017,1214.147
568,0.9446830000000001,1214.072
569,0.946383,1212.731
570,0.948017,1212.731
571,0.9496830000000001,1211.762
572,0.95135,1210.943
573,0.953017,1208.857
574,0.9546829999999999,1208.857
575,0.95635,1209.453
576,0.958017,1211.092
577,0.959683,1207.367
578,0.96135,1207.367
579,0.963017,1208.41
580,0.964683,1209.453
581,0.96635,1209.08
582,0.968017,1209.08
583,0.969683,1209.527
584,0.97135,1209.006
585,0.973017,1209.006
586,0.9747169999999999,1205.429
587,0.9763500000000001,1206.026
588,0.978017,1206.771
589,0.979683,1206.771
590,0.981333,1204.908
591,0.983,1203.194
592,0.984667,1199.767
593,0.986333,1199.767
594,0.988,1198.873
595,0.989667,1200.959
596,0.991417,1204.759
597,0.993,1204.759
598,0.994667,1205.355
599,0.996333,1205.057
600,0.998,1205.057
601,0.999667,1201.63
602,1.001333,1198.575
603,1.003,1197.904
604,1.004667,1197.904
605,1.006333,1199.767
606,1.00805,1200.661
607,1.009667,1202.747
608,1.011333,1202.747
609,1.013,1202.375
610,1.014667,1198.724
611,1.016333,1198.426
612,1.018,1198.426
613,1.019667,1196.414
614,1.021333,1198.947
615,1.023,1201.481
616,1.024683,1201.481
617,1.026333,1204.088
618,1.027983,1206.1
619,1.02965,1206.1
620,1.031317,1206.026
621,1.032983,1206.547
622,1.03465,1205.653
623,1.036317,1205.653
624,1.037983,1202.226
625,1.039633,1200.289
626,1.0413,1200.959
627,1.042967,1200.959
628,1.044633,1199.394
629,1.0463,1199.469
630,1.047967,1197.532
631,1.049667,1197.532
632,1.0513,1195.893
633,1.052967,1193.21
634,1.054633,1193.21
635,1.0563,1191.199
636,1.057967,1193.285
637,1.059633,1195.669
638,1.0613,1195.669
639,1.062967,1197.383
640,1.064633,1198.277
641,1.0663,1195.595
642,1.067967,1195.595
643,1.069633,1194.104
644,1.0713,1195.595
645,1.072967,1196.414
646,1.074633,1196.414
647,1.076317,1197.755
648,1.077967,1195.818
649,1.079633,1196.265
650,1.0813,1196.265
651,1.082967,1197.308
652,1.084633,1195.073
653,1.0863,1195.073
654,1.087967,1194.701
655,1.089633,1194.552
656,1.091317,1194.328
657,1.093017,1194.328
658,1.094633,1196.638
659,1.0963,1196.191
660,1.097967,1195.52
661,1.099633,1195.52
662,1.101283,1195.446
663,1.10295,1191.72
664,1.104617,1190.603
665,1.106283,1190.603
666,1.10795,1189.411
667,1.109717,1186.877
668,1.111283,1186.877
669,1.11295,1187.697
670,1.114617,1189.336
671,1.116283,1190.23
672,1.11795,1190.23
673,1.119617,1189.411
674,1.121283,1191.869
675,1.12295,1191.497
676,1.124617,1191.497
677,1.126383,1188.591
678,1.12795,1191.497
679,1.129617,1188.219
680,1.131283,1188.219
681,1.13295,1185.015
682,1.134617,1184.717
683,1.136283,1184.717
684,1.13795,1183.301
685,1.139633,1183.152
686,1.141283,1185.313
687,1.143,1185.313
688,1.144617,1186.952
689,1.146283,1189.038
690,1.14795,1192.912
691,1.149617,1192.912
692,1.151283,1192.987
693,1.15295,1191.72
694,1.154617,1191.422
695,1.156283,1191.422
696,1.15795,1191.646
697,1.159617,1192.838
698,1.161267,1194.477
699,1.162933,1194.477
700,1.1646,1195.52
701,1.166267,1190.975
702,1.16795,1190.975
703,1.1696,1187.474
704,1.171267,1185.909
705,1.172933,1181.364
706,1.1746,1181.364
707,1.176267,1181.364
708,1.177933,1182.705
709,1.1796,1185.089
710,1.181267,1185.089
711,1.182933,1187.921
712,1.1846,1191.273
713,1.186267,1192.689
714,1.187933,1192.689
715,1.1896,1192.54
716,1.191267,1191.273
717,1.192933,1191.273
718,1.1946,1191.348
719,1.196267,1191.497
720,1.197933,1188.666
721,1.1996,1188.666
722,1.201267,1190.454
723,1.202933,1188.219
724,1.2046,1188.666
725,1.206267,1188.666
726,1.207933,1188.293
727,1.2096,1186.654
728,1.211283,1186.729
729,1.212933,1186.729
730,1.2146,1186.579
731,1.216267,1187.176
732,1.217933,1183.748
733,1.2196,1183.748
734,1.22125,1182.184
735,1.222917,1179.874
736,1.224583,1179.874
737,1.22625,1176.968
738,1.228,1175.18
739,1.229583,1176.074
740,1.23125,1176.074
741,1.232933,1174.659
742,1.234583,1175.925
743,1.23625,1181.96
744,1.237917,1181.96
745,1.239583,1182.854
746,1.24125,1184.195
747,1.242917,1185.313
748,1.244667,1185.313
749,1.24625,1183.525
750,1.247917,1184.791
751,1.249583,1184.791
752,1.25125,1186.877
753,1.252917,1185.983
754,1.254583,1185.015
755,1.25625,1185.015
756,1.257917,1182.631
757,1.259583,1179.65
758,1.261367,1177.49
759,1.262917,1177.49
760,1.264583,1176.894
761,1.26625,1179.129
762,1.267917,1181.066
763,1.269583,1181.066
764,1.27125,1183.078
765,1.272917,1182.631
766,1.274583,1180.693
767,1.27625,1180.693
768,1.277917,1179.948
769,1.279583,1183.078
770,1.281233,1183.078
771,1.2829,1186.729
772,1.284567,1188.591
773,1.286233,1190.156
774,1.2879,1190.156
775,1.289567,1187.324
776,1.291233,1182.482
777,1.2929,1179.799
778,1.294567,1179.799
779,1.296233,1175.329
780,1.2979,1175.627
781,1.299567,1177.192
782,1.301233,1177.192
783,1.302917,1179.054
784,1.304583,1180.693
785,1.30625,1180.693
786,1.3079,1180.843
787,1.309567,1180.246
788,1.311233,1177.49
789,1.3129,1177.49
790,1.314567,1177.192
791,1.316233,1177.564
792,1.3179,1177.415
793,1.31955,1177.415
794,1.321217,1180.47
795,1.322883,1181.439
796,1.32455,1181.588
797,1.326217,1181.588
798,1.327883,1179.203
799,1.32955,1177.713
800,1.331217,1177.713
801,1.332883,1177.937
802,1.33455,1180.246
803,1.336217,1185.164
804,1.337883,1185.164
805,1.339533,1183.45
806,1.3412,1182.109
807,1.342867,1181.215
808,1.344533,1181.215
809,1.34625,1182.333
810,1.347867,1183.45
811,1.349533,1186.058
812,1.3512,1186.058
813,1.352867,1183.748
814,1.354533,1181.29
815,1.3562,1178.831
816,1.357867,1178.831
817,1.359533,1177.192
818,1.3612,1176.596
819,1.3629,1176.596
820,1.364533,1176.521
821,1.3662,1179.799
822,1.367867,1179.948
823,1.369533,1179.948
824,1.3712,1178.607
825,1.372867,1178.086
826,1.374533,1177.788
827,1.3762,1177.788
828,1.377867,1179.054
829,1.379633,1184.344
830,1.3812,1187.995
831,1.382883,1187.995
832,1.38455,1189.038
833,1.3862,1186.877
834,1.387867,1186.877
835,1.389533,1183.525
836,1.3912,1177.415
837,1.392867,1177.49
838,1.394533,1177.49
839,1.3962,1179.948
840,1.397867,1180.47
841,1.399517,1182.556
842,1.401183,1182.556
843,1.40285,1183.003
844,1.404517,1179.352
845,1.406183,1177.937
846,1.40785,1177.937
847,1.409517,1176.596
848,1.411183,1176.894
849,1.41285,1178.309
850,1.414517,1178.309
851,1.416183,1178.16
852,1.41785,1178.682
853,1.419517,1178.682
854,1.421183,1175.553
855,1.42285,1176.67
856,1.424517,1179.501
857,1.426183,1179.501
858,1.42785,1182.407
859,1.429517,1184.27
860,1.431183,1184.419
861,1.43285,1184.419
862,1.434517,1181.886
863,1.436183,1180.693
864,1.43785,1178.011
865,1.439517,1178.011
866,1.441183,1176.372
867,1.44285,1175.478
868,1.444517,1175.478
869,1.446183,1175.106
870,1.44785,1176.074
871,1.449517,1176.745
872,1.451183,1176.745
873,1.45285,1177.713
874,1.454517,1175.18
875,1.456183,1174.882
876,1.45785,1174.882
877,1.459517,1175.329
878,1.461167,1176.298
879,1.462833,1179.576
880,1.4645,1179.576
881,1.466167,1180.693
882,1.467833,1179.352
883,1.4695,1176.596
884,1.471167,1176.596
885,1.472833,1173.765
886,1.4745,1173.317
887,1.476167,1173.317
888,1.477833,1170.486
889,1.479517,1171.306
890,1.481167,1173.466
891,1.482833,1173.466
892,1.4845,1172.349
893,1.486167,1176.745
894,1.487833,1180.47
895,1.4895,1180.47
896,1.491167,1182.035
897,1.492833,1184.419
898,1.4945,1183.897
899,1.496167,1183.897
900,1.497867,1180.917
901,1.4995,1177.341
902,1.501167,1177.341
903,1.502833,1176.074
904,1.5045,1175.776
905,1.506167,1176.521
906,1.507833,1176.521
907,1.5095,1179.352
908,1.511167,1178.011
909,1.512833,1176
910,1.5145,1176
911,1.516167,1173.168
912,1.517833,1169.518
913,1.519483,1168.847
914,1.52115,1168.847
915,1.522817,1170.71
916,1.524517,1171.529
917,1.52615,1171.529
