"ID","sea_time","fid_signal"
1,0,142.887
2,0.00165,142.887
3,0.003317,142.843
4,0.004983,142.686
5,0.00665,142.477
6,0.008317,142.477
7,0.009983000000000001,142.403
8,0.01165,142.165
9,0.013317,142.016
10,0.014967,142.016
11,0.01665,142.001
12,0.0183,142.008
13,0.019967,142.008
14,0.021633,142.314
15,0.0233,142.239
16,0.024967,142.306
17,0.026633,142.306
18,0.0283,142.008
19,0.029983,141.822
20,0.031633,142.217
21,0.0333,142.217
22,0.034967,142.246
23,0.036633,142.768
24,0.0383,142.708
25,0.039967,142.708
26,0.041633,142.828
27,0.043317,142.82
28,0.044967,142.492
29,0.046633,142.492
30,0.0483,142.276
31,0.049967,141.807
32,0.051633,141.807
33,0.0533,141.643
34,0.054967,141.695
35,0.056633,142.194
36,0.0583,142.194
37,0.059967,142.634
38,0.061633,142.88
39,0.0633,142.924
40,0.064967,142.924
41,0.066633,142.641
42,0.0683,142.343
43,0.069967,142.433
44,0.071633,142.433
45,0.073333,142.589
46,0.07496700000000001,143.029
47,0.076617,143.029
48,0.07828300000000001,142.902
49,0.07994999999999999,142.872
50,0.081617,142.947
51,0.083283,142.947
52,0.08495,142.664
53,0.086617,142.962
54,0.088283,142.738
55,0.08995,142.738
56,0.091617,142.284
57,0.093283,142.179
58,0.09495000000000001,142.224
59,0.09661699999999999,142.224
60,0.098283,142.202
61,0.09995,142.187
62,0.101617,142.388
63,0.103283,142.388
64,0.10495,142.269
65,0.106733,142.194
66,0.108283,142.194
67,0.10995,142.358
68,0.111617,142.291
69,0.113283,142.477
70,0.11495,142.477
71,0.116617,142.805
72,0.118283,142.947
73,0.119967,142.828
74,0.121617,142.828
75,0.123283,142.679
76,0.12495,142.388
77,0.126617,142.232
78,0.128283,142.232
79,0.12995,142.06
80,0.131617,142.209
81,0.133283,142.209
82,0.13495,142.239
83,0.1366,142.455
84,0.138267,142.634
85,0.139933,142.634
86,0.1416,142.716
87,0.143267,142.939
88,0.144933,142.619
89,0.1466,142.619
90,0.148267,142.731
91,0.149933,142.507
92,0.1516,142.515
93,0.153267,142.515
94,0.154933,142.746
95,0.1566,142.656
96,0.158267,142.373
97,0.159933,142.373
98,0.1616,142.351
99,0.163267,142.12
100,0.164933,142.12
101,0.1666,142.03
102,0.168267,142.388
103,0.169933,142.343
104,0.1716,142.343
105,0.173267,142.738
106,0.174933,142.798
107,0.1766,142.47
108,0.178267,142.47
109,0.179933,142.53
110,0.1816,142.314
111,0.183267,142.291
112,0.184933,142.291
113,0.1866,142.269
114,0.188267,142.09
115,0.189967,142.09
116,0.191667,142.15
117,0.193267,142.321
118,0.194933,142.403
119,0.1966,142.403
120,0.19825,142.545
121,0.199917,142.731
122,0.201583,142.485
123,0.20325,142.485
124,0.204917,142.761
125,0.206583,142.798
126,0.20825,142.708
127,0.209917,142.708
128,0.211583,143.036
129,0.21325,143.021
130,0.214917,143.185
131,0.216583,143.185
132,0.21825,143.394
133,0.219917,142.962
134,0.221583,142.962
135,0.22325,142.597
136,0.225033,142.321
137,0.226583,141.896
138,0.228267,141.896
139,0.229917,142.269
140,0.231583,142.477
141,0.23325,142.53
142,0.234917,142.53
143,0.236583,142.753
144,0.23825,142.612
145,0.239917,142.679
146,0.241583,142.679
147,0.24325,142.53
148,0.244917,142.723
149,0.246583,142.723
150,0.24825,142.656
151,0.249917,142.537
152,0.251583,142.701
153,0.25325,142.701
154,0.254917,142.418
155,0.256567,142.276
156,0.258233,142.202
157,0.2599,142.202
158,0.261567,142.068
159,0.263233,142.023
160,0.264967,142.068
161,0.266567,142.068
162,0.268233,142.202
163,0.2699,142.127
164,0.271567,142.127
165,0.273233,142.135
166,0.2749,142.179
167,0.276567,142.038
168,0.278217,142.038
169,0.279883,142.135
170,0.28155,142.321
171,0.283217,142.537
172,0.284883,142.537
173,0.28655,142.671
174,0.288217,142.716
175,0.289883,143.059
176,0.29155,143.059
177,0.293217,143.796
178,0.294883,144.765
179,0.29655,145.86
180,0.298217,145.86
181,0.299883,147.261
182,0.30155,148.952
183,0.303217,148.952
184,0.304883,151.604
185,0.30655,155.307
186,0.308217,159.808
187,0.309933,159.808
188,0.31155,165.261
189,0.313217,172.019
190,0.314883,180.714
191,0.316533,180.714
192,0.3182,190.668
193,0.319867,202.537
194,0.321533,216.32
195,0.3232,216.32
196,0.324867,231.765
197,0.326617,249.617
198,0.328217,249.617
199,0.329917,269.741
200,0.331533,291.996
201,0.3332,316.285
202,0.334867,316.285
203,0.336533,342.578
204,0.3382,371.017
205,0.339867,401.504
206,0.341533,401.504
207,0.343317,434.607
208,0.344867,469.93
209,0.346533,507.675
210,0.3482,507.675
211,0.349867,547.506
212,0.351533,589.333
213,0.3532,633.225
214,0.354867,633.225
215,0.356533,679.12
216,0.3582,727.631
217,0.359867,727.631
218,0.361533,778.742
219,0.3632,832.729
220,0.364867,889.8150000000001
221,0.366533,889.8150000000001
222,0.3682,949.942
223,0.369867,1012.869
224,0.371533,1079.477
225,0.3732,1079.477
226,0.374867,1150.139
227,0.376533,1225.71
228,0.378183,1307.428
229,0.37985,1307.428
230,0.381517,1395.725
231,0.383183,1491.673
232,0.38485,1491.673
233,0.386517,1596.279
234,0.388183,1711.19
235,0.38985,1838.595
236,0.391517,1838.595
237,0.393183,1980.349
238,0.39485,2138.905
239,0.396517,2315.566
240,0.398183,2315.566
241,0.399867,2511.941
242,0.40155,2729.796
243,0.4032,2969.377
244,0.40485,2969.377
245,0.406517,3231.116
246,0.408183,3513.411
247,0.40985,3814.422
248,0.411517,3814.422
249,0.413183,4131.056
250,0.41485,4458.658
251,0.416517,4458.658
252,0.418183,4793.145
253,0.41985,5127.743
254,0.421517,5455.658
255,0.423183,5455.658
256,0.42485,5770.207
257,0.426517,6063.819
258,0.428183,6329.439
259,0.42985,6329.439
260,0.431517,6561.093
261,0.433183,6752.707
262,0.43485,6899.647
263,0.4365,6899.647
264,0.438167,6998.628
265,0.439833,7047.757
266,0.4415,7047.757
267,0.443167,7046.722
268,0.444917,6996.147
269,0.4465,6897.934
270,0.448167,6897.934
271,0.449833,6755.158
272,0.4515,6572.247
273,0.453167,6353.818
274,0.454833,6353.818
275,0.4565,6105.669
276,0.458167,5833.521
277,0.459833,5542.718
278,0.4616,5542.718
279,0.463167,5238.63
280,0.464833,4926.369
281,0.4665,4926.369
282,0.468167,4610.985
283,0.469833,4296.951
284,0.4715,3988.638
285,0.473167,3988.638
286,0.474867,3689.14
287,0.4765,3400.303
288,0.4783,3124.841
289,0.479833,3124.841
290,0.4815,2863.884
291,0.483167,2618.663
292,0.484833,2390.288
293,0.4865,2390.288
294,0.488167,2178.147
295,0.489833,1982.436
296,0.4915,1802.772
297,0.493167,1802.772
298,0.494833,1638.323
299,0.4965,1489.028
300,0.49815,1489.028
301,0.499817,1353.599
302,0.501483,1231.35
303,0.50315,1121.633
304,0.504817,1121.633
305,0.506483,1022.562
306,0.50815,933.655
307,0.509817,853.9930000000001
308,0.511483,853.9930000000001
309,0.51315,782.669
310,0.514817,719.361
311,0.516483,663.3920000000001
312,0.51815,663.3920000000001
313,0.519817,613.526
314,0.521483,568.897
315,0.52315,568.897
316,0.524817,529.17
317,0.526483,493.214
318,0.52815,461.34
319,0.529817,461.34
320,0.531483,433.102
321,0.53315,407.83
322,0.534817,385.709
323,0.536483,385.709
324,0.538183,365.645
325,0.539817,347.942
326,0.541483,332.005
327,0.54315,332.005
328,0.544817,317.991
329,0.5464830000000001,305.437
330,0.54815,293.992
331,0.549817,293.992
332,0.5514829999999999,283.808
333,0.55315,274.383
334,0.554833,274.383
335,0.556467,266.157
336,0.558133,258.446
337,0.5598,251.591
338,0.561467,251.591
339,0.5632,245.072
340,0.5648,239.29
341,0.5664670000000001,233.859
342,0.568117,233.859
343,0.569783,228.889
344,0.57145,224.411
345,0.573117,220.276
346,0.574783,220.276
347,0.57645,216.983
348,0.578133,213.817
349,0.579867,210.866
350,0.58145,210.866
351,0.583117,207.879
352,0.5847830000000001,204.66
353,0.58645,204.66
354,0.588117,201.881
355,0.5897829999999999,199.765
356,0.59145,197.902
357,0.593117,197.902
358,0.594783,196.487
359,0.596567,194.713
360,0.598117,192.791
361,0.599783,192.791
362,0.60145,191.011
363,0.603117,189.416
364,0.604783,188.157
365,0.60645,188.157
366,0.608117,186.771
367,0.609783,185.356
368,0.61145,185.356
369,0.613117,183.865
370,0.614783,182.398
371,0.616467,181.288
372,0.6181,181.288
373,0.619767,180.319
374,0.621433,179.35
375,0.6231,178.471
376,0.624767,178.471
377,0.626433,177.667
378,0.6281,176.892
379,0.629767,176.243
380,0.631433,176.243
381,0.6331,175.372
382,0.634767,174.247
383,0.636433,174.247
384,0.6381,173.368
385,0.639767,172.66
386,0.64145,172.153
387,0.6431,172.153
388,0.644767,171.84
389,0.646433,171.43
390,0.6481,170.864
391,0.649767,170.864
392,0.651433,170.41
393,0.6531,169.799
394,0.654767,169.151
395,0.656433,169.151
396,0.6581,168.428
397,0.659767,167.914
398,0.661433,167.914
399,0.6631,167.511
400,0.664767,166.938
401,0.6664330000000001,166.55
402,0.6681,166.55
403,0.669767,165.865
404,0.6714329999999999,165.731
405,0.6731,165.462
406,0.674767,165.462
407,0.676433,165.038
408,0.678083,164.993
409,0.67975,164.337
410,0.681433,164.337
411,0.683083,164.077
412,0.68475,163.905
413,0.6864170000000001,163.25
414,0.688083,163.25
415,0.68975,162.967
416,0.6914169999999999,162.542
417,0.693083,162.542
418,0.69475,162.363
419,0.696417,162.333
420,0.6981000000000001,162.125
421,0.69975,162.125
422,0.701417,162.05
423,0.703083,161.633
424,0.70475,161.491
425,0.706417,161.491
426,0.708083,161.253
427,0.70975,161.216
428,0.711417,161.134
429,0.713083,161.134
430,0.71485,160.776
431,0.716417,160.195
432,0.718083,160.195
433,0.71975,159.547
434,0.721417,159.383
435,0.723083,159.323
436,0.72475,159.323
437,0.726417,159.279
438,0.728083,159.122
439,0.72975,158.615
440,0.731433,158.615
441,0.733083,158.243
442,0.73475,158.116
443,0.7364000000000001,157.773
444,0.738067,157.773
445,0.739733,157.692
446,0.7413999999999999,157.423
447,0.743067,157.289
448,0.744733,157.289
449,0.7464,156.999
450,0.748067,156.716
451,0.749733,156.716
452,0.7514,156.38
453,0.753067,156.209
454,0.754767,156.44
455,0.7564,156.44
456,0.758067,156.306
457,0.759733,156.321
458,0.7614,156.507
459,0.7630670000000001,156.507
460,0.764733,156.365
461,0.7664,156.38
462,0.7680670000000001,156.209
463,0.769733,156.209
464,0.7714,155.59
465,0.7730669999999999,155.367
466,0.774733,155.367
467,0.7764,154.898
468,0.778067,154.927
469,0.779733,154.831
470,0.7814,154.831
471,0.783067,154.696
472,0.784733,154.831
473,0.7864,154.555
474,0.788067,154.555
475,0.789733,154.51
476,0.7914,154.436
477,0.793067,154.413
478,0.794733,154.413
479,0.7964,154.465
480,0.79805,154.6
481,0.79975,154.354
482,0.801383,154.354
483,0.80305,153.854
484,0.804717,153.542
485,0.8064,153.542
486,0.80805,153.013
487,0.809717,152.774
488,0.811383,152.797
489,0.8130500000000001,152.797
490,0.814717,152.67
491,0.8164169999999999,152.543
492,0.8180500000000001,152.819
493,0.819717,152.819
494,0.821383,153.005
495,0.8230499999999999,153.318
496,0.824733,153.437
497,0.826383,153.437
498,0.82805,153.184
499,0.829717,153.05
500,0.831383,153.05
501,0.833167,152.506
502,0.834717,152.215
503,0.836383,152.044
504,0.83805,152.044
505,0.839717,151.634
506,0.841383,151.679
507,0.84305,151.396
508,0.8447170000000001,151.396
509,0.846383,151.306
510,0.84805,151.515
511,0.8497169999999999,151.701
512,0.851383,151.701
513,0.85305,151.902
514,0.8547169999999999,151.999
515,0.856367,151.999
516,0.858033,151.858
517,0.859683,151.396
518,0.8613499999999999,151.381
519,0.863017,151.381
520,0.864683,151.053
521,0.86635,150.777
522,0.868017,150.651
523,0.869683,150.651
524,0.87135,150.651
525,0.873017,150.882
526,0.874683,150.986
527,0.87635,150.986
528,0.878017,151.098
529,0.879683,150.904
530,0.88135,150.71
531,0.8830170000000001,150.71
532,0.884683,150.681
533,0.88635,150.45
534,0.888033,150.45
535,0.889683,150.509
536,0.89135,150.695
537,0.8930169999999999,150.666
538,0.894683,150.666
539,0.89635,150.636
540,0.898017,150.494
541,0.899683,150.003
542,0.90135,150.003
543,0.903017,149.839
544,0.904683,149.772
545,0.90635,149.421
546,0.908017,149.421
547,0.909683,149.593
548,0.91135,149.399
549,0.913017,149.399
550,0.914683,149.6
551,0.91635,149.809
552,0.918083,149.615
553,0.919667,149.615
554,0.921333,149.764
555,0.923,149.563
556,0.924667,149.727
557,0.926333,149.727
558,0.928,149.742
559,0.929667,149.474
560,0.931333,149.429
561,0.9330000000000001,149.429
562,0.934667,149.101
563,0.936333,148.982
564,0.9379999999999999,149.012
565,0.939667,149.012
566,0.941333,148.788
567,0.9429999999999999,148.751
568,0.944667,148.751
569,0.946333,148.714
570,0.948,148.647
571,0.949667,148.87
572,0.951467,148.87
573,0.953,148.878
574,0.954667,148.602
575,0.956333,148.535
576,0.958,148.535
577,0.959667,148.639
578,0.961333,148.52
579,0.963,148.632
580,0.9646670000000001,148.632
581,0.966367,148.878
582,0.968,148.84
583,0.9696669999999999,148.84
584,0.971333,149.012
585,0.973,149.406
586,0.974667,149.302
587,0.976317,149.302
588,0.977983,149.176
589,0.97965,148.967
590,0.981333,148.728
591,0.9829830000000001,148.728
592,0.98465,148.632
593,0.986317,148.512
594,0.9879829999999999,148.676
595,0.98965,148.676
596,0.991317,148.498
597,0.9929829999999999,148.274
598,0.99465,148.214
599,0.996317,148.214
600,0.997983,147.857
601,0.99965,147.857
602,1.001317,147.857
603,1.002983,147.842
604,1.00465,147.656
605,1.006317,147.782
606,1.007983,147.782
607,1.00965,147.857
608,1.011317,148.17
609,1.012983,148.021
610,1.01465,148.021
611,1.016317,148.125
612,1.017983,147.782
613,1.01965,147.454
614,1.021317,147.454
615,1.022983,147.76
616,1.02465,147.775
617,1.026317,147.775
618,1.027983,147.931
619,1.02965,148.043
620,1.031317,147.872
621,1.033,147.872
622,1.034667,147.849
623,1.036383,147.946
624,1.037967,147.641
625,1.039633,147.641
626,1.0413,147.559
627,1.042967,147.194
628,1.044633,147
629,1.0463,147
630,1.047967,147.03
631,1.049633,146.978
632,1.0513,146.978
633,1.052967,146.985
634,1.054633,147.097
635,1.0563,147.089
636,1.057967,147.089
637,1.059633,147.238
638,1.0613,147.283
639,1.062967,146.94
640,1.064633,146.94
641,1.0663,147.015
642,1.067967,147.022
643,1.06975,146.903
644,1.0713,146.903
645,1.072967,147.186
646,1.074633,147.142
647,1.0763,146.791
648,1.077967,146.791
649,1.079633,147.03
650,1.0813,147.007
651,1.082967,147.007
652,1.084633,147.186
653,1.0863,147.335
654,1.087967,147.186
655,1.089633,147.186
656,1.0913,146.97
657,1.092967,146.732
658,1.094633,146.784
659,1.096283,146.784
660,1.09795,146.769
661,1.099617,146.739
662,1.101283,146.747
663,1.10295,146.747
664,1.104617,146.605
665,1.1063,146.814
666,1.108,147.112
667,1.109617,147.112
668,1.111283,147.142
669,1.11295,147.253
670,1.114617,147.253
671,1.116283,147
672,1.11795,146.955
673,1.119617,147.007
674,1.121283,147.007
675,1.12295,146.963
676,1.124617,147.045
677,1.126283,146.694
678,1.12795,146.694
679,1.129617,146.545
680,1.131283,146.493
681,1.13295,146.113
682,1.134617,146.113
683,1.136283,146.098
684,1.13795,145.771
685,1.139617,145.771
686,1.141283,145.867
687,1.14295,146.136
688,1.144617,146.128
689,1.146283,146.128
690,1.14795,146.27
691,1.149617,145.8
692,1.151267,145.592
693,1.152933,145.592
694,1.154667,145.383
695,1.156267,145.271
696,1.157917,145.577
697,1.159583,145.577
698,1.16125,145.89
699,1.162917,146.031
700,1.164583,146.031
701,1.16625,146.285
702,1.167917,146.382
703,1.169583,146.203
704,1.17125,146.203
705,1.172917,146.374
706,1.1746,146.121
707,1.17625,146.002
708,1.177917,146.002
709,1.179583,146.002
710,1.18125,145.935
711,1.182917,145.949
712,1.184583,145.949
713,1.18625,146.054
714,1.188033,146.21
715,1.189583,146.024
716,1.19125,146.024
717,1.192917,145.912
718,1.194583,145.666
719,1.19625,145.666
720,1.197917,145.622
721,1.199583,145.823
722,1.20125,146.091
723,1.202917,146.091
724,1.204583,145.979
725,1.20625,145.555
726,1.207917,145.301
727,1.209583,145.301
728,1.21125,145.338
729,1.212917,145.651
730,1.214583,146.091
731,1.216233,146.091
732,1.2179,146.352
733,1.219567,146.195
734,1.221233,146.195
735,1.2229,145.897
736,1.224567,145.45
737,1.226233,145.145
738,1.2279,145.145
739,1.229567,145.078
740,1.231233,145.413
741,1.2329,145.555
742,1.234567,145.555
743,1.236233,145.949
744,1.2379,146.024
745,1.239567,145.756
746,1.24125,145.756
747,1.2429,145.718
748,1.244567,145.257
749,1.246233,145.257
750,1.2479,145.175
751,1.249567,145.16
752,1.251233,145.309
753,1.2529,145.309
754,1.254567,145.651
755,1.256233,145.845
756,1.2579,145.741
757,1.259567,145.741
758,1.261233,145.51
759,1.2629,145.197
760,1.264567,144.929
761,1.266233,144.929
762,1.2679,145.122
763,1.269567,145.234
764,1.271233,145.264
765,1.2729,145.264
766,1.274567,145.592
767,1.276233,145.681
768,1.277883,145.681
769,1.27955,145.584
770,1.281217,145.569
771,1.282883,145.42
772,1.28455,145.42
773,1.286217,145.324
774,1.287883,145.353
775,1.289617,145.346
776,1.291217,145.346
777,1.292883,145.033
778,1.29455,144.668
779,1.296217,144.534
780,1.297883,144.534
781,1.29955,144.668
782,1.301217,144.735
783,1.302883,144.735
784,1.30455,144.869
785,1.306333,144.951
786,1.307883,144.497
787,1.30955,144.497
788,1.311217,144.646
789,1.312883,144.795
790,1.31455,144.988
791,1.316217,144.988
792,1.317883,145.286
793,1.31955,145.495
794,1.321217,145.383
795,1.323,145.383
796,1.32455,145.234
797,1.326217,145.137
798,1.327883,144.936
799,1.32955,144.936
800,1.331217,144.817
801,1.332883,144.631
802,1.33455,144.631
803,1.3362,144.891
804,1.337867,144.571
805,1.339533,144.564
806,1.3412,144.564
807,1.342867,144.966
808,1.344533,144.929
809,1.3462,144.936
810,1.347867,144.936
811,1.349533,145.175
812,1.3512,144.817
813,1.352867,144.467
814,1.354533,144.467
815,1.3562,144.422
816,1.357867,144.184
817,1.359533,144.184
818,1.3612,144.109
819,1.362867,144.266
820,1.364533,144.787
821,1.3662,144.787
822,1.367867,144.936
823,1.369533,145.07
824,1.3712,145.078
825,1.372867,145.078
826,1.374533,144.571
827,1.3762,144.348
828,1.377867,144.646
829,1.379533,144.646
830,1.3812,144.966
831,1.382867,145.391
832,1.384533,145.51
833,1.3862,145.51
834,1.387867,144.877
835,1.389533,144.579
836,1.3912,144.579
837,1.392867,144.079
838,1.394533,144.109
839,1.3962,144.474
840,1.39785,144.474
841,1.399517,144.564
842,1.401183,144.772
843,1.40285,144.772
844,1.404517,144.772
845,1.406183,144.683
846,1.4079,144.43
847,1.409517,144.511
848,1.411183,144.511
849,1.41285,144.511
850,1.414517,144.541
851,1.416183,144.541
852,1.41785,144.571
853,1.419517,144.459
854,1.421183,144.459
855,1.42285,144.459
856,1.424567,144.444
857,1.426183,144.452
858,1.42785,144.407
859,1.429517,144.407
860,1.431183,144.318
861,1.432867,144.258
862,1.434517,144.109
863,1.436183,144.109
864,1.437867,144.467
865,1.439517,144.593
866,1.441283,144.646
867,1.442833,144.646
868,1.4445,144.802
869,1.446167,144.34
870,1.447833,144.34
871,1.4495,143.901
872,1.451167,143.819
873,1.452833,144.05
874,1.4545,144.05
875,1.45615,144.288
876,1.45785,144.705
877,1.459483,144.951
878,1.46115,144.951
879,1.462817,144.638
880,1.464483,144.735
881,1.46615,144.638
882,1.467817,144.638
883,1.469483,144.616
884,1.47115,144.72
885,1.472817,144.72
886,1.474483,144.623
887,1.47615,144.541
888,1.477817,144.385
889,1.479483,144.385
890,1.48115,144.146
891,1.482817,143.781
892,1.484483,143.804
893,1.48615,143.804
894,1.487817,143.915
895,1.489483,144.28
896,1.49115,144.66
897,1.492817,144.66
898,1.494483,144.817
899,1.49615,144.757
900,1.497817,144.757
901,1.499483,144.787
902,1.50115,144.772
903,1.502817,144.474
904,1.504483,144.474
905,1.50615,144.169
906,1.507817,143.893
907,1.5095,143.655
908,1.51115,143.655
909,1.512817,143.699
910,1.514483,144.087
911,1.516133,144.176
912,1.5178,144.176
913,1.519467,144.102
914,1.521133,144.117
915,1.5228,143.588
916,1.524467,143.588
917,1.526217,143.401
918,1.5278,143.573
919,1.529467,143.573
920,1.531133,143.588
921,1.5328,144.057
922,1.534467,144.325
923,1.536133,144.325
924,1.5378,144.437
925,1.539467,144.511
926,1.541133,144.228
927,1.54285,144.228
928,1.544467,144.139
929,1.546133,143.781
930,1.5478,144.027
931,1.549467,144.027
932,1.551133,144.295
933,1.5528,144.519
934,1.554467,144.519
935,1.556133,144.75
936,1.5578,144.534
937,1.559567,144.228
938,1.561133,144.228
939,1.5628,143.781
940,1.564467,143.863
941,1.566133,143.819
942,1.5678,143.819
943,1.569467,144.02
944,1.571133,144.131
945,1.5728,143.662
946,1.574467,143.662
947,1.576117,143.64
948,1.577783,143.424
949,1.57945,143.439
950,1.581117,143.439
951,1.582783,143.766
952,1.58445,143.67
953,1.586117,143.67
954,1.587783,143.684
955,1.58945,143.848
956,1.591117,143.833
957,1.592783,143.833
