"ID","sea_time","fid_signal"
1,0,1173.466
2,0.001667,1173.541
3,0.003333,1171.976
4,0.005,1171.976
5,0.006667,1168.996
6,0.008333,1171.082
7,0.01,1168.251
8,0.011767,1168.251
9,0.013333,1166.984
10,0.015,1167.357
11,0.016667,1167.357
12,0.01835,1165.569
13,0.02,1163.408
14,0.021667,1161.695
15,0.023333,1161.695
16,0.025,1164.451
17,0.026667,1163.93
18,0.028333,1166.016
19,0.03,1166.016
20,0.031683,1167.953
21,0.033333,1167.58
22,0.035,1166.761
23,0.036667,1166.761
24,0.038317,1167.357
25,0.039983,1167.506
26,0.04165,1167.506
27,0.043317,1167.133
28,0.044983,1169.965
29,0.04665,1169.294
30,0.048317,1169.294
31,0.049983,1168.624
32,0.05165,1167.729
33,0.053317,1166.686
34,0.054983,1166.686
35,0.05665,1166.09
36,0.058317,1164.675
37,0.059983,1166.314
38,0.06165,1166.314
39,0.063317,1168.251
40,0.064983,1168.475
41,0.06665,1169.443
42,0.068317,1169.443
43,0.069983,1169.741
44,0.071633,1168.996
45,0.0733,1168.996
46,0.07496700000000001,1169.443
47,0.07663300000000001,1170.337
48,0.07829999999999999,1168.251
49,0.079967,1168.251
50,0.081633,1166.761
51,0.0833,1167.357
52,0.084967,1167.357
53,0.086633,1167.357
54,0.0883,1167.655
55,0.08996700000000001,1167.804
56,0.09163300000000001,1165.941
57,0.09329999999999999,1165.941
58,0.094967,1166.239
59,0.09665,1164.451
60,0.098283,1164.451
61,0.09995,1164.302
62,0.101617,1167.059
63,0.103317,1170.71
64,0.10495,1170.71
65,0.106617,1171.38
66,0.108283,1171.753
67,0.10995,1170.114
68,0.111617,1170.114
69,0.113283,1166.388
70,0.114967,1167.133
71,0.116617,1166.165
72,0.118283,1166.165
73,0.11995,1165.941
74,0.121617,1167.208
75,0.123283,1167.879
76,0.12495,1167.879
77,0.126617,1168.4
78,0.128283,1167.953
79,0.13005,1167.953
80,0.131617,1166.835
81,0.133283,1166.463
82,0.13495,1166.537
83,0.136617,1166.537
84,0.138283,1169.741
85,0.13995,1167.953
86,0.141617,1165.42
87,0.143283,1165.42
88,0.14495,1164.302
89,0.146617,1161.322
90,0.148283,1164.973
91,0.14995,1164.973
92,0.151617,1166.463
93,0.153283,1167.729
94,0.15495,1167.729
95,0.156617,1167.953
96,0.158267,1166.388
97,0.159933,1167.357
98,0.1616,1167.357
99,0.163267,1165.718
100,0.164933,1164.526
101,0.1666,1164.526
102,0.168267,1164.526
103,0.169933,1165.122
104,0.1716,1165.345
105,0.173267,1168.624
106,0.174933,1168.624
107,0.1766,1167.282
108,0.178317,1162.291
109,0.179933,1162.961
110,0.1816,1162.961
111,0.183267,1161.024
112,0.184933,1159.981
113,0.1866,1159.981
114,0.188267,1165.643
115,0.189933,1165.196
116,0.1916,1166.91
117,0.193283,1166.91
118,0.194933,1167.879
119,0.1966,1165.122
120,0.198267,1167.58
121,0.199933,1167.58
122,0.2016,1164.6
123,0.203267,1165.196
124,0.204933,1165.122
125,0.2066,1165.122
126,0.208267,1166.09
127,0.209933,1168.996
128,0.2116,1168.996
129,0.213267,1168.326
130,0.215,1167.729
131,0.2166,1164.675
132,0.21825,1164.675
133,0.219917,1161.918
134,0.221583,1163.185
135,0.22325,1164.153
136,0.224917,1164.153
137,0.226583,1164.004
138,0.22825,1164.079
139,0.229917,1164.973
140,0.231583,1164.973
141,0.23325,1167.133
142,0.234917,1171.082
143,0.236583,1171.082
144,0.23825,1172.274
145,0.239917,1170.263
146,0.241583,1168.177
147,0.24325,1168.177
148,0.244917,1167.357
149,0.246583,1167.506
150,0.2483,1168.847
151,0.249917,1168.847
152,0.251583,1170.412
153,0.25325,1166.537
154,0.254917,1166.016
155,0.256583,1166.016
156,0.25825,1164.675
157,0.259917,1160.577
158,0.261583,1160.428
159,0.26325,1160.428
160,0.264917,1160.204
161,0.266583,1161.695
162,0.26825,1161.695
163,0.269917,1165.643
164,0.271583,1167.357
165,0.27325,1167.879
166,0.274917,1167.879
167,0.276583,1167.133
168,0.278233,1167.953
169,0.2799,1170.412
170,0.281567,1170.412
171,0.283233,1173.392
172,0.2849,1176
173,0.286567,1178.235
174,0.288233,1178.235
175,0.2899,1179.799
176,0.291567,1183.227
177,0.293233,1183.227
178,0.2949,1189.56
179,0.296567,1199.767
180,0.298233,1213.625
181,0.2999,1213.625
182,0.301567,1229.271
183,0.303233,1248.494
184,0.3049,1270.473
185,0.306567,1270.473
186,0.308233,1301.095
187,0.3099,1335.889
188,0.311567,1382.679
189,0.313233,1382.679
190,0.314917,1436.77
191,0.316567,1495.033
192,0.318233,1567.826
193,0.3199,1567.826
194,0.321567,1645.461
195,0.323233,1734.719
196,0.3249,1734.719
197,0.326567,1834.184
198,0.32825,1942.068
199,0.3299,2056.658
200,0.331567,2056.658
201,0.333283,2177.73
202,0.3349,2308.041
203,0.336567,2443.418
204,0.338217,2443.418
205,0.339883,2590.269
206,0.34155,2744.645
207,0.343217,2903.342
208,0.344883,2903.342
209,0.34655,3071.278
210,0.348217,3240.928
211,0.350017,3419.891
212,0.35155,3419.891
213,0.353217,3604.889
214,0.354883,3795.624
215,0.35655,3795.624
216,0.358217,3992.617
217,0.359883,4193.485
218,0.36155,4403.293
219,0.3632,4403.293
220,0.364867,4617.646
221,0.36665,4844.144
222,0.368217,5078.241
223,0.369867,5078.241
224,0.371533,5317.628
225,0.3732,5569.979
226,0.374867,5832.463
227,0.376533,5832.463
228,0.3782,6108.806
229,0.379867,6406.829
230,0.381533,6406.829
231,0.3832,6723.255
232,0.384867,7058.159
233,0.386533,7416.01
234,0.3882,7416.01
235,0.389867,7805.75
236,0.39155,8232.296
237,0.3932,8709.654
238,0.394867,8709.654
239,0.396517,9244.159
240,0.398183,9840.353999999999
241,0.39985,10511.428
242,0.401517,10511.428
243,0.403183,11265.203
244,0.40485,12115.985
245,0.406517,12115.985
246,0.408183,13065.785
247,0.40985,14121.682
248,0.411517,15283.748
249,0.413183,15283.748
250,0.41485,16543.791
251,0.416517,17897.264
252,0.418183,19326.434
253,0.41985,19326.434
254,0.421517,20809.547
255,0.423183,22320.076
256,0.42485,23824.797
257,0.426517,23824.797
258,0.428183,25279.373
259,0.42985,26644.691
260,0.431517,26644.691
261,0.433183,27879.178
262,0.43485,28940.066
263,0.436517,29794.424
264,0.438183,29794.424
265,0.43985,30413.643
266,0.441517,30778.273
267,0.443183,30872.227
268,0.44485,30872.227
269,0.446517,30696.02
270,0.448183,30258.223
271,0.44985,29568.15
272,0.451567,29568.15
273,0.453183,28655.008
274,0.45485,27553.588
275,0.4565,26290.863
276,0.4582,26290.863
277,0.459833,24909.229
278,0.4615,23445.039
279,0.463167,23445.039
280,0.464833,21931.752
281,0.4665,20406.545
282,0.468167,18892.734
283,0.469833,18892.734
284,0.4715,17413.943
285,0.473167,15985.444
286,0.474833,14619.604
287,0.4765,14619.604
288,0.478167,13331.473
289,0.479833,12126.192
290,0.4815,11007.711
291,0.483167,11007.711
292,0.484867,9974.166999999999
293,0.4865,9023.397999999999
294,0.488167,9023.397999999999
295,0.489833,8154.288
296,0.4915,7366.762
297,0.493167,6655.976
298,0.494833,6655.976
299,0.4965,6016.567
300,0.498167,5444.884
301,0.499833,4930.72
302,0.5016,4930.72
303,0.503167,4474.744
304,0.504833,4071.221
305,0.5065,3717.095
306,0.5081830000000001,3717.095
307,0.509833,3405.884
308,0.5115,3132.522
309,0.513167,2891.868
310,0.514833,2891.868
311,0.5165,2679.601
312,0.51815,2492.741
313,0.519817,2492.741
314,0.521483,2330.169
315,0.52315,2187.565
316,0.524817,2062.544
317,0.526483,2062.544
318,0.52815,1958.236
319,0.529817,1863.539
320,0.531517,1783.297
321,0.53315,1783.297
322,0.534817,1713.857
323,0.536483,1650.602
324,0.53815,1598.299
325,0.539817,1598.299
326,0.541483,1552.03
327,0.54315,1511.648
328,0.544817,1511.648
329,0.5464830000000001,1476.854
330,0.54815,1445.785
331,0.549817,1419.112
332,0.5514829999999999,1419.112
333,0.55315,1391.47
334,0.554817,1366.884
335,0.5564829999999999,1344.383
336,0.55815,1344.383
337,0.559817,1323.819
338,0.561483,1313.463
339,0.56315,1304.001
340,0.564817,1304.001
341,0.566483,1294.985
342,0.56815,1284.778
343,0.569817,1274.124
344,0.571483,1274.124
345,0.57315,1263.917
346,0.574817,1260.936
347,0.576483,1260.936
348,0.578133,1258.999
349,0.5798,1256.764
350,0.581467,1252.741
351,0.583133,1252.741
352,0.5848,1245.141
353,0.58655,1237.989
354,0.588133,1229.197
355,0.5898,1229.197
356,0.591467,1225.695
357,0.593133,1220.927
358,0.5948,1219.287
359,0.596483,1219.287
360,0.598133,1218.692
361,0.5998,1218.021
362,0.601467,1218.021
363,0.6032,1214.221
364,0.6048,1213.327
365,0.606467,1213.327
366,0.608133,1213.327
367,0.6098,1209.825
368,0.611467,1212.806
369,0.613133,1211.39
370,0.6148,1211.39
371,0.616467,1207.441
372,0.618133,1205.355
373,0.6199,1199.916
374,0.621467,1199.916
375,0.623133,1199.842
376,0.6248,1198.873
377,0.626467,1198.351
378,0.6281330000000001,1198.351
379,0.6298,1200.289
380,0.631467,1198.873
381,0.6331329999999999,1198.873
382,0.6348,1200.885
383,0.636467,1203.194
384,0.638117,1203.418
385,0.639783,1203.418
386,0.64145,1200.885
387,0.643117,1199.916
388,0.644783,1196.563
389,0.64645,1196.563
390,0.6481170000000001,1197.308
391,0.649783,1197.755
392,0.65145,1196.265
393,0.6531169999999999,1196.265
394,0.654767,1196.489
395,0.656433,1195.446
396,0.6581,1195.446
397,0.659767,1195.595
398,0.661433,1195.297
399,0.6631,1195.893
400,0.664767,1195.893
401,0.6664330000000001,1190.379
402,0.6681,1187.995
403,0.669767,1185.238
404,0.6714329999999999,1185.238
405,0.6731,1185.238
406,0.674833,1185.015
407,0.676433,1184.344
408,0.6781,1184.344
409,0.679767,1185.238
410,0.681433,1182.407
411,0.6831,1182.407
412,0.684767,1185.611
413,0.686433,1188.368
414,0.6881,1187.399
415,0.689767,1187.399
416,0.691433,1188.07
417,0.6931,1188.889
418,0.694767,1185.164
419,0.696433,1185.164
420,0.698083,1183.823
421,0.69975,1182.556
422,0.701417,1178.905
423,0.703083,1178.905
424,0.7048,1181.364
425,0.706417,1186.207
426,0.708083,1190.007
427,0.70975,1190.007
428,0.711417,1192.614
429,0.713083,1189.932
430,0.71475,1189.932
431,0.716417,1188.219
432,0.718083,1183.376
433,0.71975,1180.172
434,0.72145,1180.172
435,0.723083,1181.215
436,0.72475,1180.321
437,0.726417,1180.917
438,0.728083,1180.917
439,0.72975,1181.588
440,0.731417,1179.799
441,0.733083,1177.117
442,0.73475,1177.117
443,0.736417,1176.372
444,0.738183,1177.639
445,0.73975,1177.639
446,0.741417,1178.831
447,0.743083,1179.874
448,0.74475,1181.29
449,0.746417,1181.29
450,0.7480830000000001,1180.545
451,0.749767,1179.352
452,0.751417,1181.066
453,0.7530829999999999,1181.066
454,0.75475,1181.662
455,0.7564,1180.917
456,0.758067,1184.046
457,0.759733,1184.046
458,0.7614,1183.301
459,0.7630670000000001,1181.513
460,0.764733,1178.309
461,0.7664,1178.309
462,0.7680670000000001,1173.392
463,0.769733,1169.369
464,0.771417,1169.369
465,0.7730669999999999,1167.879
466,0.774733,1169.443
467,0.7764,1169.741
468,0.778067,1169.741
469,0.779733,1173.019
470,0.7814,1175.404
471,0.783067,1178.458
472,0.784733,1178.458
473,0.7864,1182.407
474,0.788067,1181.513
475,0.789733,1181.141
476,0.7914,1181.141
477,0.793067,1178.235
478,0.794733,1177.117
479,0.7964,1177.117
480,0.798067,1176.745
481,0.799733,1172.647
482,0.8014,1171.529
483,0.803067,1171.529
484,0.804733,1167.58
485,0.8064,1168.4
486,0.808067,1171.902
487,0.809733,1171.902
488,0.8114,1175.329
489,0.813067,1178.384
490,0.814733,1175.925
491,0.816383,1175.925
492,0.818083,1176.968
493,0.819717,1176.447
494,0.821383,1176.447
495,0.823133,1174.212
496,0.824717,1175.404
497,0.826383,1173.765
498,0.82805,1173.765
499,0.829717,1173.168
500,0.831383,1175.329
501,0.83305,1175.851
502,0.834717,1175.851
503,0.836383,1177.564
504,0.83805,1175.106
505,0.83975,1171.604
506,0.841383,1171.604
507,0.84305,1170.263
508,0.8447170000000001,1166.984
509,0.846383,1169.89
510,0.84805,1169.89
511,0.8497169999999999,1171.976
512,0.851383,1173.317
513,0.85305,1173.317
514,0.8547169999999999,1174.212
515,0.856483,1175.329
516,0.85805,1176.223
517,0.859717,1176.223
518,0.861383,1176.149
519,0.86305,1174.584
520,0.864717,1173.094
521,0.866383,1173.094
522,0.86805,1171.678
523,0.869717,1172.721
524,0.871383,1174.212
525,0.87305,1174.212
526,0.874717,1172.796
527,0.876383,1175.702
528,0.878033,1175.702
529,0.8797,1174.51
530,0.881367,1176.149
531,0.883033,1175.851
532,0.8847,1175.851
533,0.886367,1174.435
534,0.888033,1176
535,0.889717,1174.286
536,0.8914,1174.286
537,0.893033,1175.255
538,0.8947000000000001,1176
539,0.896367,1172.647
540,0.898033,1172.647
541,0.8997000000000001,1170.039
542,0.901367,1170.114
543,0.903033,1166.761
544,0.9046999999999999,1166.761
545,0.906367,1167.059
546,0.908033,1168.922
547,0.9097,1168.922
548,0.911367,1167.208
549,0.913033,1167.879
550,0.9147,1169.89
551,0.916367,1169.89
552,0.918033,1171.902
553,0.9197,1174.435
554,0.921367,1175.851
555,0.923033,1175.851
556,0.9247,1175.627
557,0.9263670000000001,1176.819
558,0.928033,1174.137
559,0.9297,1174.137
560,0.9313669999999999,1176.447
561,0.933033,1176.596
562,0.9347,1176.596
563,0.93635,1176.596
564,0.938017,1179.427
565,0.939683,1175.925
566,0.9414,1175.925
567,0.943017,1173.913
568,0.944667,1175.627
569,0.94635,1173.317
570,0.948,1173.317
571,0.949667,1172.87
572,0.951333,1174.286
573,0.953,1170.71
574,0.954667,1170.71
575,0.956333,1172.349
576,0.958083,1174.212
577,0.959667,1173.317
578,0.961333,1173.317
579,0.963,1175.553
580,0.9646670000000001,1173.541
581,0.966333,1173.541
582,0.968,1174.435
583,0.9696669999999999,1172.498
584,0.971333,1168.177
585,0.973,1168.177
586,0.974783,1167.804
587,0.976333,1167.059
588,0.978,1171.082
589,0.979667,1171.082
590,0.981333,1170.412
591,0.983,1169.145
592,0.984667,1166.388
593,0.986333,1166.388
594,0.988,1164.526
595,0.989667,1164.824
596,0.991333,1164.824
597,0.993,1167.879
598,0.994667,1169.741
599,0.996317,1169.071
600,0.997983,1169.071
601,0.99965,1169.816
602,1.001317,1170.71
603,1.002983,1171.38
604,1.00465,1171.38
605,1.006317,1174.51
606,1.007983,1178.384
607,1.00965,1176.596
608,1.011317,1176.596
609,1.012983,1174.063
610,1.01465,1168.698
611,1.016317,1168.698
612,1.017983,1166.835
613,1.01965,1166.835
614,1.021317,1170.114
615,1.022983,1170.114
616,1.02465,1173.765
617,1.026317,1171.529
618,1.027983,1170.039
619,1.029667,1170.039
620,1.031367,1168.326
621,1.032983,1165.569
622,1.03465,1167.059
623,1.036317,1167.059
624,1.037983,1167.729
625,1.03965,1167.58
626,1.041317,1167.282
627,1.042983,1167.282
628,1.04465,1166.09
629,1.046317,1166.984
630,1.047983,1166.984
631,1.04965,1165.196
632,1.051317,1167.208
633,1.052983,1168.922
634,1.05465,1168.922
635,1.0563,1170.263
636,1.057967,1173.541
637,1.059717,1174.063
638,1.0613,1174.063
639,1.062967,1174.286
640,1.064633,1177.639
641,1.0663,1177.117
642,1.067967,1177.117
643,1.069633,1177.862
644,1.0713,1177.862
645,1.072967,1177.862
646,1.074633,1173.988
647,1.0763,1172.274
648,1.077967,1168.922
649,1.079633,1168.922
650,1.0813,1168.549
651,1.082967,1166.388
652,1.084633,1166.239
653,1.0863,1166.239
654,1.087967,1166.686
655,1.089633,1167.804
656,1.0913,1168.4
657,1.093083,1168.4
658,1.094633,1167.729
659,1.0963,1169.145
660,1.097967,1169.518
661,1.099633,1169.518
662,1.1013,1171.902
663,1.102967,1172.572
664,1.10465,1172.572
665,1.1063,1170.71
666,1.107983,1169.145
667,1.109633,1166.239
668,1.1113,1166.239
669,1.112967,1166.09
670,1.114633,1165.494
671,1.1163,1166.686
672,1.11795,1166.686
673,1.119617,1168.326
674,1.121283,1171.231
675,1.12295,1173.988
676,1.124617,1173.988
677,1.126283,1171.455
678,1.12795,1173.019
679,1.129617,1173.019
680,1.131283,1170.337
681,1.13295,1169.816
682,1.134617,1173.243
683,1.136283,1173.243
684,1.13795,1170.859
685,1.139617,1171.231
686,1.141283,1170.561
687,1.14295,1170.561
688,1.144617,1169.667
689,1.146283,1169.369
690,1.14795,1169.443
691,1.149617,1169.443
692,1.151283,1169.518
693,1.15295,1168.922
694,1.154617,1172.051
695,1.156283,1172.051
696,1.15795,1175.106
697,1.159617,1175.925
698,1.161283,1175.925
699,1.16295,1173.988
700,1.164617,1172.125
701,1.166283,1167.804
702,1.16795,1167.804
703,1.169617,1167.58
704,1.171283,1169.443
705,1.17295,1168.027
706,1.17465,1168.027
707,1.176267,1169.294
708,1.178,1168.102
709,1.1796,1165.718
710,1.181267,1165.718
711,1.182933,1167.282
712,1.1846,1167.729
713,1.186267,1167.729
714,1.187933,1171.38
715,1.1896,1172.498
716,1.191267,1173.168
717,1.192933,1173.168
718,1.1946,1173.168
719,1.196267,1172.051
720,1.197933,1172.721
721,1.1996,1172.721
722,1.201267,1169.667
723,1.202933,1168.624
724,1.2046,1169.145
725,1.206267,1169.145
726,1.207933,1170.635
727,1.2096,1172.349
728,1.211367,1172.498
729,1.212933,1172.498
730,1.2146,1172.349
731,1.216267,1170.784
732,1.217933,1170.784
733,1.2196,1171.157
734,1.221267,1171.827
735,1.222933,1169.816
736,1.2246,1169.816
737,1.226267,1171.306
738,1.227933,1170.188
739,1.2296,1169.369
740,1.231267,1169.369
741,1.232933,1168.326
742,1.2346,1164.302
743,1.236233,1163.93
744,1.2379,1163.93
745,1.239567,1165.718
746,1.241233,1166.91
747,1.2429,1166.91
748,1.244567,1169.592
749,1.246233,1170.114
750,1.247917,1167.506
751,1.249583,1167.506
752,1.251233,1168.996
753,1.2529,1169.145
754,1.254567,1168.102
755,1.256233,1168.102
756,1.2579,1168.475
757,1.259567,1165.345
758,1.261233,1165.494
759,1.2629,1165.494
760,1.264567,1168.996
761,1.266233,1171.455
762,1.2679,1171.455
763,1.269567,1173.988
764,1.271233,1171.008
765,1.2729,1169.443
766,1.274567,1169.443
767,1.276233,1166.239
768,1.2779,1163.11
769,1.279567,1166.388
770,1.281233,1166.388
771,1.2829,1164.898
772,1.284567,1167.655
773,1.286233,1169.518
774,1.2879,1169.518
775,1.289567,1167.729
776,1.291233,1168.549
777,1.2929,1166.984
778,1.294567,1166.984
779,1.296283,1169.741
780,1.297883,1170.114
781,1.29955,1170.114
782,1.301217,1169.294
783,1.302883,1169.294
784,1.30455,1165.42
785,1.306217,1165.42
786,1.307883,1162.961
787,1.30955,1162.738
788,1.311217,1162.067
789,1.312983,1162.067
790,1.31455,1163.11
791,1.316233,1166.761
792,1.317883,1168.922
793,1.31955,1168.922
794,1.321217,1171.976
795,1.322883,1169.89
796,1.32455,1169.89
797,1.326217,1163.781
798,1.327883,1162.067
799,1.329667,1159.534
800,1.331217,1159.534
801,1.332883,1162.812
802,1.33455,1166.016
803,1.336217,1168.251
804,1.337883,1168.251
805,1.33955,1167.804
806,1.341217,1166.835
807,1.342883,1167.282
808,1.34455,1167.282
809,1.346217,1167.58
810,1.347883,1169.294
811,1.34955,1168.773
812,1.351217,1168.773
813,1.352883,1171.827
814,1.35455,1169.741
815,1.3562,1169.741
816,1.357867,1170.561
817,1.359533,1172.572
818,1.3612,1169.965
819,1.362867,1169.965
820,1.364533,1168.251
821,1.3662,1169.145
822,1.367867,1169.518
823,1.369533,1169.518
824,1.3712,1171.529
825,1.372867,1174.36
826,1.374533,1173.839
827,1.3762,1173.839
828,1.377867,1172.2
829,1.379533,1168.922
830,1.3812,1168.922
831,1.382867,1169.89
832,1.384533,1167.506
833,1.386233,1167.879
834,1.387883,1167.879
835,1.389533,1171.753
836,1.3912,1168.996
837,1.392867,1169.965
838,1.394533,1169.965
839,1.3962,1168.475
840,1.397867,1165.867
841,1.399533,1165.047
842,1.4012,1165.047
843,1.402883,1164.153
844,1.404533,1162.961
845,1.4062,1165.345
846,1.407867,1165.345
847,1.409533,1165.122
848,1.4112,1164.973
849,1.412867,1164.973
850,1.414517,1166.09
851,1.416183,1161.62
852,1.41785,1162.589
853,1.419517,1162.589
854,1.421183,1163.11
855,1.42285,1162.291
856,1.424517,1163.334
857,1.426183,1163.334
858,1.42785,1165.941
859,1.429517,1166.165
860,1.43125,1166.761
861,1.43285,1166.761
862,1.434517,1167.804
863,1.436183,1166.537
864,1.43785,1166.537
865,1.439517,1166.612
866,1.441183,1164.302
867,1.44285,1163.632
868,1.444517,1163.632
869,1.446183,1165.345
870,1.447917,1166.537
871,1.449517,1171.231
872,1.451183,1171.231
873,1.45285,1171.753
874,1.454517,1171.604
875,1.456183,1171.753
876,1.45785,1171.753
877,1.459517,1170.263
878,1.461183,1174.286
879,1.46285,1174.286
880,1.464633,1173.988
881,1.466183,1174.36
882,1.46785,1173.019
883,1.469517,1173.019
884,1.471183,1168.549
885,1.47285,1168.847
886,1.474517,1168.4
887,1.476167,1168.4
888,1.477833,1169.667
889,1.4795,1172.349
890,1.481167,1168.996
891,1.482833,1168.996
892,1.4845,1167.655
893,1.486167,1168.251
894,1.487833,1167.58
895,1.4895,1167.58
896,1.491167,1167.804
897,1.492833,1167.357
898,1.4945,1167.357
899,1.496167,1169.741
900,1.497833,1169.741
901,1.4995,1171.008
902,1.501167,1171.008
903,1.502833,1171.157
904,1.5045,1168.624
905,1.506167,1165.941
906,1.507833,1165.941
907,1.5095,1165.569
908,1.511167,1164.377
909,1.512833,1163.334
910,1.5145,1163.334
911,1.516167,1164.451
912,1.517833,1164.302
913,1.5195,1164.302
914,1.521167,1164.973
915,1.522833,1165.792
916,1.5245,1166.686
917,1.526167,1166.686
918,1.527817,1168.177
919,1.529483,1167.208
920,1.53115,1165.941
921,1.532867,1165.941
