"ID","sea_time","fid_signal"
1,0,1167.953
2,0.001667,1163.408
3,0.003333,1163.408
4,0.005033,1163.632
5,0.006667,1166.612
6,0.008333,1166.761
7,0.01,1166.761
8,0.011667,1167.729
9,0.013333,1167.729
10,0.015,1166.016
11,0.016667,1166.016
12,0.018333,1165.643
13,0.02,1163.11
14,0.021667,1161.918
15,0.023333,1161.918
16,0.025,1159.385
17,0.026667,1156.628
18,0.028333,1156.628
19,0.03,1158.342
20,0.031667,1159.757
21,0.033333,1161.099
22,0.035,1161.099
23,0.036667,1164.228
24,0.038333,1166.612
25,0.04,1165.271
26,0.041667,1165.271
27,0.043333,1164.451
28,0.044983,1163.93
29,0.046783,1163.11
30,0.048317,1163.11
31,0.049983,1163.483
32,0.05165,1164.302
33,0.053317,1164.302
34,0.054983,1164.302
35,0.05665,1161.844
36,0.058317,1162.142
37,0.059983,1162.142
38,0.06165,1164.898
39,0.063317,1165.196
40,0.064983,1165.643
41,0.06665,1165.643
42,0.068317,1164.6
43,0.069983,1161.695
44,0.07165000000000001,1162.216
45,0.07331699999999999,1162.216
46,0.07498299999999999,1162.142
47,0.07665,1162.291
48,0.078317,1160.353
49,0.08,1160.353
50,0.08165,1159.981
51,0.083317,1162.887
52,0.084983,1162.887
53,0.08665,1163.185
54,0.08831700000000001,1166.537
55,0.08998299999999999,1164.6
56,0.09165,1164.6
57,0.093333,1164.6
58,0.094983,1165.643
59,0.096667,1165.867
60,0.098317,1165.867
61,0.099983,1168.177
62,0.10165,1166.835
63,0.103317,1163.483
64,0.104967,1163.483
65,0.106633,1160.279
66,0.1083,1163.185
67,0.109967,1163.185
68,0.111633,1164.526
69,0.1133,1168.4
70,0.114967,1172.647
71,0.116633,1172.647
72,0.118283,1173.69
73,0.11995,1171.38
74,0.121617,1169.518
75,0.123283,1169.518
76,0.12495,1165.941
77,0.126617,1163.036
78,0.128283,1166.09
79,0.12995,1166.09
80,0.131617,1168.177
81,0.133283,1170.114
82,0.13495,1170.114
83,0.136617,1170.114
84,0.138283,1169.369
85,0.13995,1166.612
86,0.141617,1166.612
87,0.143283,1168.102
88,0.14495,1167.432
89,0.146617,1167.506
90,0.148283,1167.506
91,0.14995,1170.933
92,0.151617,1169.145
93,0.153283,1168.4
94,0.15495,1168.4
95,0.156617,1168.475
96,0.158283,1166.686
97,0.15995,1166.835
98,0.161617,1166.835
99,0.163283,1167.282
100,0.16505,1163.781
101,0.1666,1163.781
102,0.168267,1162.738
103,0.169933,1161.247
104,0.1716,1161.024
105,0.173267,1161.024
106,0.174933,1161.396
107,0.1766,1158.491
108,0.178267,1159.087
109,0.179933,1159.087
110,0.1816,1159.161
111,0.183267,1160.353
112,0.184933,1167.133
113,0.1866,1167.133
114,0.188283,1168.847
115,0.189933,1168.102
116,0.1916,1166.761
117,0.193267,1166.761
118,0.194933,1164.004
119,0.1966,1165.271
120,0.198267,1165.271
121,0.199933,1166.165
122,0.2016,1167.506
123,0.203267,1166.165
124,0.204933,1166.165
125,0.2066,1163.036
126,0.208267,1164.153
127,0.209933,1166.463
128,0.2116,1166.463
129,0.213267,1168.251
130,0.214933,1167.804
131,0.2166,1166.239
132,0.218267,1166.239
133,0.219967,1164.675
134,0.2216,1163.259
135,0.223267,1163.259
136,0.224917,1164.749
137,0.226583,1166.984
138,0.22825,1166.761
139,0.229917,1166.761
140,0.231583,1167.58
141,0.23325,1167.133
142,0.234917,1168.177
143,0.236583,1168.177
144,0.23825,1167.879
145,0.239917,1169.294
146,0.241583,1168.847
147,0.24325,1168.847
148,0.244917,1169.071
149,0.246583,1172.349
150,0.24825,1170.635
151,0.249967,1170.635
152,0.251583,1171.306
153,0.25325,1169.518
154,0.254917,1169.518
155,0.256583,1166.463
156,0.25825,1169.294
157,0.259917,1168.624
158,0.261583,1168.624
159,0.26325,1166.463
160,0.264917,1165.718
161,0.266583,1165.792
162,0.268267,1165.792
163,0.269917,1168.102
164,0.271583,1170.859
165,0.27325,1172.647
166,0.274917,1172.647
167,0.276583,1172.647
168,0.27825,1172.796
169,0.279917,1172.796
170,0.281583,1171.38
171,0.283367,1167.953
172,0.2849,1167.208
173,0.286567,1167.208
174,0.288233,1165.196
175,0.2899,1164.526
176,0.291567,1167.208
177,0.293233,1167.208
178,0.2949,1167.58
179,0.296567,1170.486
180,0.298233,1170.859
181,0.2999,1170.859
182,0.301567,1170.561
183,0.303233,1167.804
184,0.3049,1167.804
185,0.306567,1164.749
186,0.308233,1164.749
187,0.3099,1166.537
188,0.311567,1166.537
189,0.313233,1165.792
190,0.3149,1167.282
191,0.316567,1165.643
192,0.318233,1165.643
193,0.3199,1166.314
194,0.321567,1166.91
195,0.323233,1163.93
196,0.3249,1163.93
197,0.326567,1164.451
198,0.328233,1165.122
199,0.3299,1166.239
200,0.331567,1166.239
201,0.333233,1171.604
202,0.3349,1172.796
203,0.336567,1172.796
204,0.338233,1169.369
205,0.3399,1170.859
206,0.341567,1170.412
207,0.343233,1170.412
208,0.344883,1170.188
209,0.34655,1168.847
210,0.34825,1169.592
211,0.349883,1169.592
212,0.35155,1166.984
213,0.353217,1167.432
214,0.354883,1168.922
215,0.35655,1168.922
216,0.358217,1165.42
217,0.359883,1165.196
218,0.36155,1165.196
219,0.363233,1165.345
220,0.364883,1166.761
221,0.36655,1167.879
222,0.368267,1167.879
223,0.369883,1168.177
224,0.37155,1166.835
225,0.373217,1166.686
226,0.374883,1166.686
227,0.37655,1169.667
228,0.378217,1171.753
229,0.379883,1177.788
230,0.38155,1177.788
231,0.383217,1179.725
232,0.384883,1181.141
233,0.38655,1182.258
234,0.388217,1182.258
235,0.389883,1182.929
236,0.39155,1183.301
237,0.393217,1183.301
238,0.394883,1183.003
239,0.39655,1184.568
240,0.398217,1185.611
241,0.399883,1185.611
242,0.401667,1188.517
243,0.403217,1193.509
244,0.404867,1194.477
245,0.406533,1194.477
246,0.408183,1194.477
247,0.40985,1199.99
248,0.411517,1202.971
249,0.413183,1202.971
250,0.41485,1208.484
251,0.416517,1213.849
252,0.418183,1213.849
253,0.41985,1214.37
254,0.421517,1215.413
255,0.423183,1217.201
256,0.42485,1217.201
257,0.426517,1217.276
258,0.428183,1220.107
259,0.42985,1220.927
260,0.431517,1220.927
261,0.433183,1221.15
262,0.43485,1223.534
263,0.436533,1223.162
264,0.438183,1223.162
265,0.43985,1224.13
266,0.441517,1225.323
267,0.4432,1225.323
268,0.44485,1225.323
269,0.446517,1226.44
270,0.448183,1228.526
271,0.44985,1228.526
272,0.451517,1225.397
273,0.453183,1221.97
274,0.45485,1219.287
275,0.456517,1219.287
276,0.458183,1215.264
277,0.45985,1216.307
278,0.461517,1216.68
279,0.463167,1216.68
280,0.464833,1215.413
281,0.4665,1212.209
282,0.468167,1207.963
283,0.469833,1207.963
284,0.4715,1204.535
285,0.473167,1198.873
286,0.474833,1198.873
287,0.4765,1196.489
288,0.478167,1195.52
289,0.479833,1192.763
290,0.4815,1192.763
291,0.483167,1194.477
292,0.484833,1194.03
293,0.486567,1193.062
294,0.488167,1193.062
295,0.489833,1192.242
296,0.4915,1191.273
297,0.493167,1189.187
298,0.494833,1189.187
299,0.4965,1190.528
300,0.498167,1190.305
301,0.499833,1190.305
302,0.5014999999999999,1188.889
303,0.503167,1189.187
304,0.504833,1186.207
305,0.5065,1186.207
306,0.508167,1186.058
307,0.509833,1185.164
308,0.5115,1184.642
309,0.513167,1184.642
310,0.514833,1186.952
311,0.5165,1188.07
312,0.518167,1188.368
313,0.519933,1188.368
314,0.5215,1191.944
315,0.523167,1190.603
316,0.524817,1193.062
317,0.526483,1193.062
318,0.52815,1196.265
319,0.529817,1192.54
320,0.531483,1192.54
321,0.53315,1191.646
322,0.534817,1187.25
323,0.536483,1181.29
324,0.53815,1181.29
325,0.539817,1182.705
326,0.541483,1183.972
327,0.54315,1185.983
328,0.544817,1185.983
329,0.5464830000000001,1187.324
330,0.54815,1186.952
331,0.549817,1185.164
332,0.5514829999999999,1185.164
333,0.55315,1183.525
334,0.554817,1183.972
335,0.5564829999999999,1183.972
336,0.55815,1183.078
337,0.559817,1180.246
338,0.561483,1179.501
339,0.56315,1179.501
340,0.564817,1180.693
341,0.566483,1183.301
342,0.56815,1186.207
343,0.569817,1186.207
344,0.571483,1184.717
345,0.57315,1182.705
346,0.574817,1184.27
347,0.576483,1184.27
348,0.5781500000000001,1187.474
349,0.579817,1195.222
350,0.581483,1197.979
351,0.5831499999999999,1197.979
352,0.584833,1196.861
353,0.586467,1197.532
354,0.588133,1197.532
355,0.5898,1197.159
356,0.591467,1199.32
357,0.593133,1200.885
358,0.5948,1200.885
359,0.596467,1203.418
360,0.598133,1208.559
361,0.5998,1214.221
362,0.601467,1214.221
363,0.603133,1222.715
364,0.6048,1229.42
365,0.606467,1236.647
366,0.608133,1236.647
367,0.6098,1246.333
368,0.611467,1256.242
369,0.613133,1256.242
370,0.6148,1268.089
371,0.616467,1284.853
372,0.618133,1302.361
373,0.6198,1302.361
374,0.62155,1321.882
375,0.623133,1343.563
376,0.6248,1364.499
377,0.626467,1364.499
378,0.6281330000000001,1389.459
379,0.6298,1413.971
380,0.631467,1448.244
381,0.6331329999999999,1448.244
382,0.6348,1481.473
383,0.636467,1520.291
384,0.638217,1567.155
385,0.6398,1567.155
386,0.641467,1614.541
387,0.643133,1668.93
388,0.644783,1668.93
389,0.64645,1726.3
390,0.6481170000000001,1788.288
391,0.649783,1856.014
392,0.65145,1856.014
393,0.6531169999999999,1931.116
394,0.654917,2011.731
395,0.65645,2100.319
396,0.658117,2100.319
397,0.659783,2192.631
398,0.661533,2292.32
399,0.663117,2398.864
400,0.664783,2398.864
401,0.66645,2507.716
402,0.668117,2620.891
403,0.669783,2620.891
404,0.671467,2737.567
405,0.673117,2859.607
406,0.674783,2986.267
407,0.67645,2986.267
408,0.678117,3118.962
409,0.679783,3256.798
410,0.68145,3397.241
411,0.683117,3397.241
412,0.684783,3544.912
413,0.68645,3696.605
414,0.688117,3850.013
415,0.689783,3850.013
416,0.69145,4007.518
417,0.693117,4165.396
418,0.694783,4328.713
419,0.69645,4328.713
420,0.698117,4496.5
421,0.699767,4666.149
422,0.701433,4666.149
423,0.7030999999999999,4838.407
424,0.70475,5012.825
425,0.706417,5188.212
426,0.708083,5188.212
427,0.70975,5365.536
428,0.711417,5545.542
429,0.713083,5725.846
430,0.71475,5725.846
431,0.716417,5904.883
432,0.718083,6082.207
433,0.71975,6261.617
434,0.721433,6261.617
435,0.7231,6438.717
436,0.72475,6620.064
437,0.726417,6620.064
438,0.728083,6806.254
439,0.7297670000000001,6989.39
440,0.731417,7176.399
441,0.733083,7176.399
442,0.73475,7360.503
443,0.736417,7543.713
444,0.738083,7730.797
445,0.7398,7730.797
446,0.741417,7914.752
447,0.743083,8102.506
448,0.74475,8289.963
449,0.746417,8289.963
450,0.7480830000000001,8472.278
451,0.74975,8657.947
452,0.751417,8657.947
453,0.7530829999999999,8841.826999999999
454,0.75475,9024.813
455,0.756467,9209.736999999999
456,0.758083,9209.736999999999
457,0.75975,9392.5
458,0.761417,9573.102000000001
459,0.763083,9752.438
460,0.764733,9752.438
461,0.7664,9929.463
462,0.7680670000000001,10107.756
463,0.769733,10284.707
464,0.7714,10284.707
465,0.773133,10465.309
466,0.774733,10645.092
467,0.7764,10821.969
468,0.778067,10821.969
469,0.779733,10999.068
470,0.7814,11171.698
471,0.783067,11171.698
472,0.784733,11346.34
473,0.7864,11522.397
474,0.788067,11694.655
475,0.789733,11694.655
476,0.7914,11869.147
477,0.793067,12040.958
478,0.794733,12210.459
479,0.7964,12210.459
480,0.798083,12382.492
481,0.799733,12550.727
482,0.8014,12720.152
483,0.803067,12720.152
484,0.804733,12886.077
485,0.8064,13050.139
486,0.808067,13050.139
487,0.809733,13213.679
488,0.8114,13377.22
489,0.813067,13542.176
490,0.814733,13542.176
491,0.8164,13705.566
492,0.818083,13867.468
493,0.819733,14026.537
494,0.8214,14026.537
495,0.823067,14181.733
496,0.824717,14340.281
497,0.826383,14498.83
498,0.82805,14498.83
499,0.829717,14656.782
500,0.831383,14814.213
501,0.83305,14964.863
502,0.834717,14964.863
503,0.836383,15111.863
504,0.83805,15256.182
505,0.839717,15256.182
506,0.8414,15398.04
507,0.84305,15540.645
508,0.8447170000000001,15681.982
509,0.8464,15681.982
510,0.84805,15821.308
511,0.8497169999999999,15958.473
512,0.851383,16095.117
513,0.85305,16095.117
514,0.8547169999999999,16230.419
515,0.856383,16362.965
516,0.858117,16491.414
517,0.859717,16491.414
518,0.861383,16611.74
519,0.86305,16724.84
520,0.864717,16724.84
521,0.866383,16828.328
522,0.86805,16924.217
523,0.869733,17008.559
524,0.871383,17008.559
525,0.87305,17075.24
526,0.874733,17120.242
527,0.876383,17132.535
528,0.87805,17132.535
529,0.879717,17101.689
530,0.881383,17010.42
531,0.88305,16827.881
532,0.8847,16827.881
533,0.886367,16516.521
534,0.888033,16028.881
535,0.8897,16028.881
536,0.891483,15318.767
537,0.893033,14363.304
538,0.8947000000000001,13173.223
539,0.896367,13173.223
540,0.898033,11798.665
541,0.8997000000000001,10330.677
542,0.901367,8871.257
543,0.903033,8871.257
544,0.9046999999999999,7508.099
545,0.906367,6309.822
546,0.908033,5303.323
547,0.9097,5303.323
548,0.911367,4489.198
549,0.913033,3855.973
550,0.9147,3369.451
551,0.916367,3369.451
552,0.918033,2999.157
553,0.9197,2724.156
554,0.921367,2724.156
555,0.923033,2511.963
556,0.9247,2353.042
557,0.9263670000000001,2231.076
558,0.928033,2231.076
559,0.9297,2131.984
560,0.9313669999999999,2053.231
561,0.933033,1987.815
562,0.9347,1987.815
563,0.9363669999999999,1934.394
564,0.938033,1887.828
565,0.9397,1848.266
566,0.941367,1848.266
567,0.943017,1811.46
568,0.9447,1778.528
569,0.946367,1778.528
570,0.948017,1752.973
571,0.9496830000000001,1730.695
572,0.95135,1709.536
573,0.953017,1709.536
574,0.9546829999999999,1690.09
575,0.95635,1667.813
576,0.958017,1649.633
577,0.959683,1649.633
578,0.96135,1631.007
579,0.963017,1614.541
580,0.964683,1598.895
581,0.96635,1598.895
582,0.968017,1581.088
583,0.969683,1568.198
584,0.97135,1555.16
585,0.973017,1555.16
586,0.974683,1542.941
587,0.9763500000000001,1532.212
588,0.978017,1532.212
589,0.979683,1523.42
590,0.9813499999999999,1514.405
591,0.983017,1505.241
592,0.984683,1505.241
593,0.986367,1493.841
594,0.988017,1481.697
595,0.989683,1470.223
596,0.991333,1470.223
597,0.993,1463.294
598,0.994667,1459.569
599,0.996333,1453.087
600,0.998,1453.087
601,0.999667,1449.063
602,1.001333,1442.432
603,1.003,1442.432
604,1.00465,1435.429
605,1.006317,1428.351
606,1.007983,1420.304
607,1.009767,1420.304
608,1.011317,1414.269
609,1.012983,1407.042
610,1.01465,1404.583
611,1.016317,1404.583
612,1.017983,1402.646
613,1.01965,1400.486
614,1.021333,1395.941
615,1.023017,1395.941
616,1.02465,1387.373
617,1.026317,1378.953
618,1.027983,1369.491
619,1.02965,1369.491
620,1.031317,1363.382
621,1.032983,1359.88
622,1.03465,1359.88
623,1.036317,1358.315
624,1.037983,1355.41
625,1.03965,1354.59
626,1.041317,1354.59
627,1.042983,1352.057
628,1.04465,1348.853
629,1.046317,1347.14
630,1.047983,1347.14
631,1.04965,1344.159
632,1.051317,1343.712
633,1.052983,1341.403
634,1.05465,1341.403
635,1.056317,1339.018
636,1.057983,1335.517
637,1.05965,1335.517
638,1.061317,1330.376
639,1.062967,1324.192
640,1.064633,1319.349
641,1.0663,1319.349
642,1.068,1318.678
643,1.069667,1316.071
644,1.0713,1314.58
645,1.072967,1314.58
646,1.074633,1313.537
647,1.0763,1308.694
648,1.077967,1307.875
649,1.079633,1307.875
650,1.0813,1305.64
651,1.082967,1300.797
652,1.084633,1300.797
653,1.0863,1299.754
654,1.087983,1295.73
655,1.089633,1293.123
656,1.0913,1293.123
657,1.092967,1295.507
658,1.0947,1293.048
659,1.0963,1290.813
660,1.097967,1290.813
661,1.099633,1290.143
662,1.1013,1283.735
663,1.102967,1282.692
664,1.104633,1282.692
665,1.1063,1280.829
666,1.107967,1280.978
667,1.109633,1282.319
668,1.1113,1282.319
669,1.112967,1279.19
670,1.114633,1278.147
671,1.1163,1278.147
672,1.117967,1276.284
673,1.119633,1274.794
674,1.1213,1275.092
675,1.122967,1275.092
676,1.124617,1275.018
677,1.126283,1273.975
678,1.128067,1270.547
679,1.129617,1270.547
680,1.131283,1265.183
681,1.13295,1259.819
682,1.134617,1256.839
683,1.136283,1256.839
684,1.13795,1256.764
685,1.139617,1257.434
686,1.141283,1257.434
687,1.14295,1258.85
688,1.144617,1257.881
689,1.146283,1256.839
690,1.14795,1256.839
691,1.149617,1256.317
692,1.151283,1255.795
693,1.15295,1254.156
694,1.154617,1254.156
695,1.156283,1253.039
696,1.15795,1253.858
697,1.159617,1252.294
698,1.161283,1252.294
699,1.16295,1253.337
700,1.164633,1252.815
701,1.166283,1249.611
702,1.16795,1249.611
703,1.169617,1247.153
704,1.171283,1243.651
705,1.17295,1243.651
706,1.174617,1244.545
707,1.176283,1243.651
708,1.17795,1243.949
709,1.179617,1243.949
710,1.181283,1243.204
711,1.18295,1242.235
712,1.1846,1242.98
713,1.186267,1242.98
714,1.187933,1244.172
715,1.1896,1243.874
716,1.191267,1242.757
717,1.192933,1242.757
718,1.1946,1243.353
719,1.196267,1242.98
720,1.197933,1242.98
721,1.1996,1243.8
722,1.201267,1242.608
723,1.202933,1238.734
724,1.2046,1238.734
725,1.206267,1238.137
726,1.207933,1236.349
727,1.2096,1233.816
728,1.211267,1233.816
729,1.212983,1234.114
730,1.2146,1232.177
731,1.216267,1230.463
732,1.217933,1230.463
733,1.2196,1231.283
734,1.221267,1231.581
735,1.222933,1228.824
736,1.2246,1228.824
737,1.226267,1231.357
738,1.227933,1230.091
739,1.2296,1230.091
740,1.231267,1228.303
741,1.232967,1228.75
742,1.2346,1225.323
743,1.236283,1225.323
744,1.237933,1225.919
745,1.2396,1225.323
746,1.241267,1227.632
747,1.242917,1227.632
748,1.244583,1227.111
749,1.246383,1227.632
750,1.247917,1226.887
751,1.2496,1226.887
752,1.25125,1224.503
753,1.252917,1224.875
754,1.254583,1224.875
755,1.25625,1222.789
756,1.257917,1222.044
757,1.259583,1219.809
758,1.26125,1219.809
759,1.262917,1217.723
760,1.264583,1217.797
761,1.26625,1217.127
762,1.267917,1217.127
763,1.269583,1217.276
764,1.27125,1220.48
765,1.272917,1221.523
766,1.274583,1221.523
767,1.27625,1224.726
768,1.277917,1224.503
769,1.279583,1222.566
770,1.28125,1222.566
771,1.2829,1219.809
772,1.284567,1217.499
773,1.286233,1217.499
774,1.2879,1216.233
775,1.289567,1214.445
776,1.291233,1213.849
777,1.2929,1213.849
778,1.294567,1210.645
779,1.296233,1209.08
780,1.2979,1208.857
781,1.299567,1208.857
782,1.301233,1209.08
783,1.3029,1211.166
784,1.30455,1214.519
785,1.306217,1214.519
786,1.307883,1215.935
787,1.30955,1217.35
788,1.311217,1217.35
789,1.312883,1214.892
790,1.31455,1212.656
791,1.316217,1211.39
792,1.317883,1211.39
793,1.31955,1209.9
794,1.321217,1211.464
795,1.322883,1211.166
796,1.32455,1211.166
797,1.326217,1210.794
798,1.327883,1209.08
799,1.32955,1206.473
800,1.331283,1206.473
801,1.332883,1205.28
802,1.33455,1206.026
803,1.336217,1206.026
804,1.337883,1204.237
805,1.33955,1205.206
806,1.341217,1207.665
807,1.342883,1207.665
808,1.34455,1206.547
809,1.346217,1208.931
810,1.348,1208.335
811,1.34955,1208.335
812,1.351217,1206.547
813,1.352883,1206.696
814,1.35455,1203.716
815,1.356217,1203.716
816,1.357883,1200.81
817,1.35955,1197.904
818,1.361217,1197.01
819,1.362867,1197.01
820,1.364667,1198.426
821,1.3662,1200.587
822,1.367867,1200.587
823,1.369533,1202.598
824,1.3712,1198.649
825,1.372867,1196.787
826,1.374533,1196.787
827,1.3762,1196.042
828,1.377867,1197.01
829,1.379533,1200.587
830,1.3812,1200.587
831,1.382867,1200.587
832,1.384533,1202.822
833,1.3862,1204.088
834,1.387867,1204.088
835,1.389533,1205.429
836,1.3912,1209.229
837,1.392867,1209.229
838,1.394533,1209.527
839,1.3962,1206.174
840,1.397867,1203.939
841,1.399533,1203.939
842,1.4012,1203.194
843,1.402867,1201.481
844,1.404533,1202.524
845,1.4062,1202.524
846,1.407867,1202.449
847,1.409533,1200.438
848,1.41125,1199.096
849,1.412867,1199.096
850,1.414533,1199.022
851,1.4162,1196.265
852,1.417867,1195.297
853,1.419533,1195.297
854,1.4212,1196.787
855,1.42285,1196.489
856,1.424533,1196.489
857,1.426183,1199.32
858,1.42785,1199.171
859,1.429517,1196.787
860,1.431183,1196.787
861,1.43285,1197.979
862,1.434517,1196.712
863,1.436183,1194.552
864,1.43785,1194.552
865,1.439517,1192.912
866,1.441183,1191.646
867,1.44285,1190.975
868,1.444517,1190.975
869,1.446217,1193.807
870,1.44785,1198.128
871,1.449517,1198.128
872,1.451183,1198.277
873,1.45285,1199.171
874,1.454517,1195.222
875,1.456183,1195.222
876,1.45785,1191.944
877,1.459517,1189.634
878,1.461183,1187.324
879,1.46285,1187.324
880,1.464517,1188.07
881,1.466233,1190.901
882,1.46785,1192.242
883,1.469517,1192.242
884,1.471183,1193.732
885,1.47285,1195.893
886,1.474517,1196.042
887,1.476183,1196.042
888,1.47785,1197.457
889,1.479517,1198.351
890,1.481183,1198.351
891,1.48295,1199.543
892,1.4845,1198.053
893,1.486167,1197.01
894,1.487833,1197.01
895,1.4895,1195.967
896,1.491167,1194.775
897,1.492833,1194.179
898,1.4945,1194.179
899,1.496167,1192.987
900,1.497833,1194.403
901,1.499617,1195.52
902,1.501167,1195.52
903,1.50285,1196.638
904,1.5045,1199.767
905,1.506167,1199.767
906,1.507833,1198.724
907,1.5095,1194.179
908,1.511167,1191.05
909,1.512833,1191.05
910,1.5145,1189.187
911,1.516167,1186.207
912,1.517833,1189.113
913,1.5195,1189.113
914,1.521167,1191.646
915,1.522833,1189.858
916,1.5245,1194.03
917,1.526167,1194.03
918,1.527833,1194.626
