"ID","sea_time","fid_signal"
1,0,37.704
2,0.001667,37.704
3,0.003317,37.705
4,0.004983,37.71
5,0.00665,37.652
6,0.008433,37.652
7,0.009983000000000001,37.498
8,0.01165,37.408
9,0.013317,37.408
10,0.014983,37.36
11,0.01665,37.415
12,0.018317,37.611
13,0.019983,37.611
14,0.02165,37.735
15,0.023317,37.829
16,0.024983,37.855
17,0.02665,37.855
18,0.028317,37.829
19,0.029983,37.825
20,0.03165,37.788
21,0.033317,37.788
22,0.034983,37.782
23,0.03665,37.795
24,0.038317,37.804
25,0.039983,37.804
26,0.04165,37.818
27,0.043317,37.821
28,0.044983,37.821
29,0.04665,37.799
30,0.048317,37.763
31,0.049983,37.77
32,0.05165,37.77
33,0.053317,37.746
34,0.054983,37.745
35,0.05665,37.756
36,0.058317,37.756
37,0.059967,37.733
38,0.06165,37.754
39,0.0633,37.771
40,0.064967,37.771
41,0.066633,37.789
42,0.0683,37.808
43,0.069967,37.808
44,0.071633,37.809
45,0.07335,37.806
46,0.07496700000000001,37.805
47,0.07663300000000001,37.805
48,0.07829999999999999,37.775
49,0.079967,37.76
50,0.081633,37.74
51,0.0833,37.74
52,0.084967,37.724
53,0.086633,37.759
54,0.0883,37.774
55,0.08996700000000001,37.774
56,0.09163300000000001,37.804
57,0.09335,37.83
58,0.094967,37.83
59,0.096633,37.83
60,0.0983,37.841
61,0.099967,37.841
62,0.101633,37.841
63,0.1033,37.828
64,0.104967,37.796
65,0.106633,37.778
66,0.1083,37.778
67,0.110033,37.759
68,0.111633,37.729
69,0.1133,37.731
70,0.114967,37.731
71,0.116633,37.719
72,0.1183,37.723
73,0.119967,37.757
74,0.121617,37.757
75,0.123283,37.784
76,0.12495,37.801
77,0.126733,37.82
78,0.128283,37.82
79,0.12995,37.835
80,0.131617,37.824
81,0.133283,37.824
82,0.13495,37.804
83,0.136617,37.794
84,0.138283,37.773
85,0.13995,37.773
86,0.141617,37.803
87,0.143283,37.809
88,0.14495,37.794
89,0.14665,37.794
90,0.148283,37.802
91,0.14995,37.773
92,0.151633,37.809
93,0.153283,37.809
94,0.15495,37.857
95,0.156617,37.858
96,0.158283,37.858
97,0.15995,37.86
98,0.161617,37.833
99,0.163283,37.801
100,0.16495,37.801
101,0.166617,37.794
102,0.168283,37.81
103,0.16995,37.827
104,0.171617,37.827
105,0.173283,37.845
106,0.17495,37.844
107,0.176617,37.815
108,0.178283,37.815
109,0.17995,37.791
110,0.181617,37.757
111,0.183267,37.757
112,0.184933,37.764
113,0.1866,37.777
114,0.188267,37.8
115,0.189933,37.8
116,0.1916,37.833
117,0.193267,37.814
118,0.194933,37.827
119,0.1966,37.827
120,0.198267,37.818
121,0.199933,37.808
122,0.2016,37.834
123,0.203267,37.834
124,0.204933,37.823
125,0.2066,37.81
126,0.2083,37.804
127,0.209933,37.804
128,0.211617,37.781
129,0.213267,37.768
130,0.214933,37.768
131,0.2166,37.748
132,0.218267,37.723
133,0.219933,37.729
134,0.2216,37.729
135,0.223267,37.751
136,0.224933,37.804
137,0.2266,37.828
138,0.228317,37.828
139,0.229933,37.83
140,0.2316,37.818
141,0.233267,37.767
142,0.234933,37.767
143,0.2366,37.737
144,0.238267,37.727
145,0.239933,37.727
146,0.241583,37.736
147,0.24325,37.745
148,0.245033,37.751
149,0.246567,37.751
150,0.248233,37.733
151,0.2499,37.692
152,0.251567,37.675
153,0.253233,37.675
154,0.2549,37.676
155,0.256567,37.687
156,0.258233,37.695
157,0.2599,37.695
158,0.261567,37.745
159,0.263233,37.76
160,0.2649,37.76
161,0.266567,37.761
162,0.268233,37.796
163,0.2699,37.792
164,0.271567,37.792
165,0.273233,37.804
166,0.2749,37.836
167,0.276567,37.827
168,0.278233,37.827
169,0.2799,37.836
170,0.281567,37.847
171,0.283233,37.847
172,0.2849,37.847
173,0.286633,37.855
174,0.288233,37.877
175,0.2899,37.896
176,0.291567,37.896
177,0.293233,37.896
178,0.2949,37.943
179,0.296567,37.943
180,0.298233,38.005
181,0.2999,38.133
182,0.301567,38.37
183,0.303217,38.37
184,0.304883,38.712
185,0.30655,39.219
186,0.308217,39.922
187,0.309883,39.922
188,0.31155,40.925
189,0.313217,42.301
190,0.314883,44.197
191,0.31655,44.197
192,0.318217,46.737
193,0.319883,50.075
194,0.32155,50.075
195,0.323217,54.409
196,0.324883,59.88
197,0.326567,66.745
198,0.328217,66.745
199,0.3299,75.22
200,0.33155,85.46899999999999
201,0.333217,97.72
202,0.334883,97.72
203,0.33655,112.137
204,0.338217,128.875
205,0.339883,148.086
206,0.34155,148.086
207,0.343217,169.908
208,0.344883,194.38
209,0.346617,221.55
210,0.348217,221.55
211,0.349883,251.385
212,0.351567,283.805
213,0.353217,283.805
214,0.3549,318.755
215,0.35655,356.127
216,0.358217,395.841
217,0.359883,395.841
218,0.361533,437.772
219,0.36325,481.769
220,0.364867,527.706
221,0.366533,527.706
222,0.3682,575.51
223,0.369867,625.023
224,0.371533,676.183
225,0.3732,676.183
226,0.374867,728.941
227,0.376533,783.143
228,0.3782,783.143
229,0.38,838.843
230,0.381533,896.025
231,0.3832,954.752
232,0.384867,954.752
233,0.386533,1015.103
234,0.3882,1077.157
235,0.389867,1141.078
236,0.391533,1141.078
237,0.3932,1206.971
238,0.394867,1275.002
239,0.396533,1345.426
240,0.3982,1345.426
241,0.399867,1418.544
242,0.401533,1494.595
243,0.4032,1494.595
244,0.404867,1574.031
245,0.406533,1657.269
246,0.4082,1744.782
247,0.409867,1744.782
248,0.411533,1837.225
249,0.4132,1935.285
250,0.414867,2039.686
251,0.416533,2039.686
252,0.4182,2151.25
253,0.419867,2270.803
254,0.421533,2399.139
255,0.4232,2399.139
256,0.42485,2536.976
257,0.426517,2684.712
258,0.428183,2842.507
259,0.42985,2842.507
260,0.431517,3010.114
261,0.433183,3186.795
262,0.43485,3186.795
263,0.436517,3371.322
264,0.438183,3561.844
265,0.43985,3755.885
266,0.441517,3755.885
267,0.4432,3950.363
268,0.44485,4141.71
269,0.446517,4325.92
270,0.448183,4325.92
271,0.44985,4498.594
272,0.451517,4655.417
273,0.453183,4792.098
274,0.45485,4792.098
275,0.456517,4904.62
276,0.458183,4989.651
277,0.45985,4989.651
278,0.461517,5044.315
279,0.463183,5066.452
280,0.4649,5054.835
281,0.466517,5054.835
282,0.468183,5009.214
283,0.46985,4930.618
284,0.471517,4821.043
285,0.473183,4821.043
286,0.47485,4683.226
287,0.476517,4520.555
288,0.478183,4336.458
289,0.47985,4336.458
290,0.48155,4134.765
291,0.483167,3919.606
292,0.484833,3694.874
293,0.4865,3694.874
294,0.488167,3464.448
295,0.489833,3231.99
296,0.4915,3231.99
297,0.493167,3000.657
298,0.494833,2773.311
299,0.4965,2552.376
300,0.498167,2552.376
301,0.499833,2339.892
302,0.5014999999999999,2137.431
303,0.503167,1946.153
304,0.504833,1946.153
305,0.5065,1766.902
306,0.508167,1600.078
307,0.509833,1445.8
308,0.5115,1445.8
309,0.513167,1303.988
310,0.514833,1174.273
311,0.5165,1174.273
312,0.518167,1056.197
313,0.519833,949.183
314,0.5215,852.583
315,0.523167,852.583
316,0.524833,765.771
317,0.5265,687.937
318,0.5281670000000001,618.372
319,0.529833,618.372
320,0.5315,556.343
321,0.533183,501.094
322,0.534833,451.988
323,0.5365,451.988
324,0.53815,408.415
325,0.539817,369.786
326,0.541467,369.786
327,0.543133,335.552
328,0.5448,305.202
329,0.546467,278.314
330,0.548133,278.314
331,0.5498,254.478
332,0.551467,233.307
333,0.553133,214.538
334,0.5548,214.538
335,0.556467,197.868
336,0.558133,183.041
337,0.5598,169.867
338,0.561467,169.867
339,0.563133,158.153
340,0.5648,147.698
341,0.5664670000000001,138.38
342,0.568133,138.38
343,0.5698,130.045
344,0.5714669999999999,122.611
345,0.573133,122.611
346,0.5748,115.937
347,0.576467,109.942
348,0.578133,104.56
349,0.5798,104.56
350,0.581467,99.684
351,0.5831499999999999,95.30500000000001
352,0.5848,91.346
353,0.586467,91.346
354,0.588133,87.801
355,0.5898,84.551
356,0.591467,81.64
357,0.593133,81.64
358,0.5948,79.004
359,0.596467,76.562
360,0.598133,76.562
361,0.5998,74.422
362,0.601467,72.431
363,0.603117,70.604
364,0.604783,70.604
365,0.60645,68.93000000000001
366,0.608117,67.35299999999999
367,0.609783,65.932
368,0.61145,65.932
369,0.613117,64.619
370,0.614783,63.414
371,0.616583,62.343
372,0.618117,62.343
373,0.619783,61.291
374,0.6214499999999999,60.33
375,0.623133,59.467
376,0.624783,59.467
377,0.62645,58.629
378,0.628117,57.869
379,0.629783,57.869
380,0.63145,57.151
381,0.633117,56.459
382,0.634783,55.797
383,0.63645,55.797
384,0.638117,55.186
385,0.639783,54.635
386,0.64145,54.149
387,0.643117,54.149
388,0.644783,53.712
389,0.64645,53.293
390,0.6481170000000001,52.866
391,0.649783,52.866
392,0.65145,52.467
393,0.6531169999999999,52.074
394,0.654783,52.074
395,0.65645,51.717
396,0.658117,51.355
397,0.659783,50.969
398,0.66145,50.969
399,0.6631,50.595
400,0.664767,50.268
401,0.6664330000000001,49.993
402,0.6681,49.993
403,0.669767,49.721
404,0.6714329999999999,49.468
405,0.6731,49.226
406,0.674767,49.226
407,0.676433,49.014
408,0.6781,48.841
409,0.679767,48.666
410,0.681433,48.666
411,0.6831,48.488
412,0.684767,48.26
413,0.686433,48.26
414,0.6881,48.027
415,0.689767,47.824
416,0.691433,47.627
417,0.6931,47.627
418,0.694767,47.436
419,0.696433,47.29
420,0.6981000000000001,47.141
421,0.699767,47.141
422,0.7015,46.998
423,0.7030999999999999,46.873
424,0.704767,46.712
425,0.706433,46.712
426,0.7081,46.575
427,0.709767,46.402
428,0.711433,46.402
429,0.7131,46.247
430,0.714767,46.109
431,0.716433,45.998
432,0.7181,45.998
433,0.719767,45.893
434,0.721433,45.8
435,0.723083,45.723
436,0.72475,45.723
437,0.726417,45.621
438,0.728083,45.525
439,0.7297670000000001,45.392
440,0.731417,45.392
441,0.733083,45.259
442,0.734883,45.108
443,0.736417,44.979
444,0.738083,44.979
445,0.73975,44.909
446,0.741417,44.817
447,0.743083,44.817
448,0.74475,44.73
449,0.746417,44.633
450,0.7480830000000001,44.528
451,0.74975,44.528
452,0.751417,44.426
453,0.7530829999999999,44.318
454,0.75475,44.227
455,0.756417,44.227
456,0.758083,44.1
457,0.75975,44.014
458,0.761417,43.95
459,0.763083,43.95
460,0.76475,43.887
461,0.766417,43.862
462,0.768083,43.862
463,0.76975,43.801
464,0.771417,43.736
465,0.773083,43.645
466,0.77475,43.645
467,0.776417,43.563
468,0.778083,43.477
469,0.7797500000000001,43.38
470,0.781417,43.38
471,0.783067,43.295
472,0.784767,43.185
473,0.7864,43.105
474,0.788067,43.105
475,0.789733,43.036
476,0.7914,42.964
477,0.793067,42.964
478,0.794733,42.935
479,0.7964,42.899
480,0.798067,42.818
481,0.799733,42.818
482,0.8014,42.757
483,0.803067,42.675
484,0.804733,42.59
485,0.8064,42.59
486,0.808067,42.535
487,0.809733,42.485
488,0.8114,42.405
489,0.813067,42.405
490,0.814733,42.363
491,0.8164,42.315
492,0.818067,42.257
493,0.819767,42.257
494,0.8214,42.208
495,0.823067,42.114
496,0.824733,42.114
497,0.8264,42.067
498,0.82805,42.02
499,0.829717,41.989
500,0.831383,41.989
501,0.83305,41.964
502,0.834717,41.942
503,0.836383,41.898
504,0.83805,41.898
505,0.839717,41.839
506,0.841383,41.807
507,0.843033,41.715
508,0.8447,41.715
509,0.846367,41.646
510,0.848033,41.589
511,0.8497,41.589
512,0.851367,41.513
513,0.85315,41.486
514,0.8547,41.43
515,0.856367,41.43
516,0.858033,41.418
517,0.859733,41.398
518,0.86145,41.386
519,0.8630330000000001,41.386
520,0.8647,41.404
521,0.866367,41.36
522,0.8680330000000001,41.332
523,0.8697,41.332
524,0.871367,41.31
525,0.8730329999999999,41.299
526,0.8747,41.278
527,0.876367,41.278
528,0.878033,41.272
529,0.8797,41.219
530,0.881367,41.219
531,0.883033,41.159
532,0.8847,41.129
533,0.886367,41.053
534,0.888033,41.053
535,0.8897,41.018
536,0.891367,41
537,0.893033,40.96
538,0.8947000000000001,40.96
539,0.896367,40.953
540,0.898033,40.922
541,0.8997000000000001,40.844
542,0.90135,40.844
543,0.903017,40.816
544,0.9046999999999999,40.774
545,0.90635,40.774
546,0.908017,40.736
547,0.909683,40.726
548,0.91135,40.71
549,0.913017,40.71
550,0.914683,40.675
551,0.91635,40.673
552,0.918017,40.669
553,0.919683,40.669
554,0.92135,40.642
555,0.923017,40.622
556,0.9247,40.593
557,0.9263670000000001,40.593
558,0.928017,40.554
559,0.929683,40.547
560,0.93135,40.522
561,0.933017,40.522
562,0.934683,40.5
563,0.93635,40.498
564,0.938067,40.498
565,0.939683,40.463
566,0.94135,40.467
567,0.943017,40.437
568,0.9446830000000001,40.437
569,0.94635,40.425
570,0.948017,40.378
571,0.9496830000000001,40.365
572,0.95135,40.365
573,0.953017,40.352
574,0.9546829999999999,40.317
575,0.95635,40.299
576,0.958017,40.299
577,0.959683,40.236
578,0.96135,40.213
579,0.963,40.213
580,0.9646670000000001,40.192
581,0.966333,40.179
582,0.968,40.181
583,0.9696669999999999,40.181
584,0.971467,40.156
585,0.973,40.126
586,0.974667,40.139
587,0.976333,40.139
588,0.978,40.153
589,0.979667,40.147
590,0.981333,40.138
591,0.983,40.138
592,0.984667,40.08
593,0.986333,40.018
594,0.988,40.018
595,0.989667,39.986
596,0.991333,39.94
597,0.993,39.936
598,0.994667,39.936
599,0.996333,39.963
600,0.998,39.95
601,0.999667,39.957
602,1.001333,39.957
603,1.003,39.962
604,1.0047,39.94
605,1.006333,39.937
606,1.008,39.937
607,1.009667,39.908
608,1.011333,39.895
609,1.013,39.846
610,1.014667,39.846
611,1.016333,39.814
612,1.018,39.849
613,1.019667,39.849
614,1.021317,39.835
615,1.022983,39.86
616,1.024667,39.867
617,1.026317,39.867
618,1.027983,39.846
619,1.02965,39.836
620,1.031317,39.84
621,1.032983,39.84
622,1.03465,39.826
623,1.036317,39.765
624,1.037983,39.738
625,1.03965,39.738
626,1.041317,39.683
627,1.042983,39.666
628,1.04465,39.666
629,1.046317,39.7
630,1.047983,39.695
631,1.04965,39.7
632,1.051317,39.7
633,1.052983,39.662
634,1.05465,39.645
635,1.056383,39.616
636,1.057983,39.616
637,1.05965,39.589
638,1.061317,39.624
639,1.062983,39.593
640,1.06465,39.593
641,1.066317,39.593
642,1.067983,39.58
643,1.06965,39.53
644,1.071317,39.53
645,1.07305,39.512
646,1.07465,39.521
647,1.07635,39.521
648,1.078,39.516
649,1.07965,39.508
650,1.081317,39.489
651,1.082967,39.489
652,1.084633,39.445
653,1.0863,39.417
654,1.087967,39.425
655,1.08975,39.425
656,1.0913,39.438
657,1.092967,39.426
658,1.094633,39.443
659,1.0963,39.443
660,1.097967,39.426
661,1.099633,39.425
662,1.1013,39.425
663,1.102967,39.444
664,1.104633,39.444
665,1.106433,39.455
666,1.107967,39.455
667,1.109633,39.42
668,1.1113,39.399
669,1.112967,39.397
670,1.114633,39.397
671,1.1163,39.382
672,1.117967,39.384
673,1.119617,39.385
674,1.121283,39.385
675,1.12295,39.361
676,1.124617,39.347
677,1.126283,39.311
678,1.12795,39.311
679,1.129617,39.273
680,1.131283,39.253
681,1.132967,39.253
682,1.134617,39.247
683,1.136283,39.265
684,1.13795,39.263
685,1.139617,39.263
686,1.141267,39.283
687,1.142933,39.272
688,1.1446,39.276
689,1.146283,39.276
690,1.147933,39.27
691,1.149633,39.25
692,1.151267,39.244
693,1.152933,39.244
694,1.1546,39.212
695,1.156267,39.202
696,1.157933,39.202
697,1.1596,39.201
698,1.161267,39.179
699,1.162933,39.183
700,1.1646,39.183
701,1.166267,39.198
702,1.167933,39.162
703,1.1696,39.172
704,1.171267,39.172
705,1.172933,39.186
706,1.174617,39.178
707,1.176267,39.192
708,1.177933,39.192
709,1.1796,39.183
710,1.181267,39.16
711,1.182933,39.16
712,1.1846,39.157
713,1.186267,39.136
714,1.187933,39.136
715,1.1896,39.136
716,1.191267,39.126
717,1.192933,39.107
718,1.1946,39.111
719,1.196267,39.111
720,1.197933,39.076
721,1.1996,39.051
722,1.201267,39.033
723,1.202917,39.033
724,1.204583,39.034
725,1.20625,39.072
726,1.208,39.111
727,1.209583,39.111
728,1.21125,39.112
729,1.212917,39.069
730,1.214583,39.069
731,1.21625,39.017
732,1.217917,38.983
733,1.219583,38.996
734,1.22125,38.996
735,1.222917,39.013
736,1.2247,39.043
737,1.22625,39.059
738,1.227917,39.059
739,1.229583,39.027
740,1.23125,39.04
741,1.232917,39.01
742,1.234583,39.01
743,1.23625,38.961
744,1.237917,38.964
745,1.239583,38.964
746,1.24125,38.918
747,1.242917,38.914
748,1.244583,38.907
749,1.24625,38.907
750,1.247917,38.905
751,1.249583,38.897
752,1.25125,38.899
753,1.252917,38.899
754,1.254583,38.931
755,1.25625,38.907
756,1.257917,38.914
757,1.259583,38.914
758,1.26125,38.888
759,1.2629,38.858
760,1.264567,38.865
761,1.266233,38.865
762,1.2679,38.87
763,1.269567,38.867
764,1.271233,38.867
765,1.2729,38.87
766,1.274567,38.861
767,1.276233,38.864
768,1.2779,38.864
769,1.279567,38.888
770,1.281233,38.886
771,1.282933,38.861
772,1.284567,38.861
773,1.286233,38.848
774,1.2879,38.822
775,1.289567,38.808
776,1.291233,38.808
777,1.2929,38.813
778,1.294583,38.829
779,1.296233,38.829
780,1.2979,38.859
781,1.299567,38.861
782,1.301233,38.884
783,1.3029,38.884
784,1.304567,38.854
785,1.306233,38.847
786,1.3079,38.857
787,1.3096,38.857
788,1.311233,38.819
789,1.3129,38.799
790,1.314567,38.762
791,1.316233,38.762
792,1.3179,38.765
793,1.319567,38.806
794,1.321233,38.815
795,1.322883,38.815
796,1.32455,38.792
797,1.326283,38.771
798,1.327883,38.771
799,1.32955,38.753
800,1.331217,38.756
801,1.332883,38.753
802,1.33455,38.753
803,1.336217,38.759
804,1.337883,38.753
805,1.33955,38.762
806,1.341217,38.762
807,1.342883,38.799
808,1.34455,38.832
809,1.346217,38.826
810,1.347883,38.826
811,1.34955,38.823
812,1.351217,38.812
813,1.352883,38.812
814,1.35455,38.765
815,1.356217,38.751
816,1.3579,38.715
817,1.35955,38.715
818,1.361233,38.688
819,1.362883,38.666
820,1.36455,38.68
821,1.366217,38.68
822,1.367883,38.679
823,1.36955,38.675
824,1.371217,38.67
825,1.372883,38.67
826,1.37455,38.669
827,1.376217,38.678
828,1.377883,38.678
829,1.37955,38.677
830,1.381217,38.701
831,1.3829,38.699
832,1.384533,38.699
833,1.3862,38.705
834,1.387867,38.717
835,1.389533,38.689
836,1.3912,38.689
837,1.392867,38.689
838,1.394533,38.717
839,1.3962,38.729
840,1.397867,38.729
841,1.399533,38.758
842,1.4012,38.743
843,1.402867,38.702
844,1.404533,38.702
845,1.4062,38.67
846,1.407867,38.663
847,1.409533,38.663
848,1.411183,38.671
849,1.41285,38.661
850,1.414517,38.66
851,1.416183,38.66
852,1.41785,38.633
853,1.419517,38.622
854,1.421183,38.626
855,1.42285,38.626
856,1.424517,38.639
857,1.426183,38.658
858,1.427917,38.666
859,1.429517,38.666
860,1.431183,38.654
861,1.43285,38.637
862,1.434517,38.637
863,1.436183,38.652
864,1.43785,38.638
865,1.439517,38.674
866,1.441167,38.674
867,1.442833,38.714
868,1.444533,38.684
869,1.446167,38.655
870,1.447833,38.655
871,1.4495,38.621
872,1.451167,38.586
873,1.452833,38.584
874,1.4545,38.584
875,1.456167,38.589
876,1.457833,38.574
877,1.4595,38.563
878,1.461233,38.563
879,1.462833,38.57
880,1.4645,38.605
881,1.466167,38.605
882,1.467833,38.629
883,1.4695,38.621
884,1.471183,38.573
885,1.472833,38.573
886,1.4745,38.534
887,1.476167,38.538
888,1.477833,38.558
889,1.4795,38.558
890,1.481167,38.592
891,1.482833,38.59
892,1.4845,38.579
893,1.486167,38.579
894,1.487833,38.563
895,1.4895,38.56
896,1.491167,38.56
897,1.492833,38.568
898,1.4945,38.56
899,1.496167,38.563
900,1.497833,38.563
901,1.4995,38.563
902,1.501183,38.538
903,1.502817,38.522
904,1.504483,38.522
905,1.50615,38.527
906,1.507817,38.525
907,1.509483,38.522
908,1.51115,38.522
909,1.512817,38.522
910,1.514483,38.495
911,1.51615,38.476
912,1.517817,38.476
913,1.519483,38.499
914,1.52115,38.501
915,1.522817,38.501
916,1.524483,38.54
917,1.52615,38.54
918,1.527817,38.543
919,1.529483,38.543
920,1.53115,38.559
921,1.532817,38.552
922,1.534483,38.566
923,1.536167,38.566
924,1.537817,38.563
925,1.539483,38.555
926,1.54115,38.522
927,1.542817,38.522
928,1.544483,38.505
929,1.5462,38.489
930,1.547817,38.489
931,1.549483,38.491
932,1.55115,38.522
933,1.552817,38.546
934,1.554483,38.546
935,1.55615,38.557
936,1.557817,38.538
937,1.559483,38.518
938,1.561133,38.518
939,1.56285,38.49
940,1.564467,38.487
941,1.566133,38.514
942,1.567833,38.514
943,1.569467,38.514
944,1.571133,38.504
945,1.5728,38.504
946,1.574467,38.49
947,1.576133,38.473
948,1.5778,38.476
949,1.5796,38.476
950,1.581133,38.505
951,1.5828,38.503
952,1.584467,38.478
953,1.586133,38.478
954,1.5878,38.457
955,1.589467,38.467
956,1.591133,38.481
957,1.5928,38.481
958,1.594467,38.505
959,1.596133,38.532
960,1.5978,38.497
961,1.599467,38.497
962,1.601133,38.447
963,1.6028,38.432
964,1.604467,38.432
965,1.606133,38.394
966,1.6078,38.397
967,1.609467,38.437
968,1.611133,38.437
969,1.6128,38.435
970,1.614467,38.445
971,1.616133,38.443
972,1.6178,38.443
973,1.619467,38.407
974,1.621133,38.373
975,1.622783,38.362
976,1.62445,38.362
977,1.626117,38.364
978,1.627783,38.4
979,1.62945,38.4
980,1.631117,38.424
981,1.632783,38.448
982,1.63445,38.44
983,1.63615,38.44
984,1.637783,38.426
985,1.63945,38.417
986,1.641117,38.394
987,1.642783,38.394
988,1.64445,38.376
989,1.646117,38.403
990,1.647783,38.411
991,1.64945,38.411
992,1.651117,38.428
993,1.652783,38.451
994,1.65445,38.393
995,1.656117,38.393
996,1.657783,38.363
997,1.65945,38.314
998,1.661117,38.314
999,1.662783,38.303
1000,1.6645,38.329
1001,1.666117,38.351
1002,1.667783,38.351
1003,1.66945,38.376
1004,1.671117,38.392
1005,1.672783,38.397
