"ID","sea_time","fid_signal"
1,0,140.488
2,0.001667,140.488
3,0.003333,140.354
4,0.005,140.429
5,0.006667,140.429
6,0.008333,140.712
7,0.010117,140.928
8,0.011667,140.831
9,0.013333,140.831
10,0.015,140.719
11,0.016667,140.712
12,0.018333,140.756
13,0.02,140.756
14,0.021667,140.57
15,0.023333,140.674
16,0.025,140.473
17,0.02665,140.473
18,0.028317,140.63
19,0.029983,140.779
20,0.03165,140.779
21,0.03335,140.429
22,0.034983,140.533
23,0.03665,140.414
24,0.038317,140.414
25,0.039983,140.689
26,0.04165,140.995
27,0.043317,141.136
28,0.044983,141.136
29,0.04665,141.151
30,0.048317,140.876
31,0.049983,140.861
32,0.05165,140.861
33,0.053317,140.682
34,0.054983,140.734
35,0.05665,140.674
36,0.058317,140.674
37,0.059983,140.466
38,0.06165,140.376
39,0.063317,140.376
40,0.064983,140.317
41,0.06665,140.496
42,0.068317,140.823
43,0.069983,140.823
44,0.07165000000000001,140.697
45,0.07331699999999999,140.674
46,0.07498299999999999,140.719
47,0.07665,140.719
48,0.078317,140.578
49,0.079983,140.563
50,0.08165,140.481
51,0.083317,140.481
52,0.084983,140.227
53,0.08665,140.168
54,0.0883,140.168
55,0.08998299999999999,140.436
56,0.09163300000000001,140.533
57,0.09329999999999999,140.779
58,0.09505,140.779
59,0.096633,140.712
60,0.0983,140.749
61,0.1,141.002
62,0.101633,141.002
63,0.1033,141.01
64,0.104967,141.047
65,0.106633,140.794
66,0.1083,140.794
67,0.109967,140.287
68,0.11165,140.19
69,0.1133,140.183
70,0.114967,140.183
71,0.116633,140.361
72,0.1183,140.6
73,0.119967,140.6
74,0.121633,140.674
75,0.1233,140.734
76,0.124967,140.645
77,0.126633,140.645
78,0.128417,140.429
79,0.129967,140.414
80,0.131633,140.361
81,0.1333,140.361
82,0.134967,140.138
83,0.136633,140.533
84,0.1383,140.749
85,0.139967,140.749
86,0.141633,140.786
87,0.1433,141.457
88,0.144967,141.457
89,0.146633,141.405
90,0.148283,141.092
91,0.14995,141.405
92,0.151617,141.405
93,0.153283,140.943
94,0.15495,140.89
95,0.156617,140.749
96,0.158283,140.749
97,0.15995,140.235
98,0.161617,140.235
99,0.163283,140.108
100,0.16495,140.108
101,0.166617,140.22
102,0.168283,140.384
103,0.16995,140.384
104,0.17165,140.406
105,0.173283,140.376
106,0.17495,140.779
107,0.176617,140.779
108,0.178283,140.928
109,0.17995,141.129
110,0.181617,141.196
111,0.183283,141.196
112,0.18495,140.846
113,0.186617,140.883
114,0.188283,140.905
115,0.18995,140.905
116,0.191617,140.756
117,0.193283,140.935
118,0.19495,140.786
119,0.196617,140.786
120,0.198283,140.682
121,0.19995,140.689
122,0.201617,140.689
123,0.203283,140.607
124,0.20495,140.652
125,0.206617,140.637
126,0.208267,140.637
127,0.209933,140.525
128,0.2116,140.168
129,0.213267,140.049
130,0.214933,140.049
131,0.2166,140.056
132,0.218267,140.168
133,0.219933,140.622
134,0.2216,140.622
135,0.223267,140.451
136,0.224933,140.145
137,0.2266,140.145
138,0.228267,140.525
139,0.229933,140.436
140,0.2316,140.756
141,0.233267,140.756
142,0.234933,140.987
143,0.2366,140.823
144,0.238267,140.853
145,0.239933,140.853
146,0.2416,140.913
147,0.243267,140.868
148,0.244933,140.637
149,0.246717,140.637
150,0.248267,140.756
151,0.249933,140.831
152,0.2516,140.958
153,0.253267,140.958
154,0.254933,141.054
155,0.2566,140.943
156,0.258267,140.943
157,0.259933,140.697
158,0.2616,140.667
159,0.263267,140.727
160,0.264933,140.727
161,0.2666,140.63
162,0.26825,140.51
163,0.269917,140.592
164,0.271583,140.592
165,0.27325,140.89
166,0.274917,141.114
167,0.276583,141.621
168,0.27825,141.621
169,0.279917,141.807
170,0.281567,142.373
171,0.283233,142.373
172,0.2849,143.439
173,0.286567,144.921
174,0.288233,147.156
175,0.2899,147.156
176,0.291567,150.01
177,0.293233,153.78
178,0.2949,158.757
179,0.296567,158.757
180,0.298233,165.947
181,0.2999,175.126
182,0.301567,187.218
183,0.303233,187.218
184,0.3049,202.753
185,0.306567,221.32
186,0.308233,243.679
187,0.3099,243.679
188,0.311583,270.3
189,0.313233,301.629
190,0.3149,301.629
191,0.316567,338.092
192,0.31825,380.546
193,0.319917,428.669
194,0.321567,428.669
195,0.323233,482.433
196,0.3249,542.201
197,0.32655,607.6319999999999
198,0.328217,607.6319999999999
199,0.329883,678.6660000000001
200,0.33155,755.712
201,0.333217,837.7430000000001
202,0.334883,837.7430000000001
203,0.33655,924.99
204,0.338217,1017.101
205,0.339883,1017.101
206,0.34155,1113.236
207,0.343217,1214.139
208,0.344883,1318.991
209,0.34655,1318.991
210,0.348217,1427.844
211,0.349883,1540.579
212,0.35155,1657.166
213,0.353217,1657.166
214,0.354883,1777.574
215,0.35655,1901.776
216,0.358217,2030.067
217,0.359883,2030.067
218,0.36155,2162.427
219,0.363217,2299.346
220,0.364983,2441.481
221,0.36655,2441.481
222,0.368217,2588.786
223,0.369883,2741.948
224,0.37155,2741.948
225,0.373217,2900.839
226,0.374883,3065.638
227,0.37655,3237.456
228,0.378217,3237.456
229,0.379883,3417.313
230,0.38155,3606.133
231,0.383217,3805.757
232,0.384883,3805.757
233,0.38655,4016.832
234,0.3882,4240.542
235,0.3899,4478.47
236,0.391533,4478.47
237,0.3932,4731.96
238,0.394867,5003.259
239,0.396533,5003.259
240,0.3982,5293.25
241,0.399867,5604.304
242,0.401533,5937.263
243,0.4032,5937.263
244,0.404867,6292.574
245,0.406533,6670.482
246,0.4082,7069.193
247,0.409867,7069.193
248,0.411533,7487.029
249,0.4132,7920.101
250,0.414867,8363.537
251,0.416533,8363.537
252,0.4182,8811.146000000001
253,0.419867,9254.403
254,0.421533,9254.403
255,0.4232,9684.734
256,0.424867,10092.095
257,0.426533,10466.076
258,0.4282,10466.076
259,0.429867,10796.234
260,0.431533,11072.024
261,0.4332,11285.134
262,0.434867,11285.134
263,0.436533,11428.08
264,0.4382,11495.382
265,0.439867,11484.37
266,0.441533,11484.37
267,0.4432,11393.771
268,0.444867,11224.464
269,0.446517,10980.346
270,0.448183,10980.346
271,0.44985,10667.175
272,0.451517,10292.031
273,0.453183,10292.031
274,0.45485,9863.883
275,0.456517,9392.566999999999
276,0.458217,8887.82
277,0.45985,8887.82
278,0.461517,8359.148999999999
279,0.463183,7816.307
280,0.46485,7267.87
281,0.466583,7267.87
282,0.468183,6721.258
283,0.46985,6183.84
284,0.471517,5662.24
285,0.473183,5662.24
286,0.47485,5161.181
287,0.476517,4685.566
288,0.478183,4685.566
289,0.47985,4238.337
290,0.481517,3820.978
291,0.483283,3434.241
292,0.48485,3434.241
293,0.486517,3078.222
294,0.488183,2752.736
295,0.48985,2456.754
296,0.491517,2456.754
297,0.493183,2189.845
298,0.49485,1950.026
299,0.496517,1735.747
300,0.498183,1735.747
301,0.49985,1544.818
302,0.501517,1375.31
303,0.503183,1225.39
304,0.50485,1225.39
305,0.506517,1093.149
306,0.508167,976.9349999999999
307,0.509833,976.9349999999999
308,0.5115,874.713
309,0.513167,785.12
310,0.514833,706.732
311,0.5165,706.732
312,0.518167,638.247
313,0.519833,578.4930000000001
314,0.5215,526.167
315,0.523167,526.167
316,0.524833,480.585
317,0.5265,441
318,0.5281670000000001,406.28
319,0.52985,406.28
320,0.5315,376.12
321,0.5331669999999999,349.492
322,0.534833,349.492
323,0.5365,326.142
324,0.538167,305.943
325,0.539833,288.606
326,0.5415,288.606
327,0.543167,273.608
328,0.544833,260.174
329,0.546517,248.313
330,0.548167,248.313
331,0.549833,237.882
332,0.5515,228.621
333,0.553167,220.791
334,0.554833,220.791
335,0.5565,213.973
336,0.558167,207.849
337,0.559833,207.849
338,0.5615,202.477
339,0.563167,197.537
340,0.564833,193.246
341,0.5665,193.246
342,0.568217,189.133
343,0.569817,185.288
344,0.571483,182.234
345,0.573133,182.234
346,0.5748,179.417
347,0.576467,177.503
348,0.578133,175.349
349,0.5798,175.349
350,0.581467,173.39
351,0.583133,171.617
352,0.584917,169.478
353,0.586467,169.478
354,0.588133,168.256
355,0.5898,167.012
356,0.591467,167.012
357,0.593133,165.91
358,0.5948,164.971
359,0.596467,163.838
360,0.598133,163.838
361,0.5998,162.765
362,0.601533,161.953
363,0.603133,161.089
364,0.6048,161.089
365,0.606467,160.456
366,0.608133,159.912
367,0.6098,159.249
368,0.611467,159.249
369,0.613133,158.921
370,0.6148,158.362
371,0.616467,158.362
372,0.618133,157.639
373,0.6198,157.081
374,0.621467,156.35
375,0.623133,156.35
376,0.6248,156.127
377,0.626467,155.993
378,0.628117,155.509
379,0.629783,155.509
380,0.63145,155.397
381,0.633117,155.039
382,0.634783,154.51
383,0.63645,154.51
384,0.638117,154.309
385,0.639783,153.817
386,0.64145,153.169
387,0.643117,153.169
388,0.644783,152.849
389,0.64645,152.402
390,0.6481170000000001,152.402
391,0.649783,152.037
392,0.65145,151.85
393,0.6531169999999999,151.493
394,0.654783,151.493
395,0.65645,151.344
396,0.658117,150.993
397,0.659783,150.524
398,0.661483,150.524
399,0.663117,150.524
400,0.664783,150.204
401,0.66645,149.921
402,0.668117,149.921
403,0.669783,150.122
404,0.67145,149.779
405,0.673117,149.779
406,0.674783,149.533
407,0.67645,149.57
408,0.678117,149.645
409,0.679783,149.645
410,0.68145,149.608
411,0.683117,149.615
412,0.684783,149.541
413,0.68645,149.541
414,0.6881,148.967
415,0.689767,149.116
416,0.691433,149.325
417,0.6931,149.325
418,0.694767,149.235
419,0.696433,149.146
420,0.6981000000000001,148.579
421,0.699767,148.579
422,0.701433,147.983
423,0.703183,148.132
424,0.704767,148.132
425,0.706433,148.162
426,0.7081,148.46
427,0.709767,148.676
428,0.711433,148.676
429,0.7131,148.326
430,0.714767,148.371
431,0.716433,148.05
432,0.7181,148.05
433,0.7198329999999999,147.931
434,0.72145,147.834
435,0.7231,147.484
436,0.7247670000000001,147.484
437,0.726433,147.335
438,0.7281,147.209
439,0.7297670000000001,147.209
440,0.731433,147.164
441,0.7331,147.484
442,0.7347669999999999,147.73
443,0.736433,147.73
444,0.7381,147.618
445,0.739767,147.44
446,0.741433,147.372
447,0.743117,147.372
448,0.744783,147.097
449,0.746417,147.097
450,0.7480830000000001,147.149
451,0.74975,147.149
452,0.751417,146.769
453,0.7530829999999999,146.531
454,0.75475,146.531
455,0.756417,146.538
456,0.758083,146.456
457,0.75975,146.665
458,0.761417,146.665
459,0.763083,146.836
460,0.76475,146.605
461,0.766417,146.657
462,0.768083,146.657
463,0.76975,146.359
464,0.771417,146.158
465,0.773083,145.935
466,0.77475,145.935
467,0.776417,145.718
468,0.778083,145.584
469,0.7797500000000001,145.413
470,0.781417,145.413
471,0.783083,145.569
472,0.7847499999999999,145.376
473,0.786417,145.376
474,0.788083,145.338
475,0.78975,145.353
476,0.791417,145.525
477,0.793083,145.525
478,0.79475,145.413
479,0.796417,145.51
480,0.798083,145.599
481,0.79975,145.599
482,0.801417,145.428
483,0.803083,145.547
484,0.804817,145.689
485,0.8064170000000001,145.689
486,0.808083,145.413
487,0.809733,145.175
488,0.8114,145.175
489,0.813067,145.197
490,0.814733,144.802
491,0.8164,144.877
492,0.818067,144.877
493,0.819733,144.832
494,0.8214669999999999,144.765
495,0.823067,144.579
496,0.824733,144.579
497,0.8264,144.318
498,0.828067,144.31
499,0.8297330000000001,143.938
500,0.8314,143.938
501,0.833067,144.079
502,0.8347329999999999,144.161
503,0.8364,144.146
504,0.8381,144.146
505,0.839733,144.504
506,0.8414,144.37
507,0.843067,144.37
508,0.844733,144.541
509,0.8464,144.511
510,0.848067,144.273
511,0.849733,144.273
512,0.8514,144.236
513,0.853067,143.796
514,0.85485,143.67
515,0.8564000000000001,143.67
516,0.858067,143.729
517,0.859733,143.908
518,0.8614000000000001,144.154
519,0.863067,144.154
520,0.864717,144.109
521,0.866367,143.915
522,0.8680330000000001,143.915
523,0.8697,143.625
524,0.871367,143.513
525,0.8730329999999999,143.565
526,0.8747,143.565
527,0.876367,143.632
528,0.878033,143.588
529,0.8797,143.521
530,0.881383,143.521
531,0.883033,143.245
532,0.8847,143.126
533,0.886367,143.141
534,0.888033,143.141
535,0.8897,143.476
536,0.891367,143.796
537,0.893033,144.079
538,0.8947000000000001,144.079
539,0.896383,144.035
540,0.898033,143.632
541,0.8997000000000001,143.632
542,0.901367,143.051
543,0.903033,142.775
544,0.904717,142.857
545,0.906367,142.857
546,0.908033,142.828
547,0.9097,143.178
548,0.911367,143.208
549,0.913033,143.208
550,0.9147,143.237
551,0.916367,143.327
552,0.918033,143.185
553,0.9197,143.185
554,0.921367,143.386
555,0.923033,143.379
556,0.9247,143.379
557,0.9263670000000001,143.386
558,0.928017,143.409
559,0.929683,143.021
560,0.93135,143.021
561,0.933017,142.932
562,0.934683,142.902
563,0.93635,143.223
564,0.938017,143.223
565,0.93975,143.707
566,0.94135,143.684
567,0.943017,143.647
568,0.9446830000000001,143.647
569,0.94635,143.439
570,0.948017,143.014
571,0.9496830000000001,143.014
572,0.95135,142.999
573,0.953017,142.992
574,0.9546829999999999,142.895
575,0.956383,142.895
576,0.958017,142.768
577,0.959683,142.731
578,0.96135,142.656
579,0.963017,142.656
580,0.964683,142.552
581,0.96635,142.753
582,0.968017,142.589
583,0.969683,142.589
584,0.97135,142.559
585,0.9731,142.612
586,0.974683,142.351
587,0.9763500000000001,142.351
588,0.978017,142.664
589,0.979683,142.641
590,0.9813499999999999,142.641
591,0.983017,142.82
592,0.984683,143.044
593,0.986333,142.813
594,0.988,142.813
595,0.989667,142.902
596,0.991333,142.768
597,0.993017,142.507
598,0.994667,142.507
599,0.996333,142.641
600,0.998,142.574
601,0.999667,142.53
602,1.001333,142.53
603,1.003,142.775
604,1.004667,142.492
605,1.006333,142.492
606,1.008,142.559
607,1.009667,142.567
608,1.011333,142.395
609,1.013,142.395
610,1.014667,142.612
611,1.016333,142.679
612,1.018,142.746
613,1.019667,142.746
614,1.021333,142.604
615,1.023,142.284
616,1.024667,142.224
617,1.026333,142.224
618,1.028,142.179
619,1.029667,142.321
620,1.031333,142.701
621,1.033,142.701
622,1.034667,142.589
623,1.036333,142.835
624,1.038,142.835
625,1.039667,143.006
626,1.041333,142.887
627,1.043,142.783
628,1.044667,142.783
629,1.046333,142.589
630,1.047983,142.708
631,1.04965,142.723
632,1.051317,142.723
633,1.052983,142.895
634,1.05465,142.746
635,1.056317,142.619
636,1.05805,142.619
637,1.05965,142.91
638,1.061317,143.021
639,1.062983,143.021
640,1.06465,142.865
641,1.066317,142.537
642,1.067983,142.179
643,1.06965,142.179
644,1.071317,141.881
645,1.072983,141.986
646,1.07465,142.187
647,1.076317,142.187
648,1.077983,142.224
649,1.07965,142.165
650,1.081317,142.306
651,1.082983,142.306
652,1.08465,142.157
653,1.086317,142.336
654,1.087983,142.5
655,1.08965,142.5
656,1.091433,142.232
657,1.092983,142.507
658,1.09465,142.507
659,1.096317,142.008
660,1.097983,141.777
661,1.09965,141.703
662,1.101317,141.703
663,1.102983,141.628
664,1.10465,142.075
665,1.1063,142.418
666,1.107967,142.418
667,1.109633,142.604
668,1.1113,142.522
669,1.112967,142.254
670,1.114633,142.254
671,1.1163,142.224
672,1.117967,142.023
673,1.119633,142.023
674,1.1213,142.075
675,1.122967,142.239
676,1.12465,142.15
677,1.1263,142.15
678,1.127967,142.425
679,1.129633,142.492
680,1.1313,142.381
681,1.132967,142.381
682,1.134633,142.179
683,1.1363,141.956
684,1.137967,141.74
685,1.139633,141.74
686,1.1413,141.926
687,1.142967,141.896
688,1.144633,142.217
689,1.1463,142.217
690,1.147967,142.276
691,1.149633,142.12
692,1.1513,142.12
693,1.152967,142.366
694,1.154633,142.261
695,1.156283,142.008
696,1.15795,142.008
697,1.159617,141.814
698,1.161283,141.643
699,1.16295,141.688
700,1.164633,141.688
701,1.166267,142.016
702,1.167933,142.097
703,1.1696,142.016
704,1.171267,142.016
705,1.172933,141.919
706,1.1746,141.896
707,1.176333,141.896
708,1.177933,141.807
709,1.1796,141.867
710,1.181267,141.904
711,1.182933,141.904
712,1.1846,141.606
713,1.186267,141.65
714,1.187933,141.77
715,1.1896,141.77
716,1.191267,141.807
717,1.192933,142.023
718,1.1946,142.016
719,1.196267,142.016
720,1.197933,142.135
721,1.1996,141.986
722,1.201267,141.986
723,1.202933,141.971
724,1.2046,142.127
725,1.206267,142.097
726,1.207933,142.097
727,1.209717,142.172
728,1.211267,142.03
729,1.212933,142.03
730,1.2146,142.03
731,1.216267,141.665
732,1.217933,141.382
733,1.2196,141.576
734,1.221267,141.576
735,1.222933,141.568
736,1.2246,141.636
737,1.22625,142.016
738,1.227917,142.016
739,1.229583,141.643
740,1.23125,141.665
741,1.232917,141.665
742,1.234583,141.762
743,1.236267,141.479
744,1.237967,141.926
745,1.239583,141.926
746,1.24125,141.717
747,1.242917,141.74
748,1.244583,141.881
749,1.24625,141.881
750,1.247917,141.874
751,1.249583,141.993
752,1.25125,142.097
753,1.252917,142.097
754,1.254583,141.926
755,1.25625,141.74
756,1.257917,141.74
757,1.259583,141.822
758,1.26125,141.658
759,1.262917,141.494
760,1.264583,141.494
761,1.26625,141.323
762,1.267917,141.263
763,1.269583,141.539
764,1.27125,141.539
765,1.272917,142.023
766,1.274583,142.485
767,1.27625,142.395
768,1.277917,142.395
769,1.279583,142.224
770,1.28125,142.016
771,1.282917,141.755
772,1.284583,141.755
773,1.286233,141.926
774,1.2879,141.948
775,1.289567,141.948
776,1.291233,141.814
777,1.2929,141.844
778,1.294633,141.807
779,1.296233,141.807
780,1.2979,141.591
781,1.299583,141.606
782,1.301233,141.762
783,1.3029,141.762
784,1.304583,141.449
785,1.306233,141.777
786,1.3079,141.695
787,1.309567,141.695
788,1.31125,141.487
789,1.3129,141.591
790,1.314567,141.591
791,1.316233,141.434
792,1.3179,141.74
793,1.319567,141.799
794,1.321233,141.799
795,1.3229,141.948
796,1.324567,142.246
797,1.326233,142.053
798,1.328017,142.053
799,1.329567,141.926
800,1.331233,142.135
801,1.3329,142.12
802,1.334567,142.12
803,1.336233,142.388
804,1.3379,142.314
805,1.339567,142.314
806,1.341233,141.911
807,1.3429,141.576
808,1.344567,141.323
809,1.346217,141.323
810,1.347883,141.36
811,1.34955,141.397
812,1.351217,141.434
813,1.352883,141.434
814,1.35455,141.74
815,1.356217,141.628
816,1.357883,141.382
817,1.35955,141.382
818,1.361217,141.203
819,1.362883,140.741
820,1.36455,140.95
821,1.366217,140.95
822,1.367883,141.516
823,1.36955,141.636
824,1.371217,141.636
825,1.372883,141.799
826,1.37455,141.725
827,1.376233,141.39
828,1.377883,141.39
829,1.37955,141.293
830,1.381217,141.39
831,1.382883,141.457
832,1.38455,141.457
833,1.386217,141.457
834,1.387883,141.352
835,1.38955,141.248
836,1.391217,141.248
837,1.392883,141.151
838,1.39455,141.315
839,1.396217,141.315
840,1.397883,141.516
841,1.39955,141.375
842,1.401217,141.397
843,1.402883,141.397
844,1.40455,141.278
845,1.4062,141.166
846,1.407867,141.449
847,1.409533,141.449
848,1.4112,141.591
849,1.4129,141.501
850,1.414533,141.457
851,1.4162,141.457
852,1.417867,141.196
853,1.419533,141.099
854,1.4212,141.136
855,1.422867,141.136
856,1.424533,141.442
857,1.4262,141.777
858,1.427867,141.777
859,1.42965,141.71
860,1.4312,141.814
861,1.432867,141.643
862,1.434533,141.643
863,1.4362,141.39
864,1.437867,141.375
865,1.439533,141.621
866,1.4412,141.621
867,1.442867,141.39
868,1.444533,141.658
869,1.44625,141.822
870,1.44785,141.822
871,1.449517,141.405
872,1.451183,141.531
873,1.45285,141.531
874,1.454517,141.308
875,1.456183,141.099
876,1.45785,141.054
877,1.459517,141.054
878,1.461183,141.256
879,1.46285,141.196
880,1.464517,141.159
881,1.466167,141.159
882,1.467833,141.107
883,1.4695,140.95
884,1.471167,140.898
885,1.472833,140.898
886,1.474517,141.256
887,1.476167,141.688
888,1.477833,141.881
889,1.4795,141.881
890,1.481167,141.896
891,1.482833,141.77
892,1.484517,141.77
893,1.486167,141.494
894,1.487833,141.308
895,1.4895,141.308
896,1.491167,141.308
897,1.492833,141.375
898,1.4945,141.636
899,1.496167,141.636
900,1.497833,141.636
901,1.4995,141.896
902,1.501167,141.792
903,1.502833,141.658
904,1.5045,141.658
905,1.506167,141.941
906,1.507833,141.852
907,1.5095,141.852
908,1.511167,141.591
909,1.512833,141.442
910,1.5145,140.861
911,1.516167,140.861
912,1.51785,140.727
913,1.5195,141.01
914,1.521167,141.159
915,1.522833,141.159
916,1.524483,141.33
917,1.52615,141.606
918,1.527817,141.494
919,1.529483,141.494
920,1.531167,141.256
921,1.532817,141.315
922,1.534483,141.315
923,1.53615,141.062
924,1.537817,141.047
925,1.539483,141.107
926,1.54115,141.107
927,1.542817,140.95
928,1.544483,140.958
929,1.54615,141.039
930,1.547917,141.039
931,1.549483,141.196
932,1.55115,141.494
933,1.552817,141.487
934,1.554483,141.487
935,1.55615,141.524
936,1.557817,141.494
937,1.559483,141.345
938,1.56115,141.345
939,1.562817,141.323
940,1.56455,141.181
941,1.56615,141.181
942,1.567817,141.166
943,1.569483,141.293
944,1.57115,141.531
945,1.572817,141.531
946,1.574483,141.479
947,1.57615,141.829
948,1.577817,141.703
949,1.579483,141.703
950,1.58125,141.338
951,1.582817,141.352
952,1.584483,140.928
953,1.586133,140.928
954,1.5878,140.682
955,1.589467,140.712
956,1.591133,140.712
