"ID","sea_time","fid_signal"
1,0,1170.635
2,0.001667,1167.432
3,0.003317,1166.835
4,0.004983,1164.451
5,0.006667,1164.451
6,0.008317,1168.177
7,0.009983000000000001,1166.239
8,0.01165,1168.773
9,0.013317,1168.773
10,0.014983,1167.432
11,0.016667,1166.91
12,0.018317,1168.177
13,0.019983,1168.177
14,0.02165,1168.326
15,0.023433,1170.784
16,0.024983,1170.784
17,0.02665,1168.922
18,0.028317,1169.741
19,0.029983,1167.357
20,0.03165,1167.357
21,0.033317,1164.675
22,0.034983,1162.663
23,0.03665,1162.365
24,0.038317,1162.365
25,0.039983,1165.792
26,0.04165,1168.027
27,0.043317,1169.89
28,0.044983,1169.89
29,0.04665,1170.114
30,0.048333,1168.475
31,0.049983,1168.475
32,0.05165,1169.816
33,0.053317,1171.753
34,0.054983,1174.212
35,0.05665,1174.212
36,0.058317,1175.478
37,0.059983,1175.255
38,0.06165,1175.553
39,0.0633,1175.553
40,0.064967,1173.541
41,0.066633,1170.933
42,0.0683,1168.102
43,0.069967,1168.102
44,0.071633,1166.686
45,0.0733,1166.91
46,0.07496700000000001,1166.91
47,0.07663300000000001,1168.4
48,0.07829999999999999,1168.996
49,0.079967,1169.667
50,0.081633,1169.667
51,0.0833,1169.294
52,0.084967,1169.592
53,0.08666699999999999,1169.145
54,0.0883,1169.145
55,0.08996700000000001,1167.059
56,0.09163300000000001,1167.282
57,0.09329999999999999,1165.271
58,0.094967,1165.271
59,0.096633,1166.686
60,0.0983,1168.177
61,0.099967,1167.208
62,0.101633,1167.208
63,0.1033,1166.612
64,0.104967,1166.686
65,0.106633,1166.686
66,0.10835,1167.953
67,0.109967,1168.4
68,0.111633,1167.432
69,0.1133,1167.432
70,0.114967,1167.432
71,0.116633,1165.569
72,0.1183,1168.624
73,0.119967,1168.624
74,0.121633,1172.125
75,0.123283,1172.498
76,0.12495,1171.678
77,0.126617,1171.678
78,0.128283,1168.549
79,0.12995,1165.345
80,0.131617,1165.345
81,0.133283,1164.228
82,0.13495,1166.165
83,0.136617,1165.271
84,0.138283,1165.271
85,0.13995,1168.027
86,0.14175,1170.412
87,0.143283,1167.58
88,0.14495,1167.58
89,0.146617,1168.847
90,0.148283,1168.251
91,0.14995,1166.612
92,0.151617,1166.612
93,0.153283,1170.635
94,0.15495,1169.592
95,0.156617,1168.251
96,0.158283,1168.251
97,0.15995,1169.592
98,0.161617,1165.643
99,0.1633,1165.643
100,0.16495,1166.239
101,0.166617,1166.016
102,0.168283,1165.271
103,0.16995,1165.271
104,0.171617,1165.42
105,0.173283,1164.749
106,0.17495,1165.718
107,0.176617,1165.718
108,0.178283,1163.632
109,0.17995,1162.961
110,0.181617,1163.632
111,0.183267,1163.632
112,0.184933,1161.769
113,0.1866,1163.259
114,0.188267,1163.259
115,0.189933,1167.655
116,0.1916,1172.051
117,0.19325,1174.063
118,0.194917,1174.063
119,0.196583,1172.572
120,0.19825,1169.965
121,0.199917,1165.718
122,0.201583,1165.718
123,0.20325,1164.6
124,0.204917,1164.749
125,0.206583,1164.228
126,0.20825,1164.228
127,0.209917,1163.855
128,0.211583,1164.302
129,0.21325,1165.718
130,0.214917,1165.718
131,0.216583,1169.145
132,0.21825,1169.89
133,0.219917,1169.89
134,0.221583,1173.466
135,0.223267,1174.807
136,0.224917,1173.094
137,0.22665,1173.094
138,0.22825,1174.882
139,0.229917,1170.561
140,0.2316,1167.58
141,0.23325,1167.58
142,0.234917,1167.58
143,0.236583,1168.549
144,0.238267,1169.071
145,0.239917,1169.071
146,0.241583,1168.549
147,0.24335,1167.282
148,0.2449,1167.282
149,0.246567,1163.93
150,0.248233,1166.537
151,0.2499,1167.655
152,0.251567,1167.655
153,0.253233,1167.059
154,0.2549,1168.475
155,0.256567,1168.177
156,0.258233,1168.177
157,0.260017,1169.22
158,0.261567,1169.443
159,0.263233,1167.729
160,0.2649,1167.729
161,0.266567,1166.761
162,0.268233,1166.761
163,0.2699,1166.761
164,0.271567,1165.569
165,0.273233,1166.463
166,0.2749,1167.729
167,0.276667,1167.729
168,0.278233,1168.177
169,0.2799,1172.423
170,0.281567,1173.765
171,0.283233,1173.765
172,0.2849,1174.733
173,0.286567,1173.913
174,0.288233,1174.584
175,0.2899,1174.584
176,0.291567,1182.333
177,0.293233,1192.763
178,0.2949,1208.559
179,0.296567,1208.559
180,0.298233,1225.62
181,0.2999,1244.769
182,0.30155,1244.769
183,0.303217,1262.948
184,0.304883,1291.111
185,0.30655,1327.023
186,0.308217,1327.023
187,0.309883,1368.746
188,0.31155,1423.88
189,0.313233,1480.207
190,0.314933,1480.207
191,0.31655,1548.678
192,0.318217,1624.972
193,0.319883,1711.547
194,0.32155,1711.547
195,0.323217,1812.354
196,0.324883,1917.481
197,0.32655,1917.481
198,0.328217,2034.53
199,0.329883,2161.935
200,0.33155,2295.449
201,0.333217,2295.449
202,0.334883,2442.151
203,0.33655,2594.516
204,0.338217,2752.021
205,0.339883,2752.021
206,0.34155,2916.381
207,0.343217,3090.054
208,0.344883,3271.848
209,0.34655,3271.848
210,0.348217,3458.857
211,0.349883,3654.361
212,0.35155,3852.695
213,0.353217,3852.695
214,0.354883,4059.672
215,0.35655,4273.504
216,0.358217,4273.504
217,0.359883,4493.296
218,0.361583,4719.421
219,0.3632,4953.071
220,0.364867,4953.071
221,0.366533,5197.301
222,0.3682,5452.484
223,0.369867,5719.364
224,0.371533,5719.364
225,0.3732,5996.674
226,0.374867,6289.333
227,0.376533,6599.203
228,0.378317,6599.203
229,0.379867,6924.644
230,0.381533,7274.449
231,0.3832,7274.449
232,0.384867,7653.981
233,0.386533,8068.904
234,0.388233,8530.84
235,0.3899,8530.84
236,0.391533,9048.432000000001
237,0.3932,9633.079
238,0.394967,10298.192
239,0.396533,10298.192
240,0.3982,11058.45
241,0.399867,11928.678
242,0.401533,12922.734
243,0.4032,12922.734
244,0.404867,14059.171
245,0.406533,15350.506
246,0.4082,16808.436
247,0.409867,16808.436
248,0.411533,18432.363
249,0.4132,20220.801
250,0.414867,20220.801
251,0.416533,22165.553
252,0.4182,24237.855
253,0.419867,26418.492
254,0.421533,26418.492
255,0.423183,28658.137
256,0.42485,30905.232
257,0.426517,33100.246
258,0.428183,33100.246
259,0.42985,35173.668
260,0.431517,37061.496
261,0.433183,38700.105
262,0.43485,38700.105
263,0.436517,40037.41
264,0.438183,41025.801
265,0.43985,41025.801
266,0.441517,41638.539
267,0.443183,41852.445
268,0.44485,41663.496
269,0.446517,41663.496
270,0.448183,41078.402
271,0.44985,40120.332
272,0.451533,38830.637
273,0.453183,38830.637
274,0.45485,37257.82
275,0.456517,35460.07
276,0.4582,33492.594
277,0.45985,33492.594
278,0.461517,31410.902
279,0.463183,29266.775
280,0.46485,27103.572
281,0.466517,27103.572
282,0.468183,24967.789
283,0.46985,22891.461
284,0.471517,22891.461
285,0.473183,20902.23
286,0.47485,19021.332
287,0.476517,17256.141
288,0.478183,17256.141
289,0.479867,15615.97
290,0.481517,14100
291,0.483167,12709.573
292,0.484817,12709.573
293,0.486483,11441.484
294,0.48815,10290.295
295,0.489817,9249.374
296,0.491483,9249.374
297,0.49315,8311.421
298,0.494817,7473.082
299,0.49655,7473.082
300,0.49815,6721.467
301,0.499817,6055.385
302,0.501483,5465.374
303,0.50315,5465.374
304,0.504817,4940.48
305,0.506483,4476.532
306,0.50815,4068.539
307,0.509817,4068.539
308,0.511483,3712.922
309,0.51325,3401.861
310,0.514817,3129.914
311,0.516483,3129.914
312,0.51815,2891.272
313,0.519817,2679.974
314,0.521483,2679.974
315,0.52315,2495.572
316,0.524817,2338.588
317,0.526483,2199.56
318,0.52815,2199.56
319,0.529817,2078.936
320,0.531483,1969.785
321,0.533183,1874.343
322,0.534833,1874.343
323,0.536483,1791.641
324,0.53815,1717.955
325,0.539817,1659.021
326,0.541483,1659.021
327,0.543133,1605.079
328,0.5448,1558.587
329,0.546467,1519.024
330,0.548133,1519.024
331,0.5498,1483.56
332,0.551467,1452.491
333,0.553133,1452.491
334,0.5548,1426.563
335,0.556467,1402.572
336,0.558133,1382.455
337,0.5598,1382.455
338,0.561467,1363.605
339,0.563133,1345.873
340,0.5648,1330.525
341,0.5664670000000001,1330.525
342,0.568133,1317.859
343,0.5698,1309.216
344,0.5714669999999999,1301.691
345,0.573133,1301.691
346,0.5748,1294.985
347,0.576467,1286.194
348,0.578133,1286.194
349,0.5798,1275.018
350,0.581467,1266.077
351,0.583133,1259.819
352,0.5848,1259.819
353,0.586467,1255.348
354,0.588133,1251.698
355,0.5898,1247.6
356,0.591467,1247.6
357,0.593133,1242.682
358,0.5948,1238.063
359,0.596467,1236.2
360,0.598133,1236.2
361,0.5998,1233.071
362,0.601467,1230.463
363,0.603133,1229.346
364,0.604817,1229.346
365,0.6065,1227.111
366,0.608117,1223.907
367,0.609783,1223.907
368,0.61145,1221.895
369,0.613117,1218.393
370,0.6148,1216.233
371,0.6164500000000001,1216.233
372,0.618117,1216.978
373,0.619783,1216.605
374,0.6214499999999999,1215.562
375,0.623117,1215.562
376,0.624783,1213.104
377,0.626467,1212.284
378,0.628117,1210.123
379,0.629783,1210.123
380,0.6315499999999999,1207.069
381,0.633117,1206.547
382,0.634783,1206.547
383,0.63645,1201.779
384,0.638117,1200.214
385,0.639783,1199.767
386,0.64145,1199.767
387,0.643117,1197.979
388,0.644783,1201.555
389,0.64645,1205.206
390,0.6481170000000001,1205.206
391,0.649783,1206.92
392,0.65145,1207.218
393,0.6531169999999999,1203.641
394,0.654783,1203.641
395,0.65645,1198.724
396,0.658117,1198.053
397,0.659783,1198.053
398,0.66145,1198.5
399,0.6631,1196.414
400,0.664767,1193.956
401,0.6664330000000001,1193.956
402,0.6681,1192.54
403,0.669767,1190.677
404,0.6714329999999999,1192.316
405,0.6731,1192.316
406,0.674767,1194.85
407,0.676433,1193.732
408,0.6781,1195.297
409,0.679767,1195.297
410,0.681433,1195.893
411,0.6831,1197.01
412,0.684767,1196.489
413,0.686433,1196.489
414,0.688117,1195.446
415,0.689767,1192.987
416,0.691433,1192.987
417,0.6931,1189.113
418,0.694767,1190.305
419,0.696433,1187.772
420,0.6981000000000001,1187.772
421,0.699767,1187.995
422,0.701433,1187.846
423,0.7030999999999999,1186.058
424,0.704767,1186.058
425,0.706433,1187.25
426,0.7081,1185.313
427,0.709767,1185.76
428,0.711433,1185.76
429,0.7131,1184.046
430,0.714767,1182.482
431,0.716517,1184.493
432,0.7181,1184.493
433,0.719767,1187.697
434,0.721433,1189.932
435,0.723083,1189.932
436,0.72475,1189.932
437,0.726417,1189.336
438,0.728083,1184.791
439,0.72975,1184.791
440,0.731417,1184.344
441,0.733083,1185.164
442,0.73475,1184.046
443,0.736417,1184.046
444,0.738083,1186.132
445,0.73975,1183.376
446,0.741417,1184.866
447,0.743083,1184.866
448,0.74475,1187.772
449,0.746417,1185.76
450,0.7480830000000001,1185.76
451,0.74985,1189.262
452,0.751417,1188.666
453,0.7530829999999999,1185.834
454,0.75475,1185.834
455,0.756417,1185.238
456,0.758083,1182.482
457,0.75975,1181.215
458,0.761417,1181.215
459,0.763083,1182.482
460,0.76475,1184.046
461,0.766417,1186.505
462,0.768083,1186.505
463,0.76975,1184.642
464,0.771417,1186.281
465,0.773083,1186.281
466,0.77475,1186.952
467,0.7764,1185.089
468,0.778067,1186.43
469,0.779733,1186.43
470,0.7814,1183.972
471,0.783067,1182.184
472,0.784717,1182.929
473,0.7863830000000001,1182.929
474,0.78805,1184.046
475,0.789717,1183.376
476,0.7913829999999999,1183.078
477,0.79305,1183.078
478,0.794717,1180.396
479,0.796383,1178.905
480,0.79805,1179.278
481,0.799717,1179.278
482,0.8014,1177.117
483,0.80305,1178.235
484,0.804717,1178.235
485,0.806383,1179.278
486,0.80805,1177.49
487,0.809717,1179.725
488,0.811383,1179.725
489,0.813067,1180.47
490,0.814717,1179.576
491,0.816383,1180.619
492,0.8180500000000001,1180.619
493,0.819717,1181.439
494,0.821383,1182.631
495,0.8230499999999999,1181.29
496,0.824717,1181.29
497,0.826383,1179.948
498,0.82805,1180.172
499,0.829717,1180.172
500,0.831383,1174.36
501,0.83305,1174.435
502,0.834717,1177.266
503,0.836383,1177.266
504,0.83805,1175.553
505,0.839717,1176.298
506,0.841383,1175.18
507,0.843033,1175.18
508,0.8447,1174.435
509,0.846367,1173.019
510,0.848033,1175.404
511,0.8497,1175.404
512,0.851367,1176.67
513,0.853033,1177.937
514,0.854733,1177.937
515,0.856367,1179.725
516,0.858033,1177.49
517,0.8597,1177.639
518,0.861367,1177.639
519,0.8630330000000001,1175.702
520,0.8647,1174.063
521,0.866367,1176.67
522,0.868133,1176.67
523,0.8697,1179.129
524,0.871367,1180.321
525,0.8730329999999999,1181.886
526,0.8747,1181.886
527,0.876367,1180.917
528,0.878033,1179.054
529,0.8797,1174.36
530,0.881367,1174.36
531,0.883033,1174.212
532,0.8847,1176.968
533,0.886367,1176.968
534,0.888033,1177.043
535,0.8897,1179.874
536,0.891367,1178.831
537,0.893033,1178.831
538,0.8947000000000001,1176.67
539,0.896367,1175.776
540,0.898033,1176.67
541,0.8997000000000001,1176.67
542,0.901367,1178.905
543,0.903033,1180.321
544,0.904683,1177.192
545,0.90635,1177.192
546,0.908017,1174.659
547,0.909683,1174.807
548,0.91135,1174.807
549,0.913017,1170.784
550,0.914683,1174.957
551,0.91635,1176.596
552,0.918017,1176.596
553,0.919683,1173.69
554,0.92135,1175.851
555,0.923017,1173.988
556,0.924683,1173.988
557,0.92635,1173.69
558,0.928017,1175.478
559,0.929683,1178.458
560,0.93135,1178.458
561,0.933017,1178.533
562,0.934683,1179.725
563,0.93635,1176.223
564,0.938017,1176.223
565,0.939683,1168.847
566,0.94135,1169.369
567,0.943017,1169.369
568,0.9446830000000001,1166.314
569,0.94635,1166.984
570,0.948017,1169.145
571,0.9496830000000001,1169.145
572,0.95135,1166.239
573,0.953067,1168.027
574,0.9546829999999999,1171.306
575,0.95635,1171.306
576,0.958017,1174.659
577,0.959683,1176.521
578,0.96135,1176
579,0.963,1176
580,0.9646670000000001,1176.894
581,0.966333,1175.702
582,0.968,1175.702
583,0.9696669999999999,1175.255
584,0.971333,1172.572
585,0.973,1168.624
586,0.974667,1168.624
587,0.976333,1167.506
588,0.978,1168.698
589,0.979667,1174.063
590,0.981333,1174.063
591,0.983,1176.447
592,0.984667,1174.659
593,0.98645,1171.976
594,0.988,1171.976
595,0.989667,1167.655
596,0.991333,1166.984
597,0.993,1169.667
598,0.994667,1169.667
599,0.996333,1172.572
600,0.998,1174.882
601,0.999667,1174.882
602,1.001333,1177.341
603,1.003,1176.596
604,1.004667,1174.435
605,1.006333,1174.435
606,1.008,1174.733
607,1.009667,1171.008
608,1.011333,1171.604
609,1.013,1171.604
610,1.014667,1171.902
611,1.016333,1168.475
612,1.018,1169.816
613,1.019667,1169.816
614,1.021333,1170.188
615,1.022983,1170.337
616,1.024683,1170.337
617,1.026317,1171.976
618,1.027983,1169.816
619,1.029667,1167.432
620,1.031317,1167.432
621,1.033,1169.965
622,1.03465,1171.678
623,1.036317,1174.36
624,1.037983,1174.36
625,1.03965,1175.702
626,1.041317,1174.435
627,1.042983,1175.776
628,1.04465,1175.776
629,1.046317,1175.627
630,1.047983,1175.553
631,1.04965,1174.659
632,1.051317,1174.659
633,1.052983,1170.784
634,1.05465,1167.953
635,1.056317,1167.953
636,1.057983,1168.549
637,1.05965,1169.22
638,1.061317,1170.933
639,1.062983,1170.933
640,1.06465,1171.604
641,1.0663,1173.541
642,1.067967,1171.902
643,1.069633,1171.902
644,1.071333,1172.125
645,1.072967,1172.87
646,1.074633,1170.933
647,1.0763,1170.933
648,1.077967,1171.529
649,1.079633,1169.667
650,1.081283,1169.667
651,1.08295,1168.549
652,1.084617,1171.231
653,1.086283,1174.137
654,1.08795,1174.137
655,1.089617,1175.478
656,1.091283,1177.937
657,1.09295,1176.67
658,1.094617,1176.67
659,1.096283,1171.753
660,1.097983,1171.753
661,1.099617,1168.326
662,1.101283,1168.326
663,1.10295,1167.506
664,1.1047,1169.294
665,1.106283,1169.294
666,1.10795,1170.263
667,1.109617,1172.051
668,1.111283,1170.486
669,1.11295,1170.486
670,1.114617,1173.913
671,1.116283,1172.349
672,1.11795,1172.87
673,1.119617,1172.87
674,1.1214,1171.604
675,1.12295,1169.443
676,1.124617,1172.423
677,1.126283,1172.423
678,1.12795,1173.69
679,1.129617,1177.117
680,1.131283,1175.031
681,1.13295,1175.031
682,1.134617,1174.51
683,1.136283,1174.584
684,1.13795,1174.584
685,1.139617,1173.839
686,1.141283,1175.255
687,1.14295,1172.721
688,1.1446,1172.721
689,1.146267,1174.286
690,1.147933,1173.317
691,1.1496,1174.286
692,1.151267,1174.286
693,1.152933,1172.945
694,1.1546,1169.145
695,1.156267,1170.933
696,1.157933,1170.933
697,1.1596,1173.392
698,1.161267,1175.18
699,1.162933,1175.18
700,1.1646,1177.49
701,1.166283,1175.702
702,1.167933,1172.274
703,1.1696,1172.274
704,1.171267,1175.776
705,1.172933,1174.063
706,1.1746,1177.266
707,1.176267,1177.266
708,1.177933,1178.235
709,1.1796,1175.031
710,1.181283,1176.223
711,1.182933,1176.223
712,1.1846,1174.807
713,1.186267,1173.094
714,1.187933,1173.317
715,1.1896,1173.317
716,1.191267,1171.082
717,1.192933,1169.443
718,1.1946,1169.443
719,1.196267,1172.945
720,1.197933,1171.753
721,1.1996,1172.498
722,1.201267,1172.498
723,1.202917,1171.231
724,1.2046,1167.208
725,1.20635,1168.475
726,1.207917,1168.475
727,1.209583,1169.22
728,1.21125,1171.753
729,1.212917,1173.541
730,1.214583,1173.541
731,1.21625,1175.255
732,1.217917,1173.243
733,1.219583,1173.243
734,1.22125,1172.647
735,1.223,1174.063
736,1.224583,1172.796
737,1.22625,1172.796
738,1.227917,1175.776
739,1.229583,1172.125
740,1.23125,1169.22
741,1.232917,1169.22
742,1.234583,1169.294
743,1.23625,1168.624
744,1.237917,1171.976
745,1.2397,1171.976
746,1.24125,1172.572
747,1.242917,1171.902
748,1.244583,1172.2
749,1.24625,1172.2
750,1.247917,1171.008
751,1.249583,1170.114
752,1.25125,1170.114
753,1.252917,1172.498
754,1.254583,1170.561
755,1.25625,1168.996
756,1.257917,1168.996
757,1.259583,1168.773
758,1.26125,1164.898
759,1.262917,1163.11
760,1.264567,1163.11
761,1.266233,1163.483
762,1.2679,1165.643
763,1.269567,1168.475
764,1.271233,1168.475
765,1.272917,1172.125
766,1.274567,1175.255
767,1.276233,1175.255
768,1.2779,1173.466
769,1.279567,1170.412
770,1.281233,1170.71
771,1.2829,1170.71
772,1.284567,1170.635
773,1.286233,1169.071
774,1.2879,1171.455
775,1.289567,1171.455
776,1.291233,1171.604
777,1.2929,1172.051
778,1.294567,1173.765
779,1.296233,1173.765
780,1.2979,1174.435
781,1.299567,1171.976
782,1.301233,1171.976
783,1.3029,1167.655
784,1.304567,1170.71
785,1.306233,1171.976
786,1.3079,1171.976
787,1.309567,1174.807
788,1.311233,1175.255
789,1.3129,1171.604
790,1.314567,1171.604
791,1.316233,1165.941
792,1.3179,1164.6
793,1.319567,1164.451
794,1.321233,1164.451
795,1.322883,1164.079
796,1.3246,1167.357
797,1.326217,1165.792
798,1.327883,1165.792
799,1.32955,1164.675
800,1.331217,1164.6
801,1.332883,1164.6
802,1.33455,1166.239
803,1.336217,1169.145
804,1.337883,1174.286
805,1.33955,1174.286
806,1.341233,1174.584
807,1.342883,1171.306
808,1.34455,1167.804
809,1.346217,1167.804
810,1.347883,1166.09
811,1.34955,1165.718
812,1.351217,1167.506
813,1.352883,1167.506
814,1.35455,1167.506
815,1.356217,1167.059
816,1.357967,1167.059
817,1.359533,1167.059
818,1.3612,1165.047
819,1.362867,1164.6
820,1.364533,1164.6
821,1.3662,1164.228
822,1.367867,1168.698
823,1.369533,1172.125
824,1.3712,1172.125
825,1.372867,1172.572
826,1.374533,1169.592
827,1.3762,1165.047
828,1.377867,1165.047
829,1.379533,1161.322
830,1.3812,1163.93
831,1.38285,1167.357
832,1.384517,1167.357
833,1.386217,1168.549
834,1.3879,1167.953
835,1.389517,1167.953
836,1.391183,1168.326
837,1.39285,1170.039
838,1.394517,1169.816
839,1.396183,1169.816
840,1.39785,1171.38
841,1.399517,1171.306
842,1.401183,1168.326
843,1.40285,1168.326
844,1.404517,1171.678
845,1.406183,1173.094
846,1.40785,1172.721
847,1.409517,1172.721
848,1.411183,1174.212
849,1.41285,1173.243
850,1.414517,1173.243
851,1.416183,1173.615
852,1.41785,1174.584
853,1.419517,1174.51
854,1.421183,1174.51
855,1.42285,1171.529
856,1.424517,1172.423
857,1.426183,1172.423
858,1.42785,1172.423
859,1.429533,1171.604
860,1.431183,1172.051
861,1.432867,1169.518
862,1.434517,1169.518
863,1.436183,1168.996
864,1.43785,1172.051
865,1.439517,1172.051
866,1.441183,1176.968
867,1.44285,1176.298
868,1.4445,1175.702
869,1.446167,1175.702
870,1.447833,1171.827
871,1.4495,1167.729
872,1.451167,1170.114
873,1.452883,1170.114
874,1.4545,1170.784
875,1.456167,1173.168
876,1.457833,1172.87
877,1.4595,1172.87
878,1.461167,1168.996
879,1.462833,1167.208
880,1.4645,1168.996
881,1.466167,1168.996
882,1.467833,1170.784
883,1.4695,1174.212
884,1.471167,1174.212
885,1.472833,1174.584
886,1.4745,1171.902
887,1.476267,1168.177
888,1.477833,1168.177
889,1.4795,1167.879
890,1.481167,1167.879
891,1.482833,1169.22
892,1.4845,1169.22
893,1.486167,1170.635
894,1.487833,1171.902
895,1.4895,1171.604
896,1.491167,1171.604
897,1.492833,1171.157
898,1.4945,1172.87
899,1.496167,1172.87
900,1.497833,1171.455
901,1.4995,1170.412
902,1.501167,1167.506
903,1.502817,1167.506
904,1.504483,1166.686
905,1.50615,1164.302
906,1.507817,1164.675
907,1.509483,1164.675
908,1.51115,1168.4
909,1.512817,1167.282
910,1.514483,1168.326
911,1.51615,1168.326
912,1.517817,1168.251
913,1.519483,1167.282
914,1.52115,1167.729
915,1.522817,1167.729
916,1.524483,1167.879
917,1.52615,1167.133
918,1.527817,1167.133
919,1.529483,1167.059
920,1.53115,1166.537
