"ID","sea_time","fid_signal"
1,0,141.121
2,0.001667,141.01
3,0.003333,140.741
4,0.005,140.741
5,0.006667,140.592
6,0.008333,140.436
7,0.01,140.019
8,0.011667,140.019
9,0.013333,139.9
10,0.015117,139.81
11,0.016667,139.929
12,0.018333,139.929
13,0.02,140.399
14,0.021667,140.876
15,0.023333,141.121
16,0.025,141.121
17,0.026667,141.174
18,0.028333,141.382
19,0.03,141.107
20,0.031667,141.107
21,0.033333,140.905
22,0.035,140.794
23,0.036667,140.794
24,0.038333,140.332
25,0.039983,140.429
26,0.04165,140.429
27,0.043317,140.429
28,0.044983,140.488
29,0.04665,140.578
30,0.048317,140.414
31,0.049983,140.414
32,0.05165,140.57
33,0.053317,140.652
34,0.054983,140.809
35,0.056667,140.809
36,0.058383,140.868
37,0.059983,140.972
38,0.06165,140.972
39,0.063333,140.868
40,0.064983,140.853
41,0.06665,140.995
42,0.068317,140.995
43,0.069983,140.943
44,0.07165000000000001,140.823
45,0.07331699999999999,140.995
46,0.07498299999999999,140.995
47,0.07665,140.935
48,0.078317,140.667
49,0.079983,140.443
50,0.08165,140.443
51,0.083317,140.257
52,0.084983,140.183
53,0.08665,140.525
54,0.08831700000000001,140.525
55,0.08998299999999999,140.823
56,0.09165,140.697
57,0.093317,140.697
58,0.094983,140.801
59,0.09665,140.578
60,0.098317,140.823
61,0.10005,140.823
62,0.101633,140.868
63,0.1033,140.704
64,0.104967,140.928
65,0.106633,140.928
66,0.1083,140.652
67,0.10995,140.555
68,0.111617,140.384
69,0.113283,140.384
70,0.11495,140.518
71,0.116667,140.548
72,0.118283,140.548
73,0.11995,140.6
74,0.121617,140.995
75,0.123283,140.652
76,0.124983,140.652
77,0.126617,140.585
78,0.128283,140.585
79,0.12995,140.585
80,0.131617,140.585
81,0.133383,140.66
82,0.13495,140.823
83,0.136617,140.771
84,0.138283,140.771
85,0.13995,140.622
86,0.141617,140.488
87,0.143283,140.488
88,0.14495,140.414
89,0.146617,140.28
90,0.148283,140.25
91,0.14995,140.25
92,0.151617,140.309
93,0.153283,140.116
94,0.15495,140.175
95,0.156617,140.175
96,0.158283,140.22
97,0.15995,140.443
98,0.1616,140.667
99,0.163267,140.667
100,0.164933,140.786
101,0.1666,140.592
102,0.168267,140.272
103,0.169933,140.272
104,0.1716,140.317
105,0.173267,140.429
106,0.174933,140.429
107,0.1766,140.928
108,0.178267,141.121
109,0.179933,141.062
110,0.1816,141.062
111,0.183267,140.913
112,0.184933,140.779
113,0.1866,140.682
114,0.188267,140.682
115,0.189933,140.913
116,0.191617,141.121
117,0.193267,140.756
118,0.194933,140.756
119,0.1966,140.809
120,0.198267,140.503
121,0.199933,140.503
122,0.2016,140.421
123,0.203267,140.645
124,0.204933,140.749
125,0.2066,140.749
126,0.208267,140.876
127,0.209933,140.622
128,0.2116,140.615
129,0.213267,140.615
130,0.214933,140.54
131,0.2166,140.399
132,0.218317,140.652
133,0.219933,140.652
134,0.221583,140.54
135,0.22325,140.265
136,0.224917,140.376
137,0.226583,140.376
138,0.22825,140.309
139,0.229917,140.525
140,0.231583,140.525
141,0.23325,140.846
142,0.234917,140.816
143,0.236583,140.943
144,0.238267,140.943
145,0.239917,141.039
146,0.241583,140.838
147,0.24325,140.563
148,0.244917,140.563
149,0.246583,140.25
150,0.24825,140.138
151,0.249917,140.041
152,0.251667,140.041
153,0.25325,140.361
154,0.254917,140.704
155,0.256583,140.704
156,0.25825,140.339
157,0.259917,140.645
158,0.261583,140.63
159,0.26325,140.63
160,0.264917,140.503
161,0.266583,140.853
162,0.268267,140.578
163,0.269917,140.578
164,0.271583,140.25
165,0.27325,140.108
166,0.274917,139.624
167,0.276583,139.624
168,0.278233,139.587
169,0.2799,139.87
170,0.281567,139.87
171,0.283233,140.138
172,0.2849,140.607
173,0.286567,140.868
174,0.288233,140.868
175,0.2899,140.965
176,0.2916,140.846
177,0.293233,140.436
178,0.2949,140.436
179,0.296567,139.944
180,0.298233,139.661
181,0.2999,139.661
182,0.301567,139.661
183,0.303233,139.944
184,0.3049,140.138
185,0.306567,140.019
186,0.308233,140.019
187,0.3099,140.078
188,0.311567,140.466
189,0.313233,140.466
190,0.3149,140.727
191,0.316567,140.861
192,0.318233,140.652
193,0.3199,140.652
194,0.321567,140.406
195,0.323233,140.257
196,0.3249,140.332
197,0.326567,140.332
198,0.328233,140.756
199,0.3299,140.764
200,0.331567,140.987
201,0.333233,140.987
202,0.3349,141.136
203,0.33665,140.615
204,0.338233,140.615
205,0.3399,140.28
206,0.34155,140.28
207,0.343217,140.242
208,0.344883,140.242
209,0.34655,140.555
210,0.348217,140.719
211,0.349883,140.756
212,0.35155,140.756
213,0.353317,140.503
214,0.354883,140.585
215,0.35655,140.853
216,0.358217,140.853
217,0.359883,140.868
218,0.36155,141.345
219,0.363217,141.434
220,0.364883,141.434
221,0.36655,141.732
222,0.368217,142.53
223,0.369983,143.23
224,0.37155,143.23
225,0.373217,144.042
226,0.374883,145.137
227,0.37655,145.137
228,0.378217,146.054
229,0.379883,147.291
230,0.38155,148.945
231,0.383217,148.945
232,0.384883,150.718
233,0.386667,153.214
234,0.388217,156.321
235,0.389883,156.321
236,0.39155,160.433
237,0.393217,165.254
238,0.394883,165.254
239,0.39655,170.797
240,0.398217,177.465
241,0.39985,184.633
242,0.401517,184.633
243,0.403183,192.896
244,0.40485,202.365
245,0.406517,212.938
246,0.408183,212.938
247,0.40985,224.881
248,0.411533,238.277
249,0.413233,252.664
250,0.41485,252.664
251,0.416517,268.05
252,0.418183,285.074
253,0.41985,303.179
254,0.421517,303.179
255,0.423183,323.05
256,0.42485,344.269
257,0.426517,344.269
258,0.428183,366.569
259,0.42985,390.351
260,0.431517,415.243
261,0.433183,415.243
262,0.43485,441.648
263,0.436517,469.431
264,0.438183,498.429
265,0.43985,498.429
266,0.441517,529.14
267,0.443183,561.1849999999999
268,0.44485,594.787
269,0.446517,594.787
270,0.448183,629.671
271,0.44985,665.963
272,0.451517,665.963
273,0.453183,704.765
274,0.4549,746.2430000000001
275,0.456517,791.684
276,0.458183,791.684
277,0.45985,841.454
278,0.4615,896.953
279,0.463167,960.074
280,0.464833,960.074
281,0.4665,1032.74
282,0.468167,1118.131
283,0.469833,1218.952
284,0.471567,1218.952
285,0.473167,1338.534
286,0.474833,1480.87
287,0.4765,1480.87
288,0.478167,1650.073
289,0.479833,1850.583
290,0.4815,2086.088
291,0.483167,2086.088
292,0.484833,2360.702
293,0.4865,2677.426
294,0.488233,3038.399
295,0.489833,3038.399
296,0.4915,3445.595
297,0.493167,3899.246
298,0.494833,4398.919
299,0.4965,4398.919
300,0.498167,4943.646
301,0.499833,5531.899
302,0.5014999999999999,6160.937
303,0.503167,6160.937
304,0.5049670000000001,6828.122
305,0.5065,7529.788
306,0.508167,7529.788
307,0.509833,8261.748
308,0.5115,9020.217000000001
309,0.513167,9800.754999999999
310,0.514833,9800.754999999999
311,0.5165,10598.958
312,0.518167,11410.661
313,0.519817,12230.918
314,0.521483,12230.918
315,0.52315,13055.146
316,0.524817,13878.442
317,0.526483,14694.825
318,0.52815,14694.825
319,0.529817,15498.817
320,0.531483,16283.766
321,0.53315,16283.766
322,0.534817,17041.779
323,0.536483,17765.553
324,0.53815,18445.998
325,0.539817,18445.998
326,0.541483,19073.137
327,0.54315,19636.221
328,0.544817,20121.887
329,0.5465,20121.887
330,0.54815,20515.51
331,0.549817,20801.693
332,0.5515,20963.684
333,0.55315,20963.684
334,0.554817,20985.209
335,0.5564829999999999,20850.121
336,0.55815,20545.273
337,0.559817,20545.273
338,0.561483,20064.465
339,0.56315,19408.412
340,0.564817,19408.412
341,0.566483,18589.52
342,0.56815,17628.326
343,0.569817,16553.484
344,0.571483,16553.484
345,0.57315,15400.343
346,0.574817,14205.419
347,0.576483,13005.175
348,0.5781500000000001,13005.175
349,0.579817,11830.948
350,0.581467,10707.535
351,0.583133,9653.188
352,0.5848,9653.188
353,0.586467,8678.593000000001
354,0.588133,7789.679
355,0.5899,6986.692
356,0.591467,6986.692
357,0.593133,6266.549
358,0.5948,5624.823
359,0.596467,5624.823
360,0.598133,5054.235
361,0.5998,4548.49
362,0.601467,4100.837
363,0.603133,4100.837
364,0.6048,3704.391
365,0.6065,3353.625
366,0.608133,3042.914
367,0.6098,3042.914
368,0.611467,2767.339
369,0.613133,2522.536
370,0.6148,2304.673
371,0.616467,2304.673
372,0.618133,2110.385
373,0.6198,1936.778
374,0.621467,1936.778
375,0.62325,1781.605
376,0.6248,1642.607
377,0.626467,1517.929
378,0.6281330000000001,1517.929
379,0.629833,1406.021
380,0.631467,1305.17
381,0.6331329999999999,1214.161
382,0.6348,1214.161
383,0.636467,1131.706
384,0.638133,1057.304
385,0.6398,989.8920000000001
386,0.641467,989.8920000000001
387,0.643117,928.521
388,0.644783,872.955
389,0.64645,872.955
390,0.6481170000000001,822.186
391,0.649783,775.926
392,0.65145,733.756
393,0.6531169999999999,733.756
394,0.654783,695.0940000000001
395,0.65645,660.039
396,0.658117,627.518
397,0.659783,627.518
398,0.66145,597.5890000000001
399,0.663117,570.364
400,0.664783,544.98
401,0.66645,544.98
402,0.668117,521.846
403,0.669783,500.478
404,0.67145,480.972
405,0.673117,480.972
406,0.674783,462.919
407,0.67645,446.118
408,0.678117,446.118
409,0.679783,431.158
410,0.68145,416.517
411,0.683117,403.307
412,0.684783,403.307
413,0.68645,390.954
414,0.688117,378.914
415,0.689783,368.23
416,0.69145,368.23
417,0.6931,358.06
418,0.694767,349.03
419,0.696433,340.641
420,0.6981000000000001,340.641
421,0.699767,333.034
422,0.701417,325.471
423,0.703117,325.471
424,0.7048,318.259
425,0.706417,311.77
426,0.7081,305.489
427,0.70975,305.489
428,0.711417,299.767
429,0.713083,294.581
430,0.71475,289.53
431,0.716417,289.53
432,0.718083,284.806
433,0.71975,280.291
434,0.721417,275.798
435,0.723083,275.798
436,0.7247670000000001,271.812
437,0.726417,267.975
438,0.728083,267.975
439,0.72975,264.369
440,0.731417,261.001
441,0.733083,257.514
442,0.73475,257.514
443,0.736417,254.199
444,0.738083,251.137
445,0.73975,248.052
446,0.741517,248.052
447,0.743083,245.437
448,0.74475,242.576
449,0.746417,239.879
450,0.7480830000000001,239.879
451,0.74975,237.428
452,0.751417,234.85
453,0.7530829999999999,232.644
454,0.75475,232.644
455,0.756417,230.372
456,0.758067,228.234
457,0.759733,228.234
458,0.7614,225.931
459,0.7630670000000001,223.86
460,0.764733,221.811
461,0.7664,221.811
462,0.7681,219.867
463,0.769733,218.041
464,0.7714,216.126
465,0.7730669999999999,216.126
466,0.774733,214.614
467,0.7764,213.102
468,0.778067,211.939
469,0.779733,211.939
470,0.7814,210.732
471,0.783067,209.339
472,0.784733,209.339
473,0.7864,207.879
474,0.788067,206.269
475,0.789733,204.593
476,0.7914,204.593
477,0.793083,203.192
478,0.794733,202.067
479,0.7964,200.756
480,0.798067,200.756
481,0.799733,199.683
482,0.8014,198.573
483,0.803067,197.113
484,0.804733,197.113
485,0.8064,195.913
486,0.808067,194.997
487,0.809733,193.849
488,0.8114,193.849
489,0.813067,192.977
490,0.814733,192.031
491,0.8164,192.031
492,0.818067,190.862
493,0.819717,190.206
494,0.821383,189.044
495,0.8230499999999999,189.044
496,0.824717,188.425
497,0.826383,188.038
498,0.82805,187.002
499,0.829717,187.002
500,0.831383,186.451
501,0.83305,185.4
502,0.834717,184.253
503,0.836383,184.253
504,0.83805,183.62
505,0.839717,182.733
506,0.841383,182.733
507,0.84305,182.107
508,0.8447170000000001,181.69
509,0.846383,181.042
510,0.84805,181.042
511,0.8497169999999999,180.781
512,0.851383,180.028
513,0.85305,179.283
514,0.8547169999999999,179.283
515,0.856383,178.605
516,0.85805,177.965
517,0.859833,177.518
518,0.861383,177.518
519,0.86305,176.728
520,0.864717,176.162
521,0.866383,175.379
522,0.86805,175.379
523,0.869733,174.932
524,0.871383,174.88
525,0.87305,174.88
526,0.874717,174.738
527,0.876383,174.373
528,0.87805,173.964
529,0.879717,173.964
530,0.881367,173.427
531,0.883067,172.608
532,0.8847,172.272
533,0.886367,172.272
534,0.888033,171.818
535,0.8897,171.289
536,0.891367,171.043
537,0.893033,171.043
538,0.8947000000000001,170.678
539,0.896367,170.589
540,0.898033,170.589
541,0.8997000000000001,170.127
542,0.901367,169.821
543,0.903033,169.27
544,0.9046999999999999,169.27
545,0.906367,168.554
546,0.908033,168.219
547,0.909717,167.817
548,0.911367,167.817
549,0.913033,167.467
550,0.9147,167.37
551,0.916367,167.012
552,0.918033,167.012
553,0.9197,166.789
554,0.921367,166.64
555,0.923033,166.64
556,0.9247,166.237
557,0.9263670000000001,166.178
558,0.928033,166.133
559,0.9297,166.133
560,0.9313669999999999,165.708
561,0.933033,165.425
562,0.9347,165.164
563,0.9363669999999999,165.164
564,0.938033,164.464
565,0.939683,164.427
566,0.94135,164.263
567,0.943017,164.263
568,0.944767,164.136
569,0.94635,163.883
570,0.948017,163.525
571,0.9496830000000001,163.525
572,0.95135,163.339
573,0.953017,163.019
574,0.9546829999999999,163.019
575,0.95635,163.049
576,0.958017,163.123
577,0.959683,163.116
578,0.961417,163.116
579,0.963017,162.743
580,0.964683,162.378
581,0.96635,161.946
582,0.968017,161.946
583,0.969683,161.707
584,0.97135,161.767
585,0.973017,161.715
586,0.974683,161.715
587,0.9763500000000001,161.596
588,0.978117,161.037
589,0.979683,161.037
590,0.9813499999999999,160.582
591,0.983,160.307
592,0.984667,160.031
593,0.986333,160.031
594,0.9880330000000001,160.053
595,0.989667,159.845
596,0.991333,159.822
597,0.993,159.822
598,0.994667,159.688
599,0.996333,159.346
600,0.998,159.509
601,0.99965,159.509
602,1.001317,159.219
603,1.002983,159.383
604,1.00465,159.428
605,1.006317,159.428
606,1.007983,158.988
607,1.00965,158.787
608,1.011317,158.787
609,1.012983,158.273
610,1.01465,158.168
611,1.016317,158.116
612,1.017983,158.116
613,1.01965,158.049
614,1.021317,157.863
615,1.022983,157.565
616,1.02465,157.565
617,1.026317,157.177
618,1.027983,157.133
619,1.02965,157.245
620,1.031317,157.245
621,1.032983,157.155
622,1.03465,157.006
623,1.036317,157.006
624,1.037983,156.865
625,1.03965,156.775
626,1.041317,156.581
627,1.042983,156.581
628,1.0447,156.544
629,1.046317,156.358
630,1.047983,156.075
631,1.04965,156.075
632,1.051317,156.075
633,1.053,156.052
634,1.05465,155.799
635,1.056317,155.799
636,1.057983,155.583
637,1.059633,155.546
638,1.0613,155.546
639,1.06305,155.613
640,1.064633,155.441
641,1.0663,155.278
642,1.067967,155.278
643,1.069633,155.017
644,1.0713,154.95
645,1.072967,154.749
646,1.074633,154.749
647,1.0763,154.801
648,1.077967,154.756
649,1.079717,154.443
650,1.0813,154.443
651,1.082967,154.488
652,1.084633,154.376
653,1.0863,154.257
654,1.087967,154.257
655,1.089633,154.331
656,1.0913,154.376
657,1.092967,154.376
658,1.094633,154.316
659,1.096417,153.951
660,1.097967,153.504
661,1.099633,153.504
662,1.1013,153.273
663,1.102967,153.005
664,1.104633,153.027
665,1.1063,153.027
666,1.107967,152.975
667,1.109633,153.184
668,1.1113,153.318
669,1.112967,153.318
670,1.114633,153.624
671,1.1163,153.594
672,1.117967,153.594
673,1.119617,153.258
674,1.121283,153.348
675,1.12295,152.968
676,1.124617,152.968
677,1.126283,152.953
678,1.128,153.147
679,1.129667,152.811
680,1.131283,152.811
681,1.13295,152.841
682,1.134617,153.095
683,1.136283,152.864
684,1.13795,152.864
685,1.139617,152.558
686,1.141283,152.133
687,1.14295,151.813
688,1.144617,151.813
689,1.146283,151.463
690,1.14795,151.56
691,1.149617,151.56
692,1.151283,151.768
693,1.15295,151.642
694,1.154617,151.642
695,1.156283,151.642
696,1.15795,151.359
697,1.159617,151.239
698,1.161283,151.023
699,1.16295,151.023
700,1.164617,151.277
701,1.166283,151.701
702,1.16795,151.895
703,1.169617,151.895
704,1.171283,151.984
705,1.17295,151.463
706,1.174617,151.463
707,1.176283,150.919
708,1.17795,150.457
709,1.179617,150.338
710,1.1813,150.338
711,1.182933,150.509
712,1.1846,150.561
713,1.186267,150.591
714,1.187933,150.591
715,1.1896,150.703
716,1.191267,150.658
717,1.192933,150.725
718,1.19465,150.725
719,1.196267,151.008
720,1.198017,150.859
721,1.1996,150.859
722,1.201267,150.859
723,1.202933,150.986
724,1.2046,150.8
725,1.206267,150.8
726,1.207933,150.904
727,1.2096,150.688
728,1.211267,150.569
729,1.212933,150.569
730,1.214683,150.725
731,1.216267,150.718
732,1.217933,150.822
733,1.2196,150.822
734,1.221267,150.569
735,1.222933,150.114
736,1.2246,149.891
737,1.226267,149.891
738,1.227933,149.868
739,1.2296,149.906
740,1.231367,150.211
741,1.232933,150.211
742,1.2346,150.07
743,1.236267,150.107
744,1.237933,150.107
745,1.239583,150.092
746,1.24125,149.675
747,1.242917,149.533
748,1.244583,149.533
749,1.24625,149.265
750,1.247917,149.138
751,1.249583,149.004
752,1.25125,149.004
753,1.252917,149.198
754,1.254583,149.332
755,1.25625,149.332
756,1.257917,149.332
757,1.259583,149.272
758,1.26125,149.19
759,1.262917,149.19
760,1.264583,149.198
761,1.26625,149.176
762,1.267917,149.235
763,1.269583,149.235
764,1.27125,149.071
765,1.272933,148.87
766,1.274567,148.863
767,1.276233,148.863
768,1.2779,148.647
769,1.279567,148.326
770,1.281233,148.222
771,1.2829,148.222
772,1.284567,148.222
773,1.286233,148.691
774,1.2879,148.691
775,1.289567,148.863
776,1.291233,148.676
777,1.2929,148.527
778,1.294567,148.527
779,1.296233,148.17
780,1.2979,148.207
781,1.299567,148.289
782,1.301217,148.289
783,1.302883,148.371
784,1.30455,148.721
785,1.306217,148.669
786,1.307883,148.669
787,1.30955,148.632
788,1.311217,148.378
789,1.312883,148.378
790,1.31455,148.281
791,1.316283,148.17
792,1.317883,148.155
793,1.31955,148.155
794,1.321217,147.961
795,1.322883,147.574
796,1.32455,147.827
797,1.326217,147.827
798,1.327883,147.671
799,1.32955,148.08
800,1.331217,148.326
801,1.332983,148.326
802,1.33455,148.058
803,1.336217,148.237
804,1.337883,148.14
805,1.33955,148.14
806,1.341217,147.76
807,1.342883,147.894
808,1.34455,147.894
809,1.346217,147.618
810,1.347883,147.544
811,1.349667,147.671
812,1.351217,147.671
813,1.352883,147.447
814,1.35455,147.663
815,1.356217,147.752
816,1.357883,147.752
817,1.35955,147.805
818,1.3612,148.17
819,1.362867,148.289
820,1.364533,148.289
821,1.3662,148.363
822,1.367867,148.177
823,1.369533,148.177
824,1.3712,148.036
825,1.372867,147.879
826,1.374533,147.559
827,1.3762,147.559
828,1.377867,147.678
829,1.379533,147.335
830,1.3812,147.082
831,1.382867,147.082
832,1.384533,147.328
833,1.3862,147.246
834,1.387867,147.149
835,1.389533,147.149
836,1.3912,147.365
837,1.392867,147.216
838,1.394533,147.074
839,1.3962,147.074
840,1.397867,147.127
841,1.399533,147.112
842,1.4012,147.112
843,1.402867,146.963
844,1.404533,147.216
845,1.4062,147.238
846,1.407867,147.238
847,1.409533,146.94
848,1.4112,146.791
849,1.412867,146.613
850,1.414533,146.613
851,1.4162,146.687
852,1.41785,147.03
853,1.419533,147.119
854,1.421183,147.119
855,1.42285,147.149
856,1.424517,147.313
857,1.426183,147.313
858,1.42785,147.358
859,1.429517,147.313
860,1.431183,147.231
861,1.43285,147.231
862,1.434567,146.739
863,1.436183,146.516
864,1.43785,146.531
865,1.439517,146.531
866,1.441183,146.754
867,1.44285,147.052
868,1.444517,147.015
869,1.446183,147.015
870,1.447867,147.104
871,1.449517,146.881
872,1.451267,146.65
873,1.45285,146.65
874,1.454517,146.493
875,1.456183,146.486
876,1.45785,146.486
877,1.459533,146.516
878,1.461183,146.493
879,1.46285,146.918
880,1.464517,146.918
881,1.466183,146.881
882,1.46795,146.635
883,1.469517,146.545
884,1.471183,146.545
885,1.47285,146.002
886,1.474517,145.689
887,1.476183,145.525
888,1.477867,145.525
889,1.4795,145.607
890,1.481167,145.733
891,1.482833,145.733
892,1.4845,145.882
893,1.486167,146.061
894,1.487833,146.18
895,1.4895,146.18
896,1.491167,146.218
897,1.492833,146.076
898,1.4945,145.949
899,1.496167,145.949
900,1.497833,145.614
901,1.4995,145.607
902,1.501167,145.532
903,1.502833,145.532
904,1.5045,145.376
905,1.506167,145.502
906,1.507833,145.502
907,1.5095,145.309
908,1.511167,145.383
909,1.512833,145.569
910,1.5145,145.569
911,1.516167,145.532
912,1.517833,145.555
913,1.5195,145.748
914,1.521167,145.748
915,1.522833,145.808
916,1.5245,146.069
917,1.526167,145.949
918,1.527833,145.949
919,1.5295,145.651
920,1.531167,145.48
921,1.532833,145.42
922,1.5345,145.42
923,1.536183,145.786
924,1.537817,146.084
925,1.539483,146.084
926,1.54115,146.165
927,1.542817,146.203
928,1.544483,145.92
929,1.546167,145.92
930,1.547817,145.592
931,1.549483,145.473
932,1.55115,145.234
933,1.552833,145.234
934,1.554483,145.227
935,1.55615,145.13
936,1.557817,145.271
937,1.559483,145.271
938,1.56115,145.152
939,1.562817,145.07
940,1.564483,145.07
941,1.566133,145.465
942,1.5678,145.368
943,1.5695,145.629
944,1.571133,145.629
945,1.5728,145.89
946,1.574467,145.845
947,1.576133,145.771
948,1.5778,145.771
949,1.579467,145.748
950,1.581133,145.42
951,1.5828,145.026
952,1.584467,145.026
953,1.586233,145.264
954,1.5878,145.07
