"ID","sea_time","fid_signal"
1,0,139.84
2,0.001667,140.011
3,0.003333,140.28
4,0.005,140.399
5,0.006667,140.399
6,0.008333,140.309
7,0.01,140.28
8,0.011667,140.145
9,0.013333,140.145
10,0.014983,140.071
11,0.01665,140.026
12,0.018317,140.093
13,0.019983,140.093
14,0.02165,140.451
15,0.023317,140.466
16,0.024983,140.466
17,0.02665,140.481
18,0.028333,140.451
19,0.029983,140.436
20,0.03165,140.436
21,0.033317,140.272
22,0.034983,139.952
23,0.03665,140.063
24,0.038317,140.063
25,0.039983,139.721
26,0.04165,139.736
27,0.043317,139.892
28,0.045067,139.892
29,0.04665,139.847
30,0.048317,139.944
31,0.049983,139.944
32,0.05165,140.309
33,0.0533,140.309
34,0.054967,140.101
35,0.056633,140.101
36,0.0583,140.324
37,0.059967,140.257
38,0.061717,140.414
39,0.0633,140.414
40,0.064967,140.764
41,0.066633,140.704
42,0.0683,140.741
43,0.069967,140.741
44,0.071633,140.66
45,0.0733,140.406
46,0.07496700000000001,140.354
47,0.07663300000000001,140.354
48,0.07838299999999999,140.19
49,0.079967,140.287
50,0.081633,140.287
51,0.0833,140.28
52,0.084967,139.982
53,0.086633,139.84
54,0.0883,139.84
55,0.08996700000000001,139.572
56,0.09163300000000001,139.579
57,0.09329999999999999,139.78
58,0.094967,139.78
59,0.096633,139.758
60,0.0983,139.907
61,0.099967,139.721
62,0.101633,139.721
63,0.1033,139.669
64,0.104967,139.706
65,0.106633,139.706
66,0.1083,139.475
67,0.109967,139.438
68,0.111633,139.251
69,0.113283,139.251
70,0.114967,139.467
71,0.116617,139.654
72,0.118283,140.041
73,0.11995,140.041
74,0.121617,140.481
75,0.123283,140.414
76,0.124983,140.615
77,0.126617,140.615
78,0.128283,140.466
79,0.12995,140.488
80,0.131617,140.354
81,0.133283,140.354
82,0.13495,140.235
83,0.136617,140.257
84,0.138283,140.257
85,0.13995,140.317
86,0.141617,140.548
87,0.143283,140.443
88,0.14495,140.443
89,0.146617,140.257
90,0.148283,139.9
91,0.14995,139.698
92,0.151617,139.698
93,0.153283,139.989
94,0.15495,140.272
95,0.156617,140.451
96,0.158283,140.451
97,0.15995,140.294
98,0.161617,140.041
99,0.16335,139.825
100,0.16495,139.825
101,0.166617,139.49
102,0.168283,139.78
103,0.16995,139.78
104,0.1716,139.669
105,0.173267,139.609
106,0.174933,139.639
107,0.1766,139.639
108,0.178267,139.803
109,0.179983,139.907
110,0.1816,140.175
111,0.183267,140.175
112,0.184933,140.473
113,0.1866,140.145
114,0.188267,140.063
115,0.189933,140.063
116,0.1916,139.78
117,0.193267,139.631
118,0.19495,139.631
119,0.196617,139.885
120,0.198333,139.967
121,0.199933,140.034
122,0.2016,140.034
123,0.203267,140.183
124,0.204933,139.832
125,0.2066,140.026
126,0.208267,140.026
127,0.209933,140.235
128,0.2116,140.078
129,0.213267,140.265
130,0.214933,140.265
131,0.2166,140.108
132,0.218267,139.952
133,0.219933,139.952
134,0.2216,139.914
135,0.223267,140.198
136,0.224933,140.458
137,0.2266,140.458
138,0.228267,140.66
139,0.229933,140.786
140,0.2316,140.376
141,0.23325,140.376
142,0.234917,139.885
143,0.236583,139.512
144,0.23825,139.646
145,0.239917,139.646
146,0.241583,139.929
147,0.24325,140.093
148,0.244917,140.093
149,0.246583,140.227
150,0.24825,140.138
151,0.249917,140.16
152,0.251583,140.16
153,0.25325,140.458
154,0.254917,140.451
155,0.256583,140.16
156,0.25825,140.16
157,0.259917,140.086
158,0.2616,139.959
159,0.263267,140.309
160,0.264917,140.309
161,0.266583,140.615
162,0.26825,140.674
163,0.269917,140.734
164,0.271583,140.734
165,0.27325,140.518
166,0.274917,140.734
167,0.276583,140.734
168,0.27825,141.256
169,0.279917,141.963
170,0.2816,143.141
171,0.28325,143.141
172,0.284917,144.117
173,0.286583,145.204
174,0.28825,146.493
175,0.289917,146.493
176,0.291567,148.43
177,0.293233,150.926
178,0.2949,153.847
179,0.296567,153.847
180,0.298283,157.751
181,0.2999,162.192
182,0.301567,162.192
183,0.303233,167.444
184,0.3049,173.882
185,0.30655,181.012
186,0.308217,181.012
187,0.309883,189.446
188,0.31155,198.841
189,0.313217,209.458
190,0.314983,209.458
191,0.31655,221.61
192,0.318217,234.76
193,0.319883,249.684
194,0.32155,249.684
195,0.323217,265.948
196,0.324883,283.599
197,0.32655,303.105
198,0.328217,303.105
199,0.329883,324.383
200,0.33155,347.584
201,0.333217,347.584
202,0.334883,373.185
203,0.33655,400.506
204,0.33825,430.033
205,0.339883,430.033
206,0.34155,461.824
207,0.343217,495.441
208,0.344883,531.636
209,0.34655,531.636
210,0.348217,570.647
211,0.349883,612.244
212,0.35155,657.246
213,0.3532,657.246
214,0.354867,705.659
215,0.356533,757.448
216,0.3582,757.448
217,0.359867,813.454
218,0.361533,873.856
219,0.3632,938.773
220,0.364867,938.773
221,0.366533,1009.017
222,0.3682,1085.08
223,0.369883,1167.372
224,0.371533,1167.372
225,0.3732,1257.315
226,0.374867,1355.343
227,0.376533,1462.288
228,0.3782,1462.288
229,0.379867,1579.195
230,0.381533,1706.451
231,0.3832,1845.069
232,0.384867,1845.069
233,0.386533,1995.713
234,0.3882,2158.709
235,0.389867,2158.709
236,0.391533,2335.295
237,0.3932,2525.009
238,0.394867,2727.471
239,0.396533,2727.471
240,0.3982,2942.018
241,0.399867,3166.735
242,0.401533,3400.505
243,0.4032,3400.505
244,0.404867,3640.6
245,0.406533,3883.854
246,0.408217,4127.107
247,0.409867,4127.107
248,0.411533,4366.301
249,0.413183,4598.238
250,0.41485,4598.238
251,0.416517,4819.058
252,0.418183,5024.53
253,0.41985,5210.467
254,0.421517,5210.467
255,0.423183,5372.837
256,0.42485,5508.967
257,0.426517,5616.568
258,0.428183,5616.568
259,0.42985,5694.24
260,0.431517,5740.993
261,0.433267,5755.693
262,0.43485,5755.693
263,0.436517,5738.117
264,0.438183,5688.652
265,0.43985,5688.652
266,0.441517,5608.387
267,0.443183,5499.199
268,0.44485,5363.137
269,0.446517,5363.137
270,0.448183,5203.15
271,0.44985,5022.086
272,0.451517,4823.29
273,0.453183,4823.29
274,0.45485,4610.017
275,0.456517,4385.218
276,0.458183,4152.231
277,0.45985,4152.231
278,0.461517,3914.602
279,0.463183,3674.977
280,0.46485,3436.342
281,0.466517,3436.342
282,0.468183,3201.09
283,0.46985,2970.666
284,0.471517,2970.666
285,0.473167,2747.349
286,0.474833,2532.378
287,0.4765,2327.032
288,0.478167,2327.032
289,0.47985,2132.535
290,0.4815,1949.474
291,0.483167,1778.416
292,0.484833,1778.416
293,0.4865,1619.674
294,0.488167,1472.957
295,0.489833,1338.229
296,0.4915,1338.229
297,0.493167,1214.75
298,0.494833,1102.462
299,0.4965,1102.462
300,0.498167,1000.33
301,0.499833,907.846
302,0.5014999999999999,824.921
303,0.503167,824.921
304,0.504833,750.2809999999999
305,0.5065,683.7619999999999
306,0.508167,624.515
307,0.509833,624.515
308,0.5115,571.847
309,0.513167,524.908
310,0.514833,483.274
311,0.5165,483.274
312,0.518283,446.565
313,0.519833,413.954
314,0.5215,385.173
315,0.523167,385.173
316,0.524833,360.012
317,0.5265,337.712
318,0.5281670000000001,337.712
319,0.529833,318.371
320,0.5315,301.413
321,0.53315,286.125
322,0.534817,286.125
323,0.536483,272.766
324,0.53815,260.763
325,0.539817,250.295
326,0.541483,250.295
327,0.54315,241.354
328,0.544817,233.3
329,0.5464830000000001,226.617
330,0.54815,226.617
331,0.549817,220.656
332,0.55155,215.217
333,0.55315,215.217
334,0.554817,210.553
335,0.5564829999999999,206.083
336,0.55815,201.993
337,0.559817,201.993
338,0.561483,198.349
339,0.56315,195.041
340,0.564817,191.972
341,0.566483,191.972
342,0.56815,189.193
343,0.569817,186.98
344,0.571483,184.946
345,0.57315,184.946
346,0.574817,183.269
347,0.576483,181.764
348,0.5781500000000001,180.155
349,0.579817,180.155
350,0.581483,178.397
351,0.5831499999999999,176.847
352,0.584817,176.847
353,0.586483,175.58
354,0.58815,174.224
355,0.589817,173.353
356,0.591467,173.353
357,0.593133,172.6
358,0.5948,171.833
359,0.59645,171.14
360,0.598117,171.14
361,0.599783,170.253
362,0.60145,169.441
363,0.603117,168.532
364,0.604783,168.532
365,0.60645,167.72
366,0.608117,167.236
367,0.609783,167.236
368,0.61145,166.222
369,0.613117,165.388
370,0.614783,164.77
371,0.6164500000000001,164.77
372,0.618117,164.092
373,0.619783,163.719
374,0.621467,163.354
375,0.623117,163.354
376,0.624783,163.22
377,0.62645,162.84
378,0.628117,162.378
379,0.629783,162.378
380,0.63145,162.117
381,0.633117,161.767
382,0.634783,161.767
383,0.636517,161.424
384,0.638117,160.903
385,0.639783,160.351
386,0.64145,160.351
387,0.643117,159.584
388,0.644783,159.308
389,0.64645,159.077
390,0.6481170000000001,159.077
391,0.649783,159.048
392,0.65145,158.861
393,0.6531,158.422
394,0.654767,158.422
395,0.656433,158.004
396,0.658133,157.446
397,0.659767,157.356
398,0.661433,157.356
399,0.6631,157.341
400,0.664767,157.319
401,0.6664330000000001,157.319
402,0.6681,157.066
403,0.669817,156.909
404,0.6714329999999999,156.447
405,0.6731,156.447
406,0.674767,156.313
407,0.676433,156.045
408,0.6781,155.471
409,0.679767,155.471
410,0.681433,155.158
411,0.6831,154.734
412,0.684767,154.458
413,0.686433,154.458
414,0.6881,154.57
415,0.689767,154.555
416,0.691433,154.555
417,0.6931,154.756
418,0.694767,154.808
419,0.696433,154.264
420,0.6981000000000001,154.264
421,0.699783,153.854
422,0.701433,153.385
423,0.7030999999999999,153.08
424,0.704767,153.08
425,0.706433,153.057
426,0.7081,152.931
427,0.709767,152.893
428,0.711433,152.893
429,0.713083,153.057
430,0.71475,152.946
431,0.716417,153.199
432,0.718083,153.199
433,0.71975,153.005
434,0.721417,152.931
435,0.723083,152.931
436,0.72475,152.826
437,0.726417,152.551
438,0.728083,152.417
439,0.72975,152.417
440,0.731417,152.022
441,0.733083,151.955
442,0.73475,151.59
443,0.736417,151.59
444,0.738083,151.619
445,0.73975,151.411
446,0.741417,151.508
447,0.7431,151.508
448,0.74475,151.47
449,0.746417,150.956
450,0.7480830000000001,150.956
451,0.74975,151.12
452,0.751417,150.859
453,0.7530829999999999,150.941
454,0.7548,150.941
455,0.756417,151.023
456,0.758083,150.688
457,0.75975,150.487
458,0.761417,150.487
459,0.763083,150.33
460,0.76475,150.271
461,0.766417,149.98
462,0.768083,149.98
463,0.76975,149.749
464,0.771467,149.749
465,0.773083,149.429
466,0.774733,149.429
467,0.7764,149.548
468,0.778067,149.697
469,0.779733,149.697
470,0.7814,149.369
471,0.783067,149.734
472,0.784733,149.667
473,0.7864,149.667
474,0.78815,149.481
475,0.789733,149.66
476,0.7914,149.541
477,0.793067,149.541
478,0.794733,149.757
479,0.7964,149.652
480,0.798067,149.22
481,0.799733,149.22
482,0.8014,148.967
483,0.803067,148.617
484,0.804733,148.617
485,0.8064,148.661
486,0.808067,148.736
487,0.809733,148.706
488,0.8114,148.706
489,0.813067,148.587
490,0.814733,148.438
491,0.8164,148.341
492,0.818067,148.341
493,0.819733,148.311
494,0.8214,148.334
495,0.823067,148.118
496,0.824733,148.118
497,0.8264,148.065
498,0.828067,147.939
499,0.8297330000000001,147.939
500,0.8314,147.626
501,0.83305,147.603
502,0.834717,147.648
503,0.836383,147.648
504,0.83805,147.477
505,0.839717,147.529
506,0.841383,147.41
507,0.843083,147.41
508,0.8447170000000001,147.156
509,0.846383,147.052
510,0.84805,147.238
511,0.8497169999999999,147.238
512,0.851383,147.566
513,0.85305,147.611
514,0.8547169999999999,147.611
515,0.856383,147.611
516,0.85805,147.469
517,0.859717,147.156
518,0.861383,147.156
519,0.86305,147.112
520,0.864717,147.074
521,0.866383,146.94
522,0.86805,146.94
523,0.869717,147.261
524,0.871383,147.328
525,0.873067,147.238
526,0.874717,147.238
527,0.876383,146.918
528,0.87805,146.352
529,0.879717,146.091
530,0.881383,146.091
531,0.88305,146.18
532,0.884717,146.359
533,0.886383,146.359
534,0.888033,146.374
535,0.889767,146.374
536,0.891367,146.247
537,0.8930169999999999,146.247
538,0.894683,146.165
539,0.89635,146.449
540,0.898017,146.478
541,0.899683,146.478
542,0.90135,146.411
543,0.903017,146.776
544,0.904683,146.65
545,0.906467,146.65
546,0.908017,146.68
547,0.909683,146.836
548,0.91135,146.382
549,0.913017,146.382
550,0.914683,146.382
551,0.9164,146.27
552,0.918017,146.27
553,0.919683,145.927
554,0.92135,145.838
555,0.92305,145.45
556,0.924683,145.45
557,0.92635,145.338
558,0.928017,145.294
559,0.929683,145.42
560,0.93135,145.42
561,0.933017,145.316
562,0.934683,145.517
563,0.93635,145.756
564,0.938017,145.756
565,0.939683,145.726
566,0.94135,146.121
567,0.943017,146.121
568,0.9446830000000001,145.987
569,0.94635,145.875
570,0.948017,146.024
571,0.9496830000000001,146.024
572,0.951333,145.726
573,0.953,145.562
574,0.954667,145.391
575,0.956333,145.391
576,0.958,145.078
577,0.959667,145.07
578,0.961333,145.003
579,0.963,145.003
580,0.9646670000000001,144.996
581,0.966333,145.271
582,0.968,145.242
583,0.9696669999999999,145.242
584,0.971333,145.13
585,0.973,145.227
586,0.974667,145.227
587,0.976333,145.204
588,0.978,145.219
589,0.979667,145.249
590,0.981333,145.249
591,0.983,145.301
592,0.984667,145.212
593,0.986333,145.294
594,0.988,145.294
595,0.989667,145.175
596,0.991367,144.944
597,0.993,144.772
598,0.994667,144.772
599,0.996333,144.564
600,0.998,144.735
601,0.999667,144.735
602,1.00135,145.04
603,1.003,144.824
604,1.004667,144.869
605,1.006333,144.869
606,1.008083,144.772
607,1.009667,144.459
608,1.011317,144.303
609,1.012983,144.303
610,1.01465,144.124
611,1.016317,144.325
612,1.017983,144.31
613,1.01965,144.31
614,1.021317,144.437
615,1.022983,144.526
616,1.0247,144.646
617,1.026317,144.646
618,1.027983,144.839
619,1.02965,144.951
620,1.031317,144.951
621,1.032983,144.973
622,1.03465,144.75
623,1.036317,144.251
624,1.037983,144.251
625,1.03965,144.221
626,1.041433,144.467
627,1.042983,144.28
628,1.04465,144.28
629,1.046317,144.511
630,1.047983,144.556
631,1.04965,144.318
632,1.051317,144.318
633,1.052983,144.236
634,1.05465,144.228
635,1.056317,144.228
636,1.057983,144.34
637,1.05965,144.355
638,1.061317,144.549
639,1.062983,144.549
640,1.06465,144.459
641,1.066317,144.131
642,1.067983,144.042
643,1.06965,144.042
644,1.0713,143.901
645,1.072967,144.191
646,1.074633,144.131
647,1.0763,144.131
648,1.077967,144.31
649,1.079633,144.601
650,1.0813,144.601
651,1.082983,144.564
652,1.084633,145.048
653,1.0863,145.115
654,1.087967,145.115
655,1.089633,144.951
656,1.0913,144.772
657,1.092967,144.616
658,1.094633,144.616
659,1.0963,144.094
660,1.097967,144.072
661,1.099633,143.915
662,1.1013,143.915
663,1.102967,143.811
664,1.104633,144.102
665,1.1063,143.893
666,1.107967,143.893
667,1.109633,143.878
668,1.1113,143.58
669,1.112967,143.58
670,1.114633,143.29
671,1.1163,143.357
672,1.117967,143.446
673,1.119633,143.446
674,1.1213,143.565
675,1.122967,143.856
676,1.124633,144.064
677,1.126367,144.064
678,1.127967,144.012
679,1.129633,144.064
680,1.131283,143.945
681,1.13295,143.945
682,1.134617,143.67
683,1.136283,143.796
684,1.13795,143.796
685,1.139617,143.64
686,1.141283,143.67
687,1.142983,143.61
688,1.144617,143.61
689,1.146283,143.379
690,1.14795,143.364
691,1.149617,143.282
692,1.151283,143.282
693,1.15295,143.252
694,1.154617,143.185
695,1.156283,143.163
696,1.15795,143.163
697,1.159717,143.074
698,1.161283,143.066
699,1.16295,143.148
700,1.164617,143.148
701,1.166283,143.215
702,1.16795,143.245
703,1.169617,143.245
704,1.171283,143.327
705,1.172967,143.245
706,1.174617,143.051
707,1.176283,143.051
708,1.17795,142.954
709,1.1796,142.761
710,1.181267,142.783
711,1.182933,142.783
712,1.1846,143.193
713,1.186267,143.334
714,1.187933,143.61
715,1.1896,143.61
716,1.19125,143.789
717,1.192917,143.416
718,1.194583,143.416
719,1.19625,143.476
720,1.19795,143.558
721,1.199583,143.342
722,1.20125,143.342
723,1.202917,143.617
724,1.204583,143.297
725,1.20625,143.081
726,1.207917,143.081
727,1.209583,143.148
728,1.21125,142.984
729,1.212917,143.163
730,1.214583,143.163
731,1.21625,143.193
732,1.217917,143.304
733,1.219583,143.304
734,1.22125,143.215
735,1.222917,143.237
736,1.224583,143.223
737,1.22625,143.223
738,1.227917,143.349
739,1.229583,143.364
740,1.23125,143.386
741,1.232917,143.386
742,1.234583,143.215
743,1.23625,142.91
744,1.237917,143.021
745,1.239583,143.021
746,1.24125,143.059
747,1.242917,143.155
748,1.24465,143.29
749,1.24625,143.29
750,1.247917,143.126
751,1.249583,143.044
752,1.25125,143.044
753,1.2529,142.895
754,1.254567,143.111
755,1.25625,143.178
756,1.2579,143.178
757,1.259567,143.386
758,1.2613,143.357
759,1.2629,143.096
760,1.264567,143.096
761,1.266233,143.379
762,1.2679,143.103
763,1.269567,143.304
764,1.271233,143.304
765,1.2729,143.23
766,1.274567,143.178
767,1.276233,143.178
768,1.278,143.17
769,1.279567,142.753
770,1.281233,142.463
771,1.2829,142.463
772,1.284567,142.194
773,1.286233,142.179
774,1.2879,142.448
775,1.289567,142.448
776,1.291233,142.664
777,1.2929,142.425
778,1.294567,142.597
779,1.296233,142.597
780,1.2979,142.731
781,1.299567,142.91
782,1.301233,143.364
783,1.3029,143.364
784,1.304567,143.23
785,1.306233,142.999
786,1.3079,142.999
787,1.309567,142.656
788,1.311233,142.507
789,1.3129,142.485
790,1.31455,142.485
791,1.316217,142.455
792,1.317883,142.671
793,1.31955,142.634
794,1.321217,142.634
795,1.322883,142.545
796,1.32455,142.589
797,1.326217,142.522
798,1.327883,142.522
799,1.32955,142.761
800,1.331217,142.969
801,1.332883,142.969
802,1.334583,143.096
803,1.3363,143.23
804,1.337883,142.977
805,1.33955,142.977
806,1.341217,142.664
807,1.342883,142.664
808,1.34455,142.47
809,1.346217,142.47
810,1.347883,142.589
811,1.34955,142.604
812,1.351217,142.455
813,1.352883,142.455
814,1.35455,142.768
815,1.356217,142.425
816,1.357883,142.552
817,1.35955,142.552
818,1.361217,142.708
819,1.36295,142.537
820,1.36455,142.537
821,1.366217,142.701
822,1.367883,142.761
823,1.36955,142.962
824,1.371217,142.962
825,1.372867,142.91
826,1.374533,142.761
827,1.3762,142.701
828,1.377867,142.701
829,1.379533,142.433
830,1.3812,142.179
831,1.382867,142.06
832,1.384533,142.06
833,1.3862,141.956
834,1.387867,142.202
835,1.389533,142.202
836,1.3912,142.433
837,1.392867,142.604
838,1.394533,142.716
839,1.396317,142.716
840,1.397867,142.641
841,1.399533,142.775
842,1.4012,142.939
843,1.402867,142.939
844,1.40455,142.984
845,1.4062,142.686
846,1.407867,142.626
847,1.409533,142.626
848,1.411233,142.448
849,1.412867,142.179
850,1.414533,142.328
851,1.4162,142.328
852,1.417867,142.15
853,1.419533,142.545
854,1.4212,142.545
855,1.422867,143.021
856,1.424533,143.26
857,1.4262,143.319
858,1.427867,143.319
859,1.429533,143.029
860,1.4312,142.902
861,1.43285,142.992
862,1.434517,142.992
863,1.436183,143.267
864,1.43785,143.349
865,1.439517,143.304
866,1.441183,143.304
867,1.44285,142.932
868,1.444517,142.433
869,1.446183,142.433
870,1.44785,142.112
871,1.449517,141.852
872,1.451183,142.016
873,1.45285,142.016
874,1.454517,142.053
875,1.456183,142.291
876,1.45785,142.545
877,1.459517,142.545
878,1.461183,142.135
879,1.46285,142.321
880,1.464517,142.127
881,1.466183,142.127
882,1.46785,141.799
883,1.469517,142.142
884,1.471167,142.142
885,1.472833,142.142
886,1.4745,142.284
887,1.476167,142.5
888,1.477833,142.5
889,1.4795,142.522
890,1.481233,142.716
891,1.482833,142.79
892,1.4845,142.79
893,1.486167,142.895
894,1.487833,142.902
895,1.4895,142.768
896,1.491167,142.768
897,1.492817,142.53
898,1.494483,142.433
899,1.49615,142.068
900,1.497817,142.068
901,1.499483,142.008
902,1.50115,142.351
903,1.502817,142.351
904,1.504483,142.44
905,1.50615,142.619
906,1.507817,142.366
907,1.509483,142.366
908,1.51115,141.807
909,1.512817,141.896
910,1.5146,141.874
911,1.51615,141.874
912,1.517817,141.829
913,1.519483,142.254
914,1.52115,142.135
915,1.522817,142.135
916,1.524483,141.986
917,1.52615,142.12
918,1.527817,142.12
919,1.529483,141.986
920,1.53115,141.621
921,1.532817,141.501
922,1.534483,141.501
923,1.53615,141.501
924,1.537817,141.665
925,1.539483,142.023
926,1.54115,142.023
927,1.542817,142.306
928,1.544483,142.485
929,1.54615,142.239
930,1.547817,142.239
931,1.549483,142.135
932,1.55115,142.142
933,1.5528,142.284
934,1.554467,142.284
935,1.556133,142.485
936,1.557817,142.455
937,1.559533,142.455
938,1.561133,142.187
939,1.5628,141.643
940,1.564467,141.65
941,1.566133,141.65
942,1.5678,141.509
943,1.569467,141.576
944,1.571133,141.934
945,1.5728,141.934
946,1.574467,142.135
947,1.576133,142.194
948,1.5778,142.336
949,1.579483,142.336
950,1.581133,142.142
951,1.5828,141.546
952,1.584467,141.546
953,1.586133,141.77
954,1.5878,141.837
955,1.589467,141.911
956,1.591133,141.911
957,1.5928,142.001
958,1.594467,141.628
959,1.596133,141.434
960,1.5978,141.434
961,1.599533,141.546
962,1.601133,141.606
963,1.6028,141.725
964,1.604467,141.725
965,1.606133,141.703
966,1.6078,141.464
