"ID","sea_time","fid_signal"
1,0,1175.702
2,0.001667,1174.659
3,0.003333,1170.784
4,0.005017,1171.827
5,0.006667,1171.827
6,0.008333,1172.796
7,0.01,1172.125
8,0.011667,1172.721
9,0.013333,1172.721
10,0.015017,1170.263
11,0.016667,1167.208
12,0.018333,1164.675
13,0.02,1164.675
14,0.021667,1166.984
15,0.023333,1166.165
16,0.025,1166.165
17,0.026667,1166.984
18,0.028417,1168.773
19,0.03,1167.655
20,0.03165,1167.655
21,0.033317,1167.282
22,0.034983,1165.941
23,0.03665,1165.941
24,0.038317,1165.941
25,0.039983,1163.334
26,0.04165,1162.961
27,0.043317,1166.016
28,0.044983,1166.016
29,0.04665,1167.432
30,0.048317,1168.996
31,0.049983,1169.443
32,0.05165,1169.443
33,0.053317,1166.314
34,0.054967,1167.282
35,0.056633,1167.282
36,0.0583,1168.624
37,0.059967,1168.773
38,0.06175,1171.306
39,0.0633,1171.306
40,0.064967,1167.133
41,0.066633,1168.549
42,0.0683,1170.71
43,0.069967,1170.71
44,0.071633,1168.102
45,0.0733,1169.145
46,0.07496700000000001,1166.239
47,0.07663300000000001,1166.239
48,0.07829999999999999,1165.42
49,0.079967,1167.729
50,0.081633,1167.729
51,0.0833,1171.306
52,0.084967,1172.349
53,0.086633,1170.635
54,0.0883,1170.635
55,0.08996700000000001,1169.667
56,0.09163300000000001,1167.953
57,0.093283,1166.09
58,0.09495000000000001,1166.09
59,0.09661699999999999,1166.239
60,0.098283,1165.941
61,0.09995,1166.761
62,0.101617,1166.761
63,0.103283,1166.463
64,0.104967,1168.624
65,0.106667,1169.965
66,0.108283,1169.965
67,0.10995,1169.518
68,0.111617,1170.561
69,0.113283,1170.561
70,0.11495,1168.922
71,0.116617,1167.729
72,0.118283,1164.675
73,0.11995,1164.675
74,0.121617,1166.686
75,0.123283,1168.475
76,0.12495,1168.922
77,0.126617,1168.922
78,0.128283,1170.635
79,0.12995,1169.22
80,0.131617,1167.506
81,0.133283,1167.506
82,0.13495,1168.624
83,0.136617,1167.208
84,0.138283,1167.208
85,0.13995,1165.271
86,0.141617,1163.259
87,0.143283,1161.322
88,0.14495,1161.322
89,0.146683,1161.62
90,0.148283,1166.165
91,0.14995,1170.188
92,0.1516,1170.188
93,0.153267,1173.168
94,0.154933,1176.298
95,0.1566,1174.137
96,0.158267,1174.137
97,0.159933,1171.902
98,0.1616,1168.922
99,0.163267,1168.922
100,0.164933,1165.569
101,0.1666,1167.282
102,0.168267,1170.337
103,0.169933,1170.337
104,0.1716,1171.604
105,0.173267,1175.329
106,0.174933,1173.168
107,0.1766,1173.168
108,0.178267,1171.827
109,0.18005,1172.274
110,0.1816,1170.561
111,0.183267,1170.561
112,0.184933,1172.87
113,0.1866,1173.243
114,0.188267,1171.306
115,0.189933,1171.306
116,0.1916,1169.816
117,0.193267,1166.239
118,0.19495,1166.239
119,0.1966,1163.483
120,0.198267,1162.216
121,0.199933,1162.589
122,0.2016,1162.589
123,0.203267,1164.898
124,0.204933,1168.326
125,0.2066,1170.561
126,0.208267,1170.561
127,0.209933,1169.294
128,0.211583,1168.475
129,0.21325,1164.898
130,0.214917,1164.898
131,0.216583,1162.589
132,0.21825,1162.738
133,0.219917,1162.738
134,0.221583,1163.483
135,0.223267,1164.079
136,0.224917,1163.483
137,0.226583,1163.483
138,0.22825,1163.036
139,0.229917,1159.385
140,0.231583,1159.459
141,0.23325,1159.459
142,0.234917,1160.949
143,0.236583,1163.557
144,0.23825,1167.133
145,0.239917,1167.133
146,0.241583,1169.965
147,0.24325,1169.965
148,0.244917,1167.506
149,0.246583,1167.506
150,0.24825,1166.463
151,0.249917,1166.016
152,0.251583,1166.016
153,0.25325,1168.027
154,0.254917,1171.38
155,0.256583,1171.008
156,0.25825,1171.008
157,0.259917,1170.486
158,0.261583,1169.071
159,0.26325,1168.698
160,0.264967,1168.698
161,0.266583,1168.027
162,0.26825,1166.612
163,0.2699,1168.624
164,0.271567,1168.624
165,0.273233,1168.922
166,0.2749,1169.22
167,0.276567,1169.22
168,0.278233,1169.592
169,0.2799,1170.039
170,0.281567,1170.635
171,0.283233,1170.635
172,0.2849,1171.306
173,0.286567,1170.933
174,0.288233,1170.114
175,0.2899,1170.114
176,0.291567,1168.847
177,0.293233,1171.529
178,0.2949,1173.392
179,0.296567,1173.392
180,0.298333,1171.976
181,0.2999,1171.008
182,0.301567,1169.294
183,0.303233,1169.294
184,0.3049,1166.314
185,0.306567,1169.592
186,0.308233,1169.592
187,0.3099,1169.071
188,0.311567,1169.89
189,0.313233,1170.039
190,0.3149,1170.039
191,0.316567,1166.016
192,0.318233,1167.804
193,0.3199,1166.314
194,0.321567,1166.314
195,0.323233,1167.208
196,0.3249,1169.89
197,0.326567,1167.357
198,0.328233,1167.357
199,0.3299,1166.537
200,0.33155,1162.216
201,0.333217,1162.216
202,0.334883,1157.448
203,0.33655,1156.181
204,0.338217,1158.565
205,0.339883,1158.565
206,0.34155,1164.004
207,0.343217,1166.761
208,0.344867,1172.572
209,0.346533,1172.572
210,0.3482,1171.827
211,0.349867,1169.592
212,0.351533,1168.475
213,0.3532,1168.475
214,0.354867,1163.93
215,0.356533,1163.334
216,0.358217,1164.749
217,0.359867,1164.749
218,0.361533,1165.271
219,0.3632,1165.867
220,0.364867,1165.867
221,0.366533,1168.922
222,0.3682,1170.486
223,0.369867,1172.051
224,0.371533,1172.051
225,0.3732,1172.647
226,0.374867,1169.89
227,0.376533,1169.145
228,0.3782,1169.145
229,0.379867,1174.882
230,0.381533,1178.458
231,0.3832,1184.94
232,0.384867,1184.94
233,0.386533,1192.391
234,0.3882,1192.614
235,0.38985,1192.614
236,0.391533,1197.979
237,0.393183,1200.289
238,0.39485,1203.567
239,0.396517,1203.567
240,0.398183,1211.092
241,0.399967,1215.637
242,0.401517,1225.173
243,0.403183,1225.173
244,0.40485,1230.985
245,0.406517,1236.871
246,0.408183,1242.757
247,0.40985,1242.757
248,0.411517,1247.153
249,0.413183,1255.274
250,0.41485,1255.274
251,0.416533,1263.693
252,0.418183,1273.23
253,0.41985,1283.437
254,0.421517,1283.437
255,0.423183,1293.719
256,0.42485,1303.479
257,0.426517,1316.89
258,0.428183,1316.89
259,0.42985,1327.097
260,0.431517,1337.528
261,0.433183,1348.555
262,0.43485,1348.555
263,0.436517,1361.221
264,0.438217,1374.558
265,0.439917,1386.181
266,0.441517,1386.181
267,0.443183,1401.454
268,0.44485,1413.45
269,0.446517,1413.45
270,0.448183,1427.755
271,0.44985,1448.318
272,0.4515,1463.443
273,0.453167,1463.443
274,0.454833,1483.262
275,0.4565,1504.198
276,0.458167,1521.483
277,0.459833,1521.483
278,0.4615,1546.815
279,0.463167,1571.178
280,0.464833,1597.852
281,0.4665,1597.852
282,0.468167,1629.293
283,0.469833,1667.589
284,0.4715,1667.589
285,0.473167,1711.696
286,0.474833,1765.415
287,0.4765,1832.321
288,0.478167,1832.321
289,0.479833,1907.721
290,0.4815,2000.108
291,0.483167,2112.985
292,0.484833,2112.985
293,0.4865,2249.554
294,0.488167,2415.851
295,0.489833,2616.793
296,0.4915,2616.793
297,0.493167,2855.584
298,0.494833,3132.597
299,0.4965,3456.175
300,0.498167,3456.175
301,0.499833,3828.108
302,0.501567,4249.066
303,0.503167,4249.066
304,0.504833,4723.668
305,0.5065,5245.656
306,0.5081830000000001,5820.17
307,0.509817,5820.17
308,0.511517,6442.293
309,0.51315,7113.367
310,0.514817,7831.604
311,0.516483,7831.604
312,0.51825,8593.647999999999
313,0.519817,9399.353999999999
314,0.521483,10240.45
315,0.52315,10240.45
316,0.524817,11119.47
317,0.526483,12030.229
318,0.52815,12030.229
319,0.529817,12973.473
320,0.531483,13947.412
321,0.53315,14945.642
322,0.5349,14945.642
323,0.536483,15966.072
324,0.53815,17004.609
325,0.539817,18061.623
326,0.541483,18061.623
327,0.54315,19139.201
328,0.544817,20235.256
329,0.5465,21347.404
330,0.54815,21347.404
331,0.549817,22475.049
332,0.5516,23609.996
333,0.55315,24754.926
334,0.554817,24754.926
335,0.5564829999999999,25909.543
336,0.55815,27073.695
337,0.559817,27073.695
338,0.561483,28245.672
339,0.56315,29419.438
340,0.564817,30597.299
341,0.566483,30597.299
342,0.56815,31775.533
343,0.569817,32956.898
344,0.5714669999999999,34138.637
345,0.573133,34138.637
346,0.5748,35319.477
347,0.576467,36495.402
348,0.578133,37666.188
349,0.5798,37666.188
350,0.581467,38838.164
351,0.5831499999999999,40005.445
352,0.5848,40005.445
353,0.586467,41168.184
354,0.588133,42325.629
355,0.5898,43476.223
356,0.591467,43476.223
357,0.593133,44619.219
358,0.5948,45752.75
359,0.596467,46880.32
360,0.598133,46880.32
361,0.5998,47997.086
362,0.601467,49103.125
363,0.603133,50201.492
364,0.6048,50201.492
365,0.606467,51293.074
366,0.608133,52374.527
367,0.6098,52374.527
368,0.611467,53447.633
369,0.613133,54513.289
370,0.6148,55567.25
371,0.616467,55567.25
372,0.618133,56613.164
373,0.6198,57649.688
374,0.621467,58671.012
375,0.623133,58671.012
376,0.6248,59680.344
377,0.626467,60675.742
378,0.6281330000000001,61664.656
379,0.6298,61664.656
380,0.63145,62644.184
381,0.633117,63606.949
382,0.634783,64560.473
383,0.6365,64560.473
384,0.6381,65500.215
385,0.639767,66429.969
386,0.641433,66429.969
387,0.6431,67353.844
388,0.644767,68267.289
389,0.646433,69169.92200000001
390,0.6481,69169.92200000001
391,0.649767,70067.94500000001
392,0.651433,70962.234
393,0.6531670000000001,71845.133
394,0.654767,71845.133
395,0.656433,72718.484
396,0.6581,73583.875
397,0.659767,74435.469
398,0.661433,74435.469
399,0.6631,75279.844
400,0.664767,76119.008
401,0.6664330000000001,76119.008
402,0.6681,76945.125
403,0.669867,77761.18799999999
404,0.6714329999999999,78564.289
405,0.6731,78564.289
406,0.674767,79345.70299999999
407,0.676433,80088.82000000001
408,0.6781,80782.023
409,0.679767,80782.023
410,0.681433,81439.469
411,0.6831,82073.141
412,0.684783,82710.906
413,0.686433,82710.906
414,0.6881,83371.852
415,0.68975,84045.82799999999
416,0.6914169999999999,84723.758
417,0.693083,84723.758
418,0.69475,85401.531
419,0.696417,86080.211
420,0.698083,86080.211
421,0.69975,86752.773
422,0.701417,87423.25
423,0.703083,88098.344
424,0.70475,88098.344
425,0.706417,88769.492
426,0.708083,89436.992
427,0.70975,90098.086
428,0.711417,90098.086
429,0.713083,90731.30499999999
430,0.71475,91276.023
431,0.716417,91338.008
432,0.718083,91338.008
433,0.71975,89639.727
434,0.721433,84469.766
435,0.723083,84469.766
436,0.72475,74978.25
437,0.726417,61850.547
438,0.728083,47280.938
439,0.72975,47280.938
440,0.731417,33960.789
441,0.733083,23547.41
442,0.73475,16259.253
443,0.736417,16259.253
444,0.738083,11495.352
445,0.73975,8487.403
446,0.741417,6609.708
447,0.743083,6609.708
448,0.74475,5433.783
449,0.746417,4686.788
450,0.7480830000000001,4686.788
451,0.74975,4196.391
452,0.7514,3862.753
453,0.753067,3624.782
454,0.7548,3624.782
455,0.7564,3447.607
456,0.758067,3306.94
457,0.759733,3189.594
458,0.7614,3189.594
459,0.7630670000000001,3088.638
460,0.764733,2995.655
461,0.7664,2914.071
462,0.7680670000000001,2914.071
463,0.769733,2843.812
464,0.771417,2775.043
465,0.7730669999999999,2714.247
466,0.774733,2714.247
467,0.7764,2656.802
468,0.778067,2603.233
469,0.779733,2603.233
470,0.7814,2553.24
471,0.783067,2506.077
472,0.784733,2460.48
473,0.7864,2460.48
474,0.788183,2414.957
475,0.789733,2371.967
476,0.7914,2335.385
477,0.793067,2335.385
478,0.794733,2298.057
479,0.7964,2262.741
480,0.798067,2231.225
481,0.799733,2231.225
482,0.8014,2199.486
483,0.803067,2172.44
484,0.804733,2172.44
485,0.8064,2145.991
486,0.808067,2121.031
487,0.809717,2095.029
488,0.811383,2095.029
489,0.8130500000000001,2072.975
490,0.814717,2051.741
491,0.816383,2033.114
492,0.8180500000000001,2033.114
493,0.819717,2015.457
494,0.821383,1993.999
495,0.8230499999999999,1972.839
496,0.824717,1972.839
497,0.826383,1951.978
498,0.82805,1930.222
499,0.829717,1913.905
500,0.831383,1913.905
501,0.83305,1896.396
502,0.834717,1879.558
503,0.836383,1879.558
504,0.83805,1863.688
505,0.839717,1848.34
506,0.841383,1836.568
507,0.84305,1836.568
508,0.8447170000000001,1823.53
509,0.846383,1812.95
510,0.848083,1801.252
511,0.8497169999999999,1801.252
512,0.851383,1790.896
513,0.85305,1779.199
514,0.8547169999999999,1765.937
515,0.856383,1765.937
516,0.85805,1751.781
517,0.859717,1739.338
518,0.861383,1739.338
519,0.86305,1729.578
520,0.864717,1722.127
521,0.8663999999999999,1714.006
522,0.86805,1714.006
523,0.869717,1701.415
524,0.871367,1687.333
525,0.8730329999999999,1673.4
526,0.8747,1673.4
527,0.876367,1662.97
528,0.878033,1656.935
529,0.8797,1653.805
530,0.881367,1653.805
531,0.883033,1649.186
532,0.8847,1643.151
533,0.886367,1634.359
534,0.888033,1634.359
535,0.8897,1626.536
536,0.891367,1616.18
537,0.893033,1616.18
538,0.8947000000000001,1608.357
539,0.896367,1600.161
540,0.898033,1590.997
541,0.8997000000000001,1590.997
542,0.901367,1584.739
543,0.903033,1579.076
544,0.9046999999999999,1571.998
545,0.90645,1571.998
546,0.908033,1564.547
547,0.9097,1558.959
548,0.911367,1549.646
549,0.913033,1549.646
550,0.9147,1545.027
551,0.916367,1539.588
552,0.918033,1539.588
553,0.9197,1536.161
554,0.921367,1530.647
555,0.923033,1523.42
556,0.9247,1523.42
557,0.9263670000000001,1518.801
558,0.928017,1509.935
559,0.929667,1505.688
560,0.931333,1505.688
561,0.9330000000000001,1503.155
562,0.934667,1498.014
563,0.936333,1494.438
564,0.938017,1494.438
565,0.939717,1490.936
566,0.9414,1486.838
567,0.9429999999999999,1486.838
568,0.944667,1483.485
569,0.946333,1480.058
570,0.948,1476.333
571,0.949667,1476.333
572,0.951333,1471.639
573,0.953,1467.988
574,0.954667,1464.263
575,0.956333,1464.263
576,0.958,1460.314
577,0.959667,1454.428
578,0.961333,1448.169
579,0.963,1448.169
580,0.9646670000000001,1443.699
581,0.966333,1441.464
582,0.968,1440.197
583,0.9696669999999999,1440.197
584,0.971333,1437.292
585,0.973,1433.492
586,0.974667,1433.492
587,0.976333,1427.978
588,0.978,1423.806
589,0.979667,1423.731
590,0.981333,1423.731
591,0.983,1421.943
592,0.984667,1418.367
593,0.986333,1412.928
594,0.988,1412.928
595,0.989667,1406.893
596,0.991333,1404.36
597,0.9929829999999999,1401.901
598,0.99465,1401.901
599,0.996317,1405.403
600,0.997983,1405.328
601,0.99965,1405.328
602,1.001317,1402.944
603,1.002983,1401.603
604,1.00465,1396.835
605,1.006317,1396.835
606,1.008017,1390.204
607,1.00965,1385.734
608,1.011317,1383.871
609,1.012983,1383.871
610,1.01465,1379.997
611,1.016317,1379.102
612,1.017983,1377.091
613,1.01965,1377.091
614,1.021317,1374.036
615,1.022983,1372.099
616,1.02475,1371.726
617,1.026317,1371.726
618,1.027983,1369.342
619,1.02965,1368.97
620,1.031317,1368.97
621,1.032983,1367.927
622,1.03465,1366.511
623,1.036317,1366.66
624,1.037983,1366.66
625,1.03965,1365.319
626,1.041317,1362.19
627,1.042983,1360.104
628,1.04465,1360.104
629,1.046317,1355.931
630,1.047983,1348.928
631,1.04965,1348.257
632,1.0513,1348.257
633,1.052967,1346.543
634,1.054633,1343.191
635,1.0563,1343.191
636,1.057967,1342.818
637,1.059633,1339.689
638,1.0613,1336.932
639,1.062967,1336.932
640,1.064633,1338.571
641,1.0663,1338.05
642,1.067967,1339.093
643,1.069633,1339.093
644,1.0713,1337.007
645,1.072967,1333.877
646,1.074633,1335.517
647,1.0763,1335.517
648,1.077983,1335.74
649,1.079633,1334.324
650,1.0813,1334.399
651,1.082967,1334.399
652,1.084633,1332.015
653,1.0863,1328.364
654,1.087967,1328.364
655,1.089633,1329.333
656,1.09135,1328.364
657,1.092967,1325.98
658,1.094633,1325.98
659,1.0963,1325.384
660,1.097967,1322.851
661,1.099633,1323.521
662,1.1013,1323.521
663,1.102967,1323.67
664,1.104633,1321.51
665,1.1063,1320.094
666,1.107967,1320.094
667,1.1097,1315.773
668,1.111283,1315.624
669,1.11295,1315.624
670,1.114617,1313.984
671,1.116283,1314.804
672,1.11795,1318.306
673,1.119617,1318.306
674,1.121283,1318.604
675,1.12295,1318.678
676,1.124633,1314.953
677,1.126283,1314.953
678,1.12795,1308.098
679,1.129617,1303.181
680,1.131283,1302.585
681,1.13295,1302.585
682,1.134617,1302.213
683,1.136283,1303.181
684,1.13795,1301.914
685,1.139617,1301.914
686,1.141283,1302.361
687,1.142967,1301.095
688,1.144617,1301.095
689,1.146283,1299.009
690,1.14795,1299.977
691,1.149617,1297.146
692,1.151283,1297.146
693,1.15295,1299.381
694,1.154617,1298.86
695,1.156283,1294.464
696,1.15795,1294.464
697,1.159617,1289.994
698,1.161283,1285.97
699,1.16295,1284.108
700,1.164617,1284.108
701,1.166283,1285.225
702,1.16795,1285.523
703,1.1696,1285.523
704,1.171267,1286.715
705,1.172933,1287.907
706,1.1746,1286.79
707,1.176267,1286.79
708,1.177933,1287.982
709,1.1796,1286.119
710,1.181267,1286.641
711,1.182933,1286.641
712,1.1846,1284.406
713,1.186267,1281.947
714,1.187933,1280.382
715,1.1896,1280.382
716,1.191267,1274.72
717,1.192933,1273.23
718,1.1946,1273.23
719,1.196267,1269.877
720,1.197933,1268.238
721,1.1996,1270.473
722,1.201267,1270.473
723,1.202933,1273.975
724,1.2046,1274.124
725,1.206267,1271.516
726,1.207933,1271.516
727,1.2096,1269.728
728,1.211267,1266.897
729,1.212933,1269.579
730,1.2146,1269.579
731,1.216267,1274.943
732,1.217933,1276.433
733,1.2196,1277.7
734,1.22125,1277.7
735,1.222917,1277.7
736,1.224583,1275.167
737,1.22625,1275.167
738,1.227983,1273.081
739,1.229567,1267.791
740,1.231233,1263.246
741,1.2329,1263.246
742,1.234567,1261.905
743,1.236233,1261.905
744,1.2379,1265.183
745,1.239567,1265.183
746,1.241233,1268.536
747,1.2429,1270.175
748,1.244567,1270.697
749,1.246233,1270.697
750,1.2479,1269.579
751,1.249567,1268.387
752,1.251233,1268.387
753,1.2529,1268.014
754,1.254567,1268.685
755,1.256233,1268.685
756,1.2579,1268.685
757,1.259567,1267.791
758,1.261267,1263.917
759,1.2629,1259.223
760,1.264567,1259.223
761,1.266233,1259.148
762,1.2679,1258.329
763,1.269567,1258.403
764,1.271233,1258.403
765,1.2729,1257.658
766,1.274567,1254.082
767,1.276233,1255.87
768,1.2779,1255.87
769,1.279567,1256.242
770,1.281233,1255.125
771,1.2829,1255.125
772,1.284567,1254.827
773,1.286233,1253.635
774,1.2879,1252.592
775,1.289567,1252.592
776,1.291217,1255.05
777,1.292883,1255.944
778,1.29455,1250.207
779,1.296217,1250.207
780,1.2979,1246.929
781,1.299567,1245.961
782,1.301217,1244.247
783,1.302883,1244.247
784,1.30455,1245.737
785,1.306217,1248.643
786,1.307883,1248.643
787,1.30955,1248.568
788,1.311217,1247.972
789,1.312883,1250.878
790,1.31455,1250.878
791,1.316217,1247.898
792,1.317883,1247.451
793,1.31955,1248.494
794,1.321217,1248.494
795,1.322883,1247.823
796,1.32455,1249.388
797,1.326217,1250.207
798,1.327883,1250.207
799,1.32955,1249.537
800,1.331217,1246.631
801,1.332883,1244.62
802,1.33455,1244.62
803,1.336217,1241.043
804,1.337883,1240.373
805,1.33955,1240.373
806,1.341217,1238.212
807,1.342883,1238.212
808,1.34455,1240.149
809,1.346267,1240.149
810,1.347883,1239.628
811,1.34955,1241.639
812,1.3512,1241.043
813,1.352867,1241.043
814,1.354533,1241.937
815,1.3562,1243.949
816,1.357867,1242.682
817,1.359533,1242.682
818,1.3612,1244.694
819,1.36295,1241.043
820,1.364533,1241.043
821,1.3662,1237.094
822,1.367867,1237.616
823,1.369533,1236.2
824,1.3712,1236.2
825,1.372867,1234.338
826,1.374533,1232.028
827,1.3762,1230.985
828,1.377867,1230.985
829,1.379617,1231.506
830,1.3812,1233.071
831,1.382867,1235.604
832,1.384533,1235.604
833,1.3862,1235.679
834,1.387867,1234.263
835,1.389533,1234.263
836,1.3912,1232.028
837,1.392867,1230.314
838,1.394533,1229.644
839,1.396317,1229.644
840,1.397867,1227.334
841,1.399533,1229.867
842,1.4012,1232.475
843,1.402867,1232.475
844,1.404533,1232.55
845,1.4062,1234.263
846,1.407867,1232.848
847,1.409533,1232.848
848,1.411183,1231.581
849,1.41285,1231.208
850,1.414517,1228.75
851,1.416183,1228.75
852,1.41785,1227.111
853,1.419517,1226.515
854,1.421183,1226.515
855,1.42285,1226.515
856,1.424517,1226.366
857,1.426183,1226.44
858,1.42785,1226.44
859,1.429517,1227.036
860,1.431183,1224.354
861,1.43285,1224.205
862,1.434517,1224.205
863,1.436183,1228.899
864,1.437867,1227.93
865,1.439517,1228.675
866,1.441183,1228.675
867,1.44285,1229.495
868,1.444517,1225.62
869,1.446183,1225.62
870,1.44785,1225.919
871,1.449517,1227.334
872,1.451183,1228.824
873,1.45285,1228.824
874,1.454517,1230.314
875,1.456183,1228.303
876,1.45785,1225.993
877,1.459517,1225.993
878,1.461183,1224.428
879,1.46285,1222.938
880,1.464517,1223.683
881,1.466183,1223.683
882,1.46785,1226.217
883,1.469517,1225.099
884,1.471167,1224.13
885,1.472833,1224.13
886,1.4745,1223.46
887,1.476167,1222.119
888,1.477833,1222.119
889,1.4795,1225.248
890,1.481233,1225.546
891,1.482833,1226.962
892,1.4845,1226.962
893,1.486167,1227.409
894,1.487833,1223.236
895,1.4895,1223.683
896,1.491167,1223.683
897,1.492833,1223.534
898,1.4945,1223.46
899,1.496167,1223.758
900,1.4979,1223.758
901,1.4995,1221.448
902,1.501167,1220.107
903,1.502833,1220.107
904,1.5045,1218.542
905,1.506167,1219.884
906,1.507833,1223.534
907,1.5095,1223.534
908,1.51115,1223.013
909,1.512833,1223.683
910,1.514483,1225.024
911,1.51615,1225.024
912,1.517817,1224.726
