"ID","sea_time","fid_signal"
1,0,1207.441
2,0.001667,1207.441
3,0.00335,1205.802
4,0.005,1204.461
5,0.006667,1204.461
6,0.008333,1204.461
7,0.01,1202.449
8,0.011667,1197.159
9,0.013333,1197.159
10,0.015,1192.242
11,0.016667,1190.081
12,0.018333,1192.167
13,0.02,1192.167
14,0.021667,1198.5
15,0.023333,1200.81
16,0.025,1202.226
17,0.026667,1202.226
18,0.028317,1201.481
19,0.029983,1197.979
20,0.0317,1198.649
21,0.033317,1198.649
22,0.034983,1198.873
23,0.036667,1202.151
24,0.038317,1202.151
25,0.039967,1205.355
26,0.041633,1209.229
27,0.0433,1209.527
28,0.044967,1209.527
29,0.046633,1209.527
30,0.048367,1208.559
31,0.049967,1204.759
32,0.051633,1204.759
33,0.0533,1204.535
34,0.054967,1202.524
35,0.056633,1200.661
36,0.0583,1200.661
37,0.059967,1203.12
38,0.061633,1205.057
39,0.0633,1205.057
40,0.06503299999999999,1205.057
41,0.066633,1207.218
42,0.0683,1208.559
43,0.069967,1208.559
44,0.071633,1206.696
45,0.0733,1207.069
46,0.07496700000000001,1207.59
47,0.07663300000000001,1207.59
48,0.07829999999999999,1205.131
49,0.079967,1205.429
50,0.08175,1204.908
51,0.0833,1204.908
52,0.084967,1203.865
53,0.086633,1203.79
54,0.0883,1207.441
55,0.08995,1207.441
56,0.091617,1210.943
57,0.093283,1210.347
58,0.09495000000000001,1210.347
59,0.09661699999999999,1210.645
60,0.098283,1209.974
61,0.09995,1209.378
62,0.101617,1209.378
63,0.103283,1213.327
64,0.10495,1215.041
65,0.106617,1213.476
66,0.108283,1213.476
67,0.10995,1209.751
68,0.111633,1207.441
69,0.113283,1208.261
70,0.11495,1208.261
71,0.116617,1208.484
72,0.118283,1212.135
73,0.11995,1212.135
74,0.121617,1211.911
75,0.123283,1210.198
76,0.12495,1209.602
77,0.126617,1209.602
78,0.128283,1209.155
79,0.12995,1207.665
80,0.131617,1206.547
81,0.133283,1206.547
82,0.13495,1207.963
83,0.136617,1206.622
84,0.138283,1206.696
85,0.13995,1206.696
86,0.141617,1208.857
87,0.143283,1206.771
88,0.14495,1207.516
89,0.146617,1207.516
90,0.148283,1209.304
91,0.149933,1209.602
92,0.1516,1209.602
93,0.153267,1212.209
94,0.154933,1213.551
95,0.1566,1214.966
96,0.158267,1214.966
97,0.159933,1214.072
98,0.1616,1212.507
99,0.163267,1210.57
100,0.164933,1210.57
101,0.1667,1207.069
102,0.168267,1208.335
103,0.169933,1206.473
104,0.1716,1206.473
105,0.173267,1205.429
106,0.174933,1208.112
107,0.1766,1208.112
108,0.178283,1205.653
109,0.179933,1208.633
110,0.1816,1208.708
111,0.183267,1208.708
112,0.184933,1206.696
113,0.1866,1205.727
114,0.188267,1203.343
115,0.189933,1203.343
116,0.1916,1202.002
117,0.193267,1202.896
118,0.194933,1203.269
119,0.1966,1203.269
120,0.198267,1205.131
121,0.20005,1207.143
122,0.2016,1207.143
123,0.203267,1204.833
124,0.204933,1204.237
125,0.2066,1202.226
126,0.20825,1202.226
127,0.209917,1201.779
128,0.211583,1203.194
129,0.21325,1202.375
130,0.214917,1202.375
131,0.216583,1200.885
132,0.21825,1200.363
133,0.219917,1198.053
134,0.221583,1198.053
135,0.22325,1202.002
136,0.224917,1204.088
137,0.226583,1204.386
138,0.22825,1204.386
139,0.229917,1206.398
140,0.231583,1204.461
141,0.23325,1204.461
142,0.234917,1203.418
143,0.236583,1203.194
144,0.23825,1204.982
145,0.239917,1204.982
146,0.241583,1205.802
147,0.24325,1207.59
148,0.244917,1208.484
149,0.246583,1208.484
150,0.24825,1209.378
151,0.249917,1210.645
152,0.251583,1209.304
153,0.25325,1209.304
154,0.254917,1208.484
155,0.256583,1208.559
156,0.25825,1208.559
157,0.259917,1206.845
158,0.261583,1206.398
159,0.26325,1206.398
160,0.264917,1206.398
161,0.266583,1206.547
162,0.268233,1206.845
163,0.2699,1209.08
164,0.271567,1209.08
165,0.273233,1212.06
166,0.2749,1211.837
167,0.276567,1210.794
168,0.278233,1210.794
169,0.2799,1209.304
170,0.281567,1207.59
171,0.283233,1207.143
172,0.284983,1207.143
173,0.286567,1209.229
174,0.288233,1209.527
175,0.2899,1209.527
176,0.291567,1208.559
177,0.293233,1206.994
178,0.2949,1206.174
179,0.296567,1206.174
180,0.298233,1205.504
181,0.2999,1207.814
182,0.3016,1209.006
183,0.303233,1209.006
184,0.3049,1211.092
185,0.306567,1212.731
186,0.308233,1212.507
187,0.3099,1212.507
188,0.311567,1208.931
189,0.313233,1204.833
190,0.3149,1204.833
191,0.316567,1203.269
192,0.3183,1201.853
193,0.3199,1202.524
194,0.321567,1202.524
195,0.323233,1205.429
196,0.3249,1206.547
197,0.326567,1207.963
198,0.328217,1207.963
199,0.329867,1209.229
200,0.331567,1209.08
201,0.3332,1209.676
202,0.334867,1209.676
203,0.336533,1207.069
204,0.3382,1206.174
205,0.339867,1204.163
206,0.341533,1204.163
207,0.3432,1203.343
208,0.344867,1204.088
209,0.346533,1204.088
210,0.3482,1203.567
211,0.349867,1206.473
212,0.351533,1208.708
213,0.353217,1208.708
214,0.354867,1211.464
215,0.356533,1216.382
216,0.3582,1217.127
217,0.359867,1217.127
218,0.361533,1219.809
219,0.3632,1225.471
220,0.364867,1229.942
221,0.366533,1229.942
222,0.3682,1235.604
223,0.369867,1241.788
224,0.371533,1241.788
225,0.3732,1245.737
226,0.374867,1253.039
227,0.376533,1258.627
228,0.3782,1258.627
229,0.379867,1260.936
230,0.381533,1263.32
231,0.3832,1269.802
232,0.384867,1269.802
233,0.386533,1274.645
234,0.3882,1283.661
235,0.38985,1296.848
236,0.391517,1296.848
237,0.393183,1302.883
238,0.39485,1313.388
239,0.396517,1313.388
240,0.398183,1322.031
241,0.3999,1330.078
242,0.401517,1339.614
243,0.403267,1339.614
244,0.40485,1349.002
245,0.406517,1355.782
246,0.408183,1361.37
247,0.40985,1361.37
248,0.411517,1367.032
249,0.413183,1372.918
250,0.41485,1379.102
251,0.416517,1379.102
252,0.418183,1385.584
253,0.41985,1391.694
254,0.421517,1393.259
255,0.423183,1393.259
256,0.42485,1396.537
257,0.426517,1400.262
258,0.428183,1400.262
259,0.42985,1404.062
260,0.431517,1406.67
261,0.433183,1408.532
262,0.43485,1408.532
263,0.436617,1405.925
264,0.438183,1403.466
265,0.43985,1402.572
266,0.441517,1402.572
267,0.443183,1399.294
268,0.44485,1395.494
269,0.446517,1390.576
270,0.448183,1390.576
271,0.449833,1387.447
272,0.4515,1387.224
273,0.453167,1387.224
274,0.454833,1387
275,0.4565,1384.392
276,0.458167,1385.51
277,0.459833,1385.51
278,0.4615,1390.8
279,0.463167,1405.105
280,0.464833,1431.257
281,0.4665,1431.257
282,0.468167,1468.658
283,0.469833,1523.793
284,0.4715,1607.91
285,0.473217,1607.91
286,0.474833,1728.907
287,0.4765,1900.122
288,0.478167,2134.368
289,0.479833,2134.368
290,0.4815,2440.885
291,0.483167,2837.405
292,0.484833,2837.405
293,0.4865,3341.213
294,0.488167,3964.156
295,0.489833,4718.825
296,0.4915,4718.825
297,0.493167,5610.436
298,0.494833,6641.597
299,0.4965,7817.969
300,0.498167,7817.969
301,0.499833,9133.965
302,0.5014999999999999,10589.361
303,0.503167,12178.645
304,0.504833,12178.645
305,0.5065,13889.745
306,0.50815,15718.714
307,0.509817,15718.714
308,0.511483,17653.107
309,0.51315,19680.635
310,0.514817,21789.893
311,0.516483,21789.893
312,0.51815,23969.709
313,0.519817,26209.131
314,0.52155,28489.754
315,0.52315,28489.754
316,0.524817,30798.613
317,0.526483,33114.402
318,0.52815,35422.223
319,0.529817,35422.223
320,0.531483,37710.07
321,0.53315,39961.113
322,0.534817,42161.57
323,0.536483,42161.57
324,0.53815,44296.832
325,0.539817,46356.098
326,0.541483,46356.098
327,0.54315,48335.344
328,0.544817,50219.969
329,0.546517,52004.902
330,0.54815,52004.902
331,0.549817,53680.391
332,0.5514829999999999,55234.73
333,0.55315,56670.309
334,0.554933,56670.309
335,0.5564829999999999,57980.715
336,0.55815,59159.695
337,0.559817,60202.926
338,0.561483,60202.926
339,0.56315,61105.414
340,0.564817,61864.852
341,0.566483,61864.852
342,0.568133,62476.77
343,0.5698,62941.609
344,0.5714669999999999,63263.773
345,0.573133,63263.773
346,0.5748,63439.457
347,0.576467,63472.02
348,0.578133,63363.461
349,0.5798,63363.461
350,0.581483,63119.68
351,0.583133,62745.289
352,0.5848,62249.75
353,0.586467,62249.75
354,0.588133,61641.113
355,0.5898,60923.844
356,0.591467,60111.953
357,0.593133,60111.953
358,0.5948,59218.703
359,0.596467,58248.641
360,0.598133,58248.641
361,0.5998,57221.504
362,0.601467,56142.883
363,0.603133,55020.152
364,0.6048,55020.152
365,0.606467,53868.742
366,0.608133,52689.387
367,0.6098,51493.941
368,0.611467,51493.941
369,0.613133,50289.93
370,0.6148169999999999,49084.051
371,0.616467,47885.254
372,0.618133,47885.254
373,0.6198,46697.707
374,0.6214499999999999,45528.039
375,0.623133,45528.039
376,0.624783,44376.699
377,0.62645,43242.051
378,0.6281,42132.809
379,0.629767,42132.809
380,0.631433,41044.355
381,0.6331,39980.711
382,0.634767,38945.676
383,0.636433,38945.676
384,0.6381,37938.73
385,0.639833,36962.254
386,0.641433,36014.914
387,0.6431,36014.914
388,0.644767,35098.195
389,0.646433,34207.402
390,0.6481,34207.402
391,0.649767,33346.414
392,0.651433,32512.695
393,0.6531,31703.189
394,0.654767,31703.189
395,0.656433,30922.293
396,0.6581,30168.668
397,0.659767,29442.459
398,0.661433,29442.459
399,0.6631,28739.572
400,0.664767,28055.832
401,0.6664330000000001,27390.941
402,0.6681,27390.941
403,0.669767,26748.18
404,0.6714329999999999,26127.846
405,0.673217,25530.01
406,0.674767,25530.01
407,0.676433,24951.398
408,0.6781,24393.053
409,0.679767,24393.053
410,0.681433,23856.014
411,0.6831,23337.453
412,0.684767,22835.359
413,0.686433,22835.359
414,0.6881,22348.463
415,0.68975,21873.861
416,0.69145,21410.063
417,0.693083,21410.063
418,0.69475,20961.91
419,0.696417,20528.436
420,0.698083,20107.18
421,0.69975,20107.18
422,0.701417,19707.381
423,0.703083,19321.145
424,0.70475,19321.145
425,0.706417,18942.877
426,0.708083,18578.619
427,0.70975,18219.873
428,0.711417,18219.873
429,0.713083,17873.943
430,0.71475,17541.424
431,0.716417,17217.025
432,0.718083,17217.025
433,0.71975,16905.367
434,0.721417,16600.787
435,0.723083,16302.765
436,0.72475,16302.765
437,0.726417,16016.736
438,0.728083,15734.807
439,0.72975,15463.158
440,0.731417,15463.158
441,0.733083,15199.482
442,0.73475,14944.971
443,0.736417,14944.971
444,0.738083,14697.909
445,0.73975,14456.585
446,0.741417,14221.222
447,0.743083,14221.222
448,0.74475,13988.838
449,0.746417,13764.649
450,0.7480830000000001,13548.583
451,0.749733,13548.583
452,0.7514,13340.488
453,0.753067,13136.938
454,0.754733,12937.934
455,0.756417,12937.934
456,0.7581329999999999,12738.108
457,0.759733,12546.479
458,0.761417,12546.479
459,0.7630670000000001,12360.364
460,0.764733,12181.252
461,0.7664,12005.717
462,0.7680670000000001,12005.717
463,0.769733,11831.597
464,0.7714,11664.257
465,0.7730669999999999,11500.939
466,0.774733,11500.939
467,0.7764,11344.999
468,0.778067,11192.337
469,0.779733,11042.952
470,0.7814,11042.952
471,0.783067,10894.835
472,0.784733,10750.815
473,0.7864,10614.396
474,0.788067,10614.396
475,0.789733,10477.379
476,0.79145,10343.939
477,0.793067,10343.939
478,0.794733,10211.989
479,0.7964,10079.443
480,0.798083,9953.901
481,0.799733,9953.901
482,0.8014,9831.264999999999
483,0.803067,9713.322
484,0.804733,9601.563
485,0.8064,9601.563
486,0.808167,9489.581
487,0.809717,9380.653
488,0.811383,9270.906000000001
489,0.8130500000000001,9270.906000000001
490,0.814717,9161.234
491,0.816383,9055.51
492,0.8180500000000001,9055.51
493,0.819717,8951.5
494,0.821383,8854.717000000001
495,0.8230499999999999,8756.891
496,0.824717,8756.891
497,0.826383,8660.928
498,0.82805,8566.901
499,0.829717,8471.235000000001
500,0.831383,8471.235000000001
501,0.83305,8380.785
502,0.834717,8293.539000000001
503,0.836383,8206.367
504,0.83805,8206.367
505,0.839717,8122.325
506,0.841383,8036.42
507,0.84305,8036.42
508,0.8447170000000001,7951.855
509,0.846383,7870.868
510,0.84805,7788.688
511,0.8497169999999999,7788.688
512,0.851383,7712.543
513,0.85305,7638.037
514,0.8547169999999999,7563.159
515,0.856383,7563.159
516,0.85805,7494.539
517,0.859717,7423.088
518,0.861383,7352.68
519,0.86305,7352.68
520,0.864717,7282.942
521,0.866383,7213.801
522,0.86805,7148.758
523,0.8697,7148.758
524,0.871367,7084.459
525,0.8730329999999999,7023.364
526,0.8747,7023.364
527,0.8764,6958.097
528,0.87805,6893.799
529,0.8797,6830.618
530,0.881367,6830.618
531,0.883033,6767.586
532,0.8847,6710.216
533,0.886367,6651.729
534,0.888033,6651.729
535,0.8897,6595.999
536,0.891367,6541.386
537,0.893083,6487.444
538,0.8947000000000001,6487.444
539,0.896367,6433.278
540,0.898033,6379.634
541,0.8997000000000001,6379.634
542,0.901367,6326.81
543,0.903033,6275.848
544,0.9046999999999999,6226.972
545,0.906383,6226.972
546,0.908033,6179.958
547,0.9098000000000001,6133.616
548,0.911367,6088.465
549,0.913017,6088.465
550,0.914683,6043.836
551,0.91635,5996.004
552,0.918017,5949.661
553,0.919683,5949.661
554,0.92135,5901.456
555,0.923017,5856.082
556,0.924683,5812.198
557,0.92635,5812.198
558,0.928017,5767.718
559,0.929667,5723.983
560,0.93135,5723.983
561,0.9330000000000001,5684.569
562,0.934667,5644.262
563,0.936333,5604.774
564,0.9379999999999999,5604.774
565,0.939667,5568.937
566,0.941333,5528.256
567,0.9429999999999999,5492.494
568,0.944667,5492.494
569,0.946333,5454.198
570,0.948,5414.262
571,0.949667,5375.147
572,0.951333,5375.147
573,0.953,5335.882
574,0.954667,5300.269
575,0.956333,5300.269
576,0.958,5262.941
577,0.959667,5229.488
578,0.961333,5197.451
579,0.963,5197.451
580,0.9646670000000001,5164.146
581,0.966333,5134.418
582,0.968,5102.381
583,0.9696669999999999,5102.381
584,0.971333,5067.587
585,0.973,5037.114
586,0.9747169999999999,5005.3
587,0.976333,5005.3
588,0.978,4976.168
589,0.979667,4947.782
590,0.981333,4947.782
591,0.983,4916.191
592,0.984667,4883.93
593,0.986333,4851.52
594,0.9879829999999999,4851.52
595,0.98965,4822.612
596,0.991317,4796.162
597,0.9929829999999999,4771.054
598,0.99465,4771.054
599,0.996317,4745.945
600,0.997983,4716.813
601,0.99965,4687.533
602,1.001317,4687.533
603,1.002983,4659.742
604,1.00465,4631.653
605,1.006317,4605.129
606,1.007983,4605.129
607,1.00965,4579.723
608,1.01135,4554.838
609,1.012983,4554.838
610,1.01465,4531.145
611,1.016317,4506.633
612,1.017983,4483.313
613,1.01965,4483.313
614,1.021317,4462.674
615,1.022983,4438.013
616,1.02465,4417.077
617,1.026317,4417.077
618,1.028033,4395.693
619,1.02965,4369.169
620,1.031317,4347.563
621,1.032983,4347.563
622,1.03465,4324.913
623,1.036317,4299.879
624,1.037983,4299.879
625,1.03965,4276.931
626,1.041317,4255.399
627,1.042983,4234.835
628,1.04475,4234.835
629,1.046317,4215.091
630,1.047967,4194.9
631,1.049667,4175.901
632,1.05135,4175.901
633,1.052967,4153.624
634,1.054633,4134.625
635,1.0563,4119.277
636,1.057967,4119.277
637,1.059633,4097.298
638,1.0613,4076.809
639,1.062967,4057.884
640,1.064633,4057.884
641,1.0663,4035.085
642,1.067967,4015.863
643,1.069633,4015.863
644,1.0713,3998.652
645,1.072967,3980.771
646,1.074633,3962.815
647,1.0763,3962.815
648,1.077967,3947.467
649,1.079633,3931.15
650,1.0813,3912.896
651,1.082967,3912.896
652,1.084633,3899.336
653,1.0863,3880.858
654,1.087967,3863.126
655,1.089633,3863.126
656,1.0913,3846.139
657,1.092967,3830.269
658,1.094633,3830.269
659,1.0963,3817.305
660,1.097967,3801.584
661,1.099633,3786.087
662,1.1013,3786.087
663,1.102967,3769.77
664,1.104633,3751.218
665,1.1063,3737.062
666,1.10795,3737.062
667,1.109617,3722.906
668,1.111283,3703.237
669,1.112967,3687.59
670,1.114617,3687.59
671,1.116283,3668.219
672,1.11795,3651.381
673,1.119617,3636.405
674,1.121283,3636.405
675,1.12295,3622.696
676,1.124617,3612.861
677,1.126317,3612.861
678,1.12795,3602.058
679,1.129683,3588.647
680,1.131283,3570.765
681,1.13295,3570.765
682,1.134617,3556.982
683,1.136283,3541.335
684,1.13795,3529.713
685,1.139617,3529.713
686,1.141283,3518.984
687,1.14295,3506.616
688,1.144617,3495.663
689,1.146283,3495.663
690,1.14795,3481.88
691,1.149617,3469.661
692,1.151283,3469.661
693,1.15295,3454.834
694,1.154617,3439.859
695,1.156283,3426.596
696,1.15795,3426.596
697,1.159617,3415.719
698,1.161283,3401.786
699,1.16305,3391.43
700,1.164617,3391.43
701,1.166283,3381.148
702,1.167933,3370.717
703,1.1696,3362
704,1.171267,3362
705,1.172933,3348.961
706,1.1746,3334.805
707,1.176267,3322.959
708,1.177933,3322.959
709,1.1796,3309.92
710,1.181267,3298.745
711,1.182933,3298.745
712,1.1846,3291.071
713,1.186283,3274.828
714,1.187933,3263.056
715,1.1896,3263.056
716,1.191267,3252.551
717,1.192933,3236.979
718,1.1946,3225.952
719,1.196267,3225.952
720,1.197933,3212.988
721,1.1996,3201.365
722,1.201267,3196.523
723,1.202933,3196.523
724,1.204583,3187.88
725,1.20625,3181.621
726,1.207917,3181.621
727,1.209583,3172.383
728,1.21125,3159.642
729,1.212917,3151.447
730,1.214583,3151.447
731,1.21625,3139.824
732,1.217917,3128.275
733,1.219583,3118.143
734,1.22125,3118.143
735,1.222917,3106.371
736,1.224583,3098.324
737,1.22625,3091.767
738,1.227917,3091.767
739,1.229567,3085.136
740,1.231233,3079.846
741,1.2329,3079.846
742,1.234567,3072.619
743,1.236233,3065.765
744,1.2379,3059.208
745,1.239567,3059.208
746,1.241233,3051.162
747,1.2429,3039.613
748,1.244567,3026.351
749,1.246233,3026.351
750,1.247967,3013.834
751,1.249567,3002.211
752,1.251233,2995.655
753,1.2529,2995.655
754,1.254567,2989.098
755,1.256233,2979.636
756,1.2579,2970.025
757,1.259567,2970.025
758,1.261233,2958.551
759,1.2629,2948.195
760,1.264567,2948.195
761,1.266233,2942.16
762,1.2679,2937.391
763,1.269567,2930.313
764,1.271233,2930.313
765,1.2729,2923.831
766,1.274567,2915.561
767,1.276233,2905.205
768,1.2779,2905.205
769,1.279567,2896.264
770,1.28135,2887.547
771,1.2829,2880.692
772,1.284567,2880.692
773,1.286233,2874.359
774,1.287883,2868.324
775,1.28955,2868.324
776,1.291217,2861.172
777,1.292883,2850.741
778,1.29455,2843.738
779,1.296217,2843.738
780,1.297883,2839.267
781,1.29955,2834.499
782,1.301217,2830.923
783,1.302883,2830.923
784,1.30455,2823.77
785,1.306217,2814.755
786,1.307883,2808.496
787,1.30955,2808.496
788,1.311217,2798.438
789,1.312883,2791.136
790,1.31455,2784.208
791,1.316217,2784.208
792,1.317883,2773.479
793,1.31955,2764.314
794,1.321217,2764.314
795,1.322883,2757.683
796,1.32455,2751.947
797,1.326217,2744.198
798,1.327883,2744.198
799,1.329567,2739.578
800,1.331217,2730.191
801,1.332883,2722.368
802,1.33455,2722.368
803,1.336217,2717.748
804,1.337883,2710.149
805,1.33955,2707.02
806,1.341217,2707.02
807,1.342883,2701.208
808,1.34455,2696.44
809,1.346217,2696.44
810,1.347867,2692.193
811,1.349533,2686.381
812,1.3512,2680.644
813,1.352867,2680.644
814,1.354533,2672.672
815,1.3562,2667.457
816,1.357867,2663.284
817,1.359533,2663.284
818,1.3612,2654.195
819,1.362867,2646.074
820,1.364533,2640.56
821,1.36625,2640.56
822,1.367867,2631.917
823,1.369533,2627.149
824,1.3712,2622.455
825,1.372867,2622.455
826,1.374533,2616.048
827,1.3762,2610.087
828,1.377867,2610.087
829,1.379533,2606.809
830,1.3812,2602.562
831,1.382867,2596.006
832,1.384533,2596.006
833,1.3862,2593.249
834,1.387883,2586.022
835,1.389533,2580.732
836,1.3912,2580.732
837,1.392867,2576.485
838,1.394533,2567.396
839,1.3962,2560.765
840,1.397867,2560.765
841,1.39965,2555.177
842,1.4012,2549.291
843,1.402867,2549.291
844,1.404533,2544.746
845,1.4062,2539.978
846,1.407883,2538.413
847,1.409517,2538.413
848,1.411183,2536.55
849,1.41285,2533.645
850,1.414517,2531.707
851,1.416183,2531.707
852,1.41785,2523.884
853,1.419517,2519.041
854,1.421183,2515.465
855,1.42285,2515.465
856,1.424517,2511.069
857,1.426183,2505.779
858,1.42785,2505.779
859,1.429517,2497.062
860,1.431183,2489.165
861,1.43285,2480.894
862,1.434517,2480.894
863,1.436183,2474.859
864,1.43785,2471.805
865,1.439517,2470.613
866,1.441183,2470.613
867,1.44285,2465.919
868,1.444517,2462.491
869,1.446183,2455.562
870,1.44785,2455.562
871,1.449517,2446.175
872,1.451183,2443.939
873,1.45285,2438.873
874,1.454517,2438.873
875,1.456183,2436.414
876,1.45785,2433.062
877,1.459517,2433.062
878,1.461183,2427.623
879,1.46285,2426.654
880,1.464517,2419.278
881,1.466183,2419.278
882,1.46785,2414.808
883,1.4695,2409.741
884,1.471167,2400.95
885,1.472833,2400.95
886,1.474533,2400.205
887,1.476167,2396.926
888,1.477833,2394.021
889,1.4795,2394.021
890,1.481167,2392.531
891,1.482833,2389.029
892,1.48455,2385.899
893,1.486167,2385.899
894,1.487833,2380.982
895,1.4895,2373.383
896,1.491167,2373.383
897,1.492833,2364.442
898,1.4945,2356.246
899,1.49615,2353.638
900,1.497817,2353.638
901,1.499483,2350.733
902,1.50125,2349.243
903,1.502817,2349.317
904,1.504483,2349.317
905,1.50615,2345.741
906,1.507817,2344.474
907,1.509483,2339.184
908,1.51115,2339.184
909,1.512817,2331.212
