"ID","sea_time","fid_signal"
1,0,1196.116
2,0.001667,1193.359
3,0.00335,1193.359
4,0.005,1193.956
5,0.006667,1193.21
6,0.008333,1188.368
7,0.01,1188.368
8,0.011667,1187.474
9,0.013317,1184.195
10,0.014983,1184.195
11,0.01665,1184.344
12,0.018317,1188.517
13,0.019983,1190.528
14,0.02165,1190.528
15,0.023317,1189.56
16,0.024983,1190.007
17,0.0267,1192.763
18,0.028317,1192.763
19,0.029983,1191.273
20,0.03165,1192.093
21,0.033317,1189.56
22,0.034983,1189.56
23,0.036633,1184.568
24,0.0383,1187.026
25,0.039967,1187.026
26,0.041633,1190.081
27,0.043367,1194.03
28,0.044967,1197.532
29,0.046633,1197.532
30,0.048333,1198.053
31,0.049967,1197.904
32,0.051633,1197.979
33,0.0533,1197.979
34,0.054967,1197.606
35,0.056633,1196.34
36,0.0583,1198.351
37,0.060017,1198.351
38,0.061633,1197.681
39,0.0633,1197.681
40,0.064967,1196.414
41,0.066633,1196.414
42,0.0683,1190.975
43,0.069967,1189.262
44,0.071633,1189.262
45,0.0733,1186.058
46,0.07496700000000001,1188.964
47,0.07663300000000001,1193.732
48,0.07829999999999999,1193.732
49,0.079967,1193.881
50,0.081633,1195.148
51,0.0833,1193.956
52,0.084967,1193.956
53,0.086633,1192.391
54,0.0883,1192.912
55,0.08996700000000001,1195.595
56,0.09163300000000001,1195.595
57,0.09329999999999999,1193.21
58,0.094967,1193.509
59,0.09661699999999999,1193.509
60,0.098283,1194.179
61,0.09995,1194.328
62,0.101617,1197.904
63,0.103283,1197.904
64,0.10495,1197.532
65,0.106617,1197.681
66,0.108283,1195.148
67,0.10995,1195.148
68,0.111617,1195.222
69,0.113283,1194.477
70,0.11495,1197.755
71,0.116617,1197.755
72,0.118283,1198.724
73,0.119983,1199.842
74,0.121617,1201.332
75,0.123283,1201.332
76,0.12495,1196.936
77,0.126617,1196.638
78,0.128283,1196.638
79,0.12995,1195.595
80,0.131617,1192.391
81,0.133283,1190.454
82,0.13495,1190.454
83,0.136617,1190.975
84,0.138283,1190.528
85,0.13995,1194.85
86,0.141617,1194.85
87,0.143283,1197.979
88,0.14495,1199.32
89,0.146617,1200.438
90,0.148283,1200.438
91,0.14995,1198.128
92,0.151617,1196.042
93,0.1533,1196.042
94,0.15495,1195.371
95,0.1566,1194.403
96,0.158267,1193.657
97,0.159933,1193.657
98,0.1617,1195.595
99,0.163267,1192.912
100,0.164933,1191.646
101,0.1666,1191.646
102,0.168267,1193.136
103,0.169933,1194.179
104,0.1716,1196.563
105,0.173267,1196.563
106,0.174933,1197.979
107,0.1766,1195.818
108,0.17835,1192.987
109,0.179933,1192.987
110,0.1816,1192.987
111,0.183267,1192.838
112,0.184933,1192.838
113,0.1866,1193.509
114,0.188267,1195.446
115,0.189933,1195.371
116,0.1916,1195.371
117,0.193267,1194.85
118,0.19505,1193.136
119,0.1966,1193.062
120,0.198267,1193.062
121,0.199933,1192.763
122,0.2016,1193.359
123,0.203267,1194.999
124,0.204933,1194.999
125,0.2066,1192.912
126,0.208267,1193.285
127,0.209933,1193.285
128,0.2116,1190.975
129,0.213267,1191.646
130,0.214917,1192.54
131,0.216583,1192.54
132,0.21825,1194.775
133,0.219917,1196.936
134,0.221583,1197.085
135,0.22325,1197.085
136,0.224917,1197.755
137,0.226583,1192.838
138,0.22825,1193.062
139,0.229917,1193.062
140,0.231583,1191.646
141,0.23325,1192.391
142,0.234917,1192.391
143,0.236583,1194.924
144,0.23825,1194.254
145,0.239933,1196.414
146,0.241583,1196.414
147,0.24325,1194.03
148,0.244917,1193.881
149,0.246583,1196.191
150,0.24825,1196.191
151,0.249917,1194.775
152,0.251583,1193.136
153,0.25325,1190.975
154,0.254917,1190.975
155,0.256583,1186.132
156,0.25825,1185.536
157,0.259917,1188.368
158,0.261583,1188.368
159,0.26325,1189.858
160,0.264917,1193.657
161,0.266583,1193.657
162,0.26825,1195.073
163,0.269917,1197.606
164,0.271583,1196.116
165,0.27325,1196.116
166,0.274917,1196.042
167,0.276583,1196.116
168,0.278233,1191.497
169,0.279967,1191.497
170,0.281567,1191.124
171,0.283233,1191.795
172,0.2849,1191.571
173,0.286567,1191.571
174,0.288233,1192.316
175,0.2899,1195.744
176,0.291567,1195.744
177,0.293233,1193.21
178,0.2949,1191.497
179,0.2966,1193.732
180,0.298233,1193.732
181,0.2999,1192.838
182,0.301567,1191.72
183,0.303233,1193.657
184,0.304883,1193.657
185,0.30655,1193.434
186,0.308217,1194.403
187,0.309883,1197.383
188,0.31155,1197.383
189,0.313317,1195.148
190,0.314883,1196.265
191,0.31655,1195.967
192,0.318217,1195.967
193,0.319883,1193.21
194,0.32155,1193.509
195,0.323217,1193.509
196,0.324883,1192.912
197,0.32655,1190.007
198,0.328233,1193.21
199,0.329883,1193.21
200,0.33155,1196.489
201,0.333217,1196.712
202,0.334883,1196.489
203,0.33655,1196.489
204,0.338217,1191.795
205,0.339867,1189.485
206,0.341533,1188.368
207,0.3432,1188.368
208,0.344867,1191.199
209,0.346533,1195.371
210,0.3482,1195.371
211,0.349867,1192.763
212,0.351533,1189.709
213,0.353217,1190.007
214,0.354867,1190.007
215,0.356533,1189.262
216,0.3582,1194.85
217,0.359867,1199.916
218,0.361533,1199.916
219,0.3632,1199.171
220,0.364867,1198.277
221,0.366533,1195.818
222,0.3682,1195.818
223,0.369867,1195.148
224,0.371533,1196.936
225,0.3732,1200.736
226,0.374867,1200.736
227,0.376533,1203.12
228,0.3782,1204.386
229,0.379867,1204.386
230,0.381567,1205.653
231,0.3832,1205.951
232,0.384867,1205.653
233,0.386533,1205.653
234,0.3882,1206.547
235,0.389867,1209.453
236,0.391533,1216.903
237,0.3932,1216.903
238,0.394867,1233.444
239,0.396517,1262.575
240,0.398183,1312.122
241,0.39985,1312.122
242,0.401517,1405.179
243,0.403183,1566.336
244,0.40485,1566.336
245,0.406517,1837.835
246,0.408217,2277.493
247,0.40985,2955.198
248,0.411517,2955.198
249,0.413183,3962.74
250,0.41485,5401.82
251,0.416517,7386.282
252,0.418183,7386.282
253,0.41985,10044.724
254,0.421517,13528.243
255,0.423183,18012.672
256,0.42485,18012.672
257,0.426517,23686.961
258,0.428183,30726.566
259,0.42985,30726.566
260,0.431633,39272.16
261,0.433183,49383.418
262,0.43485,61026.289
263,0.436517,61026.289
264,0.438183,74086.633
265,0.43985,88375.883
266,0.441517,103657.398
267,0.443183,103657.398
268,0.44485,119685.008
269,0.446517,136188.125
270,0.448183,152909.906
271,0.44985,152909.906
272,0.451517,169608.813
273,0.453183,186058.797
274,0.45485,202080.453
275,0.4565,202080.453
276,0.458167,217489.969
277,0.459833,232141.094
278,0.4615,232141.094
279,0.463167,245912.594
280,0.464833,258699.422
281,0.4665,270425.531
282,0.468167,270425.531
283,0.469833,281011.406
284,0.4715,290375.344
285,0.473167,298420.938
286,0.474833,298420.938
287,0.476517,305054.531
288,0.478183,310180.844
289,0.479833,313667.125
290,0.4815,313667.125
291,0.483167,315372.875
292,0.484833,315167.25
293,0.4865,315167.25
294,0.488167,312962.281
295,0.489833,308756.094
296,0.4915,302627.094
297,0.493167,302627.094
298,0.494833,294751.594
299,0.4965,285377.156
300,0.498167,274802.813
301,0.499833,274802.813
302,0.5014999999999999,263357
303,0.503167,251349.063
304,0.504833,239044.203
305,0.5065,239044.203
306,0.508167,226678.109
307,0.509833,214446.641
308,0.5115,202488.375
309,0.513167,202488.375
310,0.514833,190905.406
311,0.51655,179771.703
312,0.51815,179771.703
313,0.519817,169130.641
314,0.521483,159027.578
315,0.52315,149484.719
316,0.524817,149484.719
317,0.526483,140500.141
318,0.52815,132063.781
319,0.529817,124155.133
320,0.531483,124155.133
321,0.53315,116762.891
322,0.534817,109869.469
323,0.536483,103454.891
324,0.53815,103454.891
325,0.539817,97488.609
326,0.541483,91942.54700000001
327,0.54315,91942.54700000001
328,0.544817,86797.625
329,0.5464830000000001,82022.92200000001
330,0.54815,77597.05499999999
331,0.5499000000000001,77597.05499999999
332,0.5514829999999999,73493.492
333,0.55315,69683.266
334,0.554833,66154.30499999999
335,0.5564829999999999,66154.30499999999
336,0.55815,62881.484
337,0.559817,59845.895
338,0.561483,57027.414
339,0.56315,57027.414
340,0.564817,54404.289
341,0.566483,51963.328
342,0.56815,49689.262
343,0.569817,49689.262
344,0.571483,47566.742
345,0.57315,45580.715
346,0.574817,45580.715
347,0.576467,43720.453
348,0.578133,41977.688
349,0.5798,40343.477
350,0.581483,40343.477
351,0.583133,38812.609
352,0.5848,37375.836
353,0.586467,36021.77
354,0.588133,36021.77
355,0.5898,34747.941
356,0.591467,33547.355
357,0.593133,32412.186
358,0.5948,32412.186
359,0.59645,31338.482
360,0.598117,30324.311
361,0.599783,30324.311
362,0.60145,29364.229
363,0.603117,28453.842
364,0.604783,27591.811
365,0.60645,27591.811
366,0.608117,26772.768
367,0.609783,25995.746
368,0.61145,25260.002
369,0.613117,25260.002
370,0.614783,24565.16
371,0.6164500000000001,23900.568
372,0.618133,23264.885
373,0.619783,23264.885
374,0.6214499999999999,22658.705
375,0.623117,22076.443
376,0.624783,22076.443
377,0.62645,21524.205
378,0.628117,20996.258
379,0.629783,20490.662
380,0.63145,20490.662
381,0.633117,20003.691
382,0.63485,19534.006
383,0.63645,19080.191
384,0.6381,19080.191
385,0.639767,18645.674
386,0.641433,18228.367
387,0.6431,17823.131
388,0.644767,17823.131
389,0.646433,17438.531
390,0.6481,17062.201
391,0.649767,16699.73
392,0.651433,16699.73
393,0.6531,16353.503
394,0.654767,16016.438
395,0.656433,16016.438
396,0.6581,15689.582
397,0.659767,15375.465
398,0.661433,15069.32
399,0.6631,15069.32
400,0.664767,14768.913
401,0.6664330000000001,14479.905
402,0.6682169999999999,14199.019
403,0.669767,14199.019
404,0.6714329999999999,13932.213
405,0.6731,13671.965
406,0.674767,13424.978
407,0.676433,13424.978
408,0.6781,13182.61
409,0.679767,12946.576
410,0.681433,12946.576
411,0.6831,12720.6
412,0.684767,12497.157
413,0.686433,12284.964
414,0.6881,12284.964
415,0.689767,12077.093
416,0.691433,11878.609
417,0.6931,11682.138
418,0.694767,11682.138
419,0.696417,11490.509
420,0.698117,11299.774
421,0.69975,11114.255
422,0.701417,11114.255
423,0.703083,10937.75
424,0.70475,10762.811
425,0.706417,10596.29
426,0.708083,10596.29
427,0.70975,10431.855
428,0.711417,10269.955
429,0.713083,10269.955
430,0.71475,10115.803
431,0.716417,9964.332
432,0.718083,9817.406000000001
433,0.71975,9817.406000000001
434,0.721417,9676.144
435,0.723083,9537.936
436,0.72475,9404.645
437,0.726417,9404.645
438,0.728083,9269.415999999999
439,0.72975,9136.498
440,0.731417,9010.583000000001
441,0.733083,9010.583000000001
442,0.73475,8883.326999999999
443,0.736417,8765.906000000001
444,0.738083,8765.906000000001
445,0.73975,8650.124
446,0.741417,8537.472
447,0.743083,8428.171
448,0.74475,8428.171
449,0.746417,8317.902
450,0.7480830000000001,8212.030000000001
451,0.74975,8107.349
452,0.751417,8107.349
453,0.753167,8004.084
454,0.75475,7904.47
455,0.756417,7808.954
456,0.758067,7808.954
457,0.759733,7710.308
458,0.7614,7617.846
459,0.7630670000000001,7526.949
460,0.764733,7526.949
461,0.766467,7438.063
462,0.7680670000000001,7350.966
463,0.769833,7350.966
464,0.7714,7264.465
465,0.7730669999999999,7180.199
466,0.774733,7095.486
467,0.7764,7095.486
468,0.778067,7015.839
469,0.779733,6941.408
470,0.7814,6868.541
471,0.783067,6868.541
472,0.784733,6797.388
473,0.786517,6724.969
474,0.788067,6652.624
475,0.789733,6652.624
476,0.7914,6581.843
477,0.793067,6511.658
478,0.794733,6511.658
479,0.7964,6445.497
480,0.798067,6378.293
481,0.799733,6313.696
482,0.8014,6313.696
483,0.803067,6249.547
484,0.804733,6187.782
485,0.8064,6129.444
486,0.808067,6129.444
487,0.809733,6069.839
488,0.8114,6010.831
489,0.813067,5950.779
490,0.814733,5950.779
491,0.816383,5891.546
492,0.8180500000000001,5834.326
493,0.819717,5834.326
494,0.821383,5781.278
495,0.8230499999999999,5728.454
496,0.824717,5676.97
497,0.826383,5676.97
498,0.82805,5623.251
499,0.829717,5572.587
500,0.831383,5523.786
501,0.83305,5523.786
502,0.834717,5475.134
503,0.8364,5429.313
504,0.83805,5380.809
505,0.839717,5380.809
506,0.841383,5331.486
507,0.84305,5285.442
508,0.8447170000000001,5243.346
509,0.846383,5243.346
510,0.84805,5200.431
511,0.84975,5160.645
512,0.851383,5160.645
513,0.85305,5118.549
514,0.8547169999999999,5074.739
515,0.856383,5035.326
516,0.85805,5035.326
517,0.859717,4995.987
518,0.861383,4954.338
519,0.86305,4916.862
520,0.864717,4916.862
521,0.866383,4877.374
522,0.86805,4835.427
523,0.869717,4799.068
524,0.8714,4799.068
525,0.87305,4760.474
526,0.8747,4722.998
527,0.876367,4722.998
528,0.878033,4691.035
529,0.8797,4661.307
530,0.881367,4629.046
531,0.883033,4629.046
532,0.8847,4596.785
533,0.886367,4563.183
534,0.8881,4526.377
535,0.889683,4526.377
536,0.89135,4495.159
537,0.8930169999999999,4463.568
538,0.894683,4430.711
539,0.89635,4430.711
540,0.898017,4402.399
541,0.899683,4371.181
542,0.90135,4341.603
543,0.903017,4341.603
544,0.904767,4315.376
545,0.90635,4286.319
546,0.908017,4286.319
547,0.909683,4258.752
548,0.91135,4233.345
549,0.913017,4206.375
550,0.914683,4206.375
551,0.91635,4179.701
552,0.918017,4151.389
553,0.919683,4125.685
554,0.92135,4125.685
555,0.923017,4099.235
556,0.924683,4072.487
557,0.92635,4047.9
558,0.928017,4047.9
559,0.929683,4024.58
560,0.93135,4000.068
561,0.933017,4000.068
562,0.934667,3975.332
563,0.936333,3954.247
564,0.938033,3927.946
565,0.939667,3927.946
566,0.941333,3905.743
567,0.9429999999999999,3883.764
568,0.944667,3861.785
569,0.946333,3861.785
570,0.948,3841.743
571,0.949667,3818.944
572,0.951333,3799.945
573,0.953,3799.945
574,0.954667,3777.519
575,0.956333,3753.304
576,0.958,3730.357
577,0.959667,3730.357
578,0.961333,3708.527
579,0.963,3689.155
580,0.9646670000000001,3689.155
581,0.966333,3670.603
582,0.968,3653.541
583,0.9696669999999999,3634.244
584,0.971333,3634.244
585,0.973,3614.5
586,0.9747,3597.364
587,0.976333,3580.228
588,0.978,3580.228
589,0.979667,3560.334
590,0.981333,3544.316
591,0.983,3526.583
592,0.984683,3526.583
593,0.986333,3510.043
594,0.988,3494.918
595,0.989733,3477.782
596,0.991333,3477.782
597,0.993,3457.889
598,0.994667,3439.561
599,0.996317,3439.561
600,0.997983,3425.553
601,0.99965,3410.354
602,1.001317,3398.135
603,1.002983,3398.135
604,1.00465,3382.713
605,1.0064,3364.906
606,1.007983,3348.961
607,1.00965,3348.961
608,1.011317,3332.198
609,1.012983,3316.03
610,1.01465,3316.03
611,1.016317,3302.842
612,1.017983,3285.035
613,1.01965,3269.166
614,1.021317,3269.166
615,1.023117,3255.978
616,1.02465,3240.555
617,1.026317,3227.815
618,1.027983,3227.815
619,1.02965,3214.702
620,1.031317,3198.534
621,1.032983,3183.857
622,1.03465,3183.857
623,1.036317,3169.999
624,1.037983,3155.47
625,1.039767,3142.133
626,1.041317,3142.133
627,1.042983,3130.436
628,1.04465,3116.28
629,1.046317,3116.28
630,1.047983,3106.52
631,1.04965,3095.716
632,1.051317,3081.262
633,1.052983,3081.262
634,1.05465,3068.894
635,1.0563,3057.197
636,1.057967,3046.319
637,1.059633,3046.319
638,1.0613,3035.218
639,1.062967,3024.638
640,1.064633,3011.748
641,1.0663,3011.748
642,1.067967,2999.157
643,1.069633,2984.553
644,1.0713,2984.553
645,1.072967,2972.037
646,1.074633,2960.19
647,1.0763,2949.536
648,1.077967,2949.536
649,1.079633,2941.638
650,1.0813,2933.294
651,1.082967,2922.49
652,1.084633,2922.49
653,1.0863,2911.463
654,1.087967,2900.735
655,1.089633,2889.484
656,1.0913,2889.484
657,1.092967,2877.563
658,1.094633,2869.144
659,1.0963,2860.948
660,1.097967,2860.948
661,1.099633,2850.294
662,1.101317,2842.62
663,1.102967,2842.62
664,1.104633,2830.103
665,1.1063,2816.767
666,1.107983,2805.144
667,1.109633,2805.144
668,1.1113,2796.724
669,1.11295,2788.603
670,1.114617,2782.121
671,1.116317,2782.121
672,1.11795,2776.906
673,1.119617,2768.189
674,1.121283,2759.621
675,1.12295,2759.621
676,1.124667,2750.084
677,1.126283,2738.684
678,1.12795,2738.684
679,1.129617,2728.328
680,1.131283,2718.344
681,1.13295,2709.106
682,1.134617,2709.106
683,1.136283,2700.687
684,1.13795,2692.565
685,1.139617,2686.53
686,1.141333,2686.53
687,1.14295,2678.558
688,1.144617,2672.225
689,1.146283,2663.732
690,1.14795,2663.732
691,1.149617,2655.238
692,1.151283,2648.979
693,1.15295,2640.486
694,1.154617,2640.486
695,1.156283,2631.322
696,1.15805,2621.487
697,1.159617,2621.487
698,1.161283,2612.77
699,1.16295,2604.648
700,1.164617,2601.445
701,1.166283,2601.445
702,1.16795,2596.453
703,1.169617,2587.438
704,1.171283,2581.403
705,1.17295,2581.403
706,1.174617,2570.972
707,1.176267,2562.18
708,1.177933,2555.773
709,1.179583,2555.773
710,1.18125,2547.949
711,1.182917,2541.84
712,1.184583,2541.84
713,1.18625,2537.668
714,1.18795,2533.346
715,1.189583,2524.406
716,1.19125,2524.406
717,1.192917,2516.285
718,1.194583,2505.854
719,1.19625,2497.882
720,1.197917,2497.882
721,1.199583,2494.305
722,1.20125,2490.208
723,1.202917,2486.557
724,1.204583,2486.557
725,1.20625,2479.032
726,1.207917,2472.773
727,1.209583,2472.773
728,1.21125,2466.142
729,1.212917,2456.457
730,1.214583,2450.868
731,1.21625,2450.868
732,1.217917,2445.132
733,1.219583,2442.151
734,1.22125,2438.873
735,1.222917,2438.873
736,1.224583,2431.273
737,1.22625,2422.631
738,1.227917,2414.808
739,1.229583,2414.808
740,1.23125,2408.177
741,1.232917,2402.142
742,1.234583,2398.789
743,1.236233,2398.789
744,1.2379,2392.009
745,1.239567,2387.24
746,1.241233,2387.24
747,1.242967,2386.943
748,1.244567,2381.727
749,1.246233,2374.649
750,1.2479,2374.649
751,1.249567,2370.253
752,1.251233,2362.803
753,1.2529,2358.034
754,1.254567,2358.034
755,1.256233,2353.117
756,1.2579,2344.772
757,1.259667,2337.545
758,1.261233,2337.545
759,1.2629,2330.989
760,1.264567,2327.561
761,1.266233,2327.561
762,1.2679,2325.624
763,1.269567,2322.346
764,1.271233,2316.46
765,1.2729,2316.46
766,1.274567,2308.637
767,1.27625,2302.304
768,1.2779,2294.481
769,1.279567,2294.481
770,1.281233,2287.999
771,1.2829,2284.125
772,1.284567,2280.623
773,1.286233,2280.623
774,1.2879,2278.164
775,1.289567,2277.121
776,1.291233,2273.247
777,1.2929,2273.247
778,1.294567,2267.882
779,1.296233,2262.294
780,1.297883,2262.294
781,1.29955,2255.589
782,1.301217,2251.864
783,1.302883,2246.276
784,1.30455,2246.276
785,1.306217,2243.295
786,1.307883,2240.911
787,1.30955,2234.951
788,1.311217,2234.951
789,1.312883,2228.99
790,1.31455,2224.52
791,1.316217,2217.293
792,1.317883,2217.293
793,1.31955,2211.332
794,1.321217,2208.799
795,1.322883,2208.799
796,1.32455,2202.69
797,1.326233,2198.89
798,1.327883,2194.866
799,1.32955,2194.866
800,1.331217,2192.035
801,1.332883,2190.396
802,1.33455,2188.533
803,1.336217,2188.533
804,1.337883,2186.522
805,1.33955,2181.53
806,1.341217,2178.177
807,1.3429,2178.177
808,1.34455,2171.546
809,1.346217,2165.511
810,1.347883,2159.476
811,1.34955,2159.476
812,1.351217,2150.833
813,1.352883,2147.853
814,1.35455,2147.853
815,1.356217,2145.842
816,1.357867,2144.65
817,1.359533,2141.669
818,1.3612,2141.669
819,1.362867,2140.105
820,1.364533,2136.23
821,1.3662,2129.376
822,1.367867,2129.376
823,1.369533,2124.161
824,1.3712,2115.965
825,1.372867,2109.855
826,1.374533,2109.855
827,1.3762,2106.875
828,1.377867,2103.969
829,1.379533,2103.969
830,1.3812,2102.405
831,1.382867,2102.554
832,1.384533,2099.574
833,1.3862,2099.574
834,1.387883,2096.966
835,1.389533,2094.06
836,1.3912,2087.876
837,1.392867,2087.876
838,1.39465,2085.716
839,1.3962,2086.461
840,1.397867,2082.288
841,1.399533,2082.288
842,1.4012,2081.469
843,1.402883,2078.116
844,1.404533,2070.889
845,1.4062,2070.889
846,1.407867,2067.834
847,1.409533,2061.203
848,1.4112,2061.203
849,1.412867,2057.329
850,1.414533,2053.976
851,1.4162,2053.305
852,1.41785,2053.305
853,1.419517,2049.953
854,1.421183,2042.651
855,1.42285,2037.361
856,1.424517,2037.361
857,1.426183,2031.326
858,1.42785,2030.954
859,1.429517,2030.954
860,1.431183,2030.954
861,1.43285,2028.942
862,1.434533,2024.397
863,1.436183,2024.397
864,1.43785,2021.492
865,1.439517,2020.896
866,1.441183,2023.578
867,1.44285,2023.578
868,1.444517,2020.821
869,1.446183,2017.617
870,1.44785,2013.296
871,1.449517,2013.296
872,1.451183,2006.441
873,1.45285,2005.92
874,1.454517,2002.195
875,1.456183,2002.195
876,1.45785,1998.246
877,1.459517,1998.767
878,1.461183,1998.767
879,1.46285,1997.799
880,1.464517,1997.799
881,1.466183,1995.489
882,1.46785,1995.489
883,1.4695,1989.082
884,1.471167,1983.196
885,1.472833,1977.31
886,1.4745,1977.31
887,1.47615,1973.361
888,1.477817,1973.51
889,1.479567,1973.51
890,1.48115,1973.51
891,1.482817,1971.647
892,1.484483,1971.722
893,1.48615,1972.467
894,1.487817,1972.467
895,1.489483,1968.071
896,1.49115,1965.91
897,1.492817,1965.91
898,1.494483,1961.589
899,1.49615,1949.742
900,1.497817,1943.931
901,1.499483,1943.931
902,1.50115,1940.504
903,1.502817,1939.908
904,1.504483,1938.269
905,1.50615,1938.269
906,1.507817,1934.767
