"ID","sea_time","fid_signal"
1,0,1170.486
2,0.001667,1166.09
3,0.003333,1166.09
4,0.005,1164.6
5,0.006667,1164.675
6,0.008333,1167.208
7,0.010017,1167.208
8,0.011667,1169.667
9,0.013333,1170.71
10,0.015,1168.624
11,0.01665,1168.624
12,0.018317,1167.879
13,0.020017,1168.996
14,0.02165,1168.996
15,0.023317,1169.965
16,0.024983,1170.412
17,0.026717,1169.965
18,0.028317,1169.965
19,0.029983,1167.059
20,0.031667,1164.228
21,0.033317,1168.326
22,0.034983,1168.326
23,0.03665,1169.071
24,0.038317,1169.965
25,0.039983,1171.157
26,0.04165,1171.157
27,0.043383,1164.228
28,0.044983,1166.835
29,0.04665,1166.835
30,0.048317,1167.133
31,0.049983,1168.027
32,0.05165,1168.698
33,0.053317,1168.698
34,0.054983,1167.729
35,0.05665,1168.624
36,0.058317,1170.561
37,0.0601,1170.561
38,0.06165,1173.317
39,0.063317,1171.604
40,0.064983,1169.369
41,0.06665,1169.369
42,0.068317,1167.58
43,0.069983,1169.145
44,0.07165000000000001,1169.965
45,0.07331699999999999,1169.965
46,0.07498299999999999,1171.231
47,0.07665,1171.902
48,0.078317,1171.902
49,0.079967,1166.463
50,0.081633,1167.879
51,0.0833,1166.165
52,0.084967,1166.165
53,0.086633,1165.047
54,0.0883,1169.667
55,0.08996700000000001,1171.157
56,0.09163300000000001,1171.157
57,0.09329999999999999,1175.106
58,0.094967,1176.521
59,0.096633,1173.168
60,0.0983,1173.168
61,0.099967,1168.773
62,0.101633,1165.792
63,0.103333,1165.792
64,0.105,1161.247
65,0.106633,1163.259
66,0.1083,1165.941
67,0.109967,1165.941
68,0.111633,1166.016
69,0.1133,1166.761
70,0.114967,1165.792
71,0.116633,1165.792
72,0.1183,1164.451
73,0.119967,1163.334
74,0.121633,1171.157
75,0.1233,1171.157
76,0.124967,1172.051
77,0.126633,1171.082
78,0.1283,1175.255
79,0.129967,1175.255
80,0.131633,1170.561
81,0.1333,1171.753
82,0.134967,1171.753
83,0.136633,1174.51
84,0.138283,1172.796
85,0.13995,1170.039
86,0.141617,1170.039
87,0.143283,1169.667
88,0.144983,1168.251
89,0.146617,1167.357
90,0.148283,1167.357
91,0.14995,1167.432
92,0.151617,1162.812
93,0.153283,1162.142
94,0.15495,1162.142
95,0.156617,1158.938
96,0.158283,1157.82
97,0.15995,1157.82
98,0.16165,1163.185
99,0.163283,1162.067
100,0.16495,1168.624
101,0.166617,1168.624
102,0.168283,1169.369
103,0.16995,1166.165
104,0.171617,1171.753
105,0.173283,1171.753
106,0.17495,1169.965
107,0.176617,1171.157
108,0.178383,1172.87
109,0.17995,1172.87
110,0.181633,1168.996
111,0.183283,1168.847
112,0.18495,1166.761
113,0.186617,1166.761
114,0.188283,1167.804
115,0.18995,1166.761
116,0.191617,1166.761
117,0.193283,1165.196
118,0.19495,1164.973
119,0.196617,1160.875
120,0.198267,1160.875
121,0.199933,1161.918
122,0.2016,1161.62
123,0.203267,1163.557
124,0.204917,1163.557
125,0.206583,1169.22
126,0.20825,1168.251
127,0.209917,1170.784
128,0.211583,1170.784
129,0.21325,1172.349
130,0.214917,1171.827
131,0.216583,1171.827
132,0.21825,1172.125
133,0.219917,1172.2
134,0.221583,1172.2
135,0.22325,1172.2
136,0.224917,1169.592
137,0.226583,1173.019
138,0.22825,1172.945
139,0.229917,1172.945
140,0.231583,1173.913
141,0.23325,1174.807
142,0.234917,1172.87
143,0.236583,1172.87
144,0.23825,1170.784
145,0.239917,1168.624
146,0.241583,1168.624
147,0.24325,1168.996
148,0.244917,1169.22
149,0.246583,1172.796
150,0.248267,1172.796
151,0.249983,1175.404
152,0.251583,1172.125
153,0.25325,1171.082
154,0.254917,1171.082
155,0.256583,1166.91
156,0.25825,1165.867
157,0.2599,1170.71
158,0.261567,1170.71
159,0.263317,1172.87
160,0.2649,1173.541
161,0.266567,1173.094
162,0.268233,1173.094
163,0.2699,1170.412
164,0.271567,1171.306
165,0.273233,1171.306
166,0.2749,1172.274
167,0.276567,1170.859
168,0.278233,1168.698
169,0.2799,1168.698
170,0.281567,1164.749
171,0.283233,1160.949
172,0.2849,1159.757
173,0.286567,1159.757
174,0.288233,1160.055
175,0.2899,1161.993
176,0.291567,1166.165
177,0.293233,1166.165
178,0.2949,1168.549
179,0.296667,1170.561
180,0.298233,1170.561
181,0.2999,1170.039
182,0.301567,1169.071
183,0.303233,1167.804
184,0.3049,1167.804
185,0.306567,1166.09
186,0.308233,1166.612
187,0.3099,1168.549
188,0.311567,1168.549
189,0.313233,1168.549
190,0.3149,1172.572
191,0.316567,1171.306
192,0.318217,1171.306
193,0.319883,1168.4
194,0.32155,1169.667
195,0.323217,1169.22
196,0.324883,1169.22
197,0.326567,1169.816
198,0.328267,1168.922
199,0.329883,1168.922
200,0.33155,1164.6
201,0.333217,1161.62
202,0.334883,1159.608
203,0.33655,1159.608
204,0.338217,1161.322
205,0.339883,1165.867
206,0.34155,1170.039
207,0.343217,1170.039
208,0.344883,1173.541
209,0.34655,1176.447
210,0.348217,1177.564
211,0.349883,1177.564
212,0.35155,1176.67
213,0.353217,1174.51
214,0.354883,1174.51
215,0.356567,1172.647
216,0.358217,1169.071
217,0.359883,1168.027
218,0.36155,1168.027
219,0.363217,1167.059
220,0.364883,1167.879
221,0.36655,1169.443
222,0.368217,1169.443
223,0.369883,1169.443
224,0.37155,1173.839
225,0.373217,1176.298
226,0.374883,1176.298
227,0.37655,1179.054
228,0.3782,1181.141
229,0.379867,1181.141
230,0.38155,1180.097
231,0.3832,1179.948
232,0.384867,1181.364
233,0.386533,1181.364
234,0.3882,1182.929
235,0.389867,1183.376
236,0.391533,1186.281
237,0.3932,1186.281
238,0.394867,1191.646
239,0.396533,1196.936
240,0.39825,1216.978
241,0.399867,1216.978
242,0.401533,1249.984
243,0.4032,1311.898
244,0.404867,1434.535
245,0.406533,1434.535
246,0.4082,1635.626
247,0.409867,1970.157
248,0.411533,1970.157
249,0.4132,2494.082
250,0.414967,3281.757
251,0.416533,4431.978
252,0.4182,4431.978
253,0.419867,6041.08
254,0.421533,8227.154
255,0.4232,11111.051
256,0.424867,11111.051
257,0.426533,14841.407
258,0.4282,19569.471
259,0.429867,25466.605
260,0.431533,25466.605
261,0.4332,32671.094
262,0.434867,41265.637
263,0.436533,41265.637
264,0.438183,51266.328
265,0.43985,62572.883
266,0.441517,75040.67999999999
267,0.443183,75040.67999999999
268,0.44485,88464.094
269,0.446517,102597.695
270,0.448183,117190.109
271,0.44985,117190.109
272,0.451517,131983.531
273,0.453183,146728.078
274,0.45485,161195.25
275,0.456517,161195.25
276,0.458183,175175.438
277,0.45985,188475.406
278,0.461517,200933.594
279,0.463183,200933.594
280,0.46485,212414.109
281,0.466517,222802.766
282,0.468183,222802.766
283,0.46985,231983.891
284,0.471517,239836.578
285,0.473183,246264.406
286,0.47485,246264.406
287,0.476517,251189.469
288,0.478183,254533.344
289,0.47985,256239.234
290,0.481517,256239.234
291,0.483183,256275.828
292,0.48485,254648.266
293,0.486517,251435.281
294,0.488183,251435.281
295,0.48985,246768.375
296,0.491517,240808.953
297,0.493183,240808.953
298,0.49485,233757.125
299,0.4965,225817.563
300,0.49815,217186.953
301,0.499883,217186.953
302,0.501483,208068.484
303,0.50315,198637.766
304,0.504817,189070.031
305,0.506483,189070.031
306,0.50815,179533.438
307,0.509817,170144.891
308,0.511483,160997.281
309,0.51315,160997.281
310,0.514817,152151.281
311,0.516483,143643.391
312,0.51815,135511.156
313,0.519817,135511.156
314,0.521483,127787.961
315,0.52315,120474.695
316,0.524817,120474.695
317,0.526483,113579.93
318,0.52815,107096.281
319,0.529817,101007.594
320,0.5315,101007.594
321,0.533267,95317.141
322,0.534817,89999.516
323,0.536483,85038.539
324,0.53815,85038.539
325,0.539817,80420.969
326,0.541483,76122.06299999999
327,0.54315,72122.891
328,0.544833,72122.891
329,0.54655,68406.836
330,0.54815,64950.438
331,0.549817,64950.438
332,0.5514829999999999,61732.977
333,0.55315,58741.793
334,0.554817,55958.629
335,0.5564829999999999,55958.629
336,0.558133,53362.398
337,0.5598,50945.43
338,0.561467,48692.523
339,0.563133,48692.523
340,0.5648,46593.547
341,0.5664670000000001,44635.98
342,0.568133,42801.277
343,0.5698,42801.277
344,0.5714669999999999,41083.918
345,0.573133,39476.008
346,0.5748,39476.008
347,0.576467,37972.109
348,0.578133,36560.148
349,0.5798,35232.453
350,0.581467,35232.453
351,0.583133,33981.727
352,0.5848,32804.832
353,0.586467,31699.24
354,0.588133,31699.24
355,0.5898,30658.916
356,0.591467,29670.447
357,0.593133,28730.109
358,0.5948,28730.109
359,0.596467,27838.572
360,0.598133,26995.986
361,0.5998,26200.637
362,0.601467,26200.637
363,0.603133,25444.18
364,0.6048,24724.379
365,0.606467,24724.379
366,0.608133,24039.746
367,0.6098,23385.584
368,0.611467,22764.652
369,0.613133,22764.652
370,0.6148,22169.947
371,0.616467,21596.104
372,0.618183,21050.498
373,0.619783,21050.498
374,0.621483,20526.275
375,0.623117,20028.203
376,0.624783,19552.26
377,0.62645,19552.26
378,0.628117,19092.635
379,0.629783,18652.082
380,0.63145,18652.082
381,0.633117,18224.939
382,0.634783,17817.617
383,0.63645,17427.205
384,0.638117,17427.205
385,0.639783,17049.387
386,0.64145,16690.119
387,0.643117,16338.08
388,0.644783,16338.08
389,0.64645,15994.683
390,0.6481170000000001,15668.422
391,0.649783,15351.027
392,0.651533,15351.027
393,0.6531169999999999,15043.616
394,0.654783,14749.84
395,0.65645,14463.663
396,0.658117,14463.663
397,0.659783,14187.023
398,0.66145,13923.123
399,0.663117,13923.123
400,0.664783,13665.78
401,0.66645,13414.621
402,0.668117,13167.411
403,0.669783,13167.411
404,0.67145,12926.608
405,0.673117,12695.938
406,0.674783,12473.688
407,0.67645,12473.688
408,0.6781,12262.24
409,0.679783,12055.561
410,0.681433,11851.191
411,0.683133,11851.191
412,0.684767,11654.348
413,0.686433,11460.334
414,0.6881,11460.334
415,0.689767,11271.164
416,0.691433,11090.264
417,0.6931,10911.972
418,0.694767,10911.972
419,0.696433,10738.671
420,0.6981000000000001,10571.555
421,0.699767,10408.237
422,0.701433,10408.237
423,0.7030999999999999,10245.517
424,0.704767,10093.674
425,0.706433,9944.588
426,0.7081,9944.588
427,0.709767,9798.333000000001
428,0.711433,9658.635
429,0.7131,9518.937
430,0.714767,9518.937
431,0.716433,9384.005999999999
432,0.7181,9253.472
433,0.719767,9253.472
434,0.721433,9125.843999999999
435,0.7231,9000.227000000001
436,0.7247670000000001,8873.790000000001
437,0.726433,8873.790000000001
438,0.7281,8753.688
439,0.7297670000000001,8637.831
440,0.731433,8521.304
441,0.7331,8521.304
442,0.7347669999999999,8411.035
443,0.736433,8298.308000000001
444,0.7381,8189.008
445,0.73975,8189.008
446,0.741417,8089.17
447,0.743083,7986.799
448,0.74475,7986.799
449,0.746417,7887.036
450,0.7480830000000001,7790.774
451,0.74975,7692.054
452,0.751417,7692.054
453,0.7531330000000001,7602.2
454,0.75475,7513.24
455,0.756417,7424.429
456,0.758083,7424.429
457,0.759767,7337.406
458,0.761417,7251.427
459,0.763083,7168.055
460,0.76475,7168.055
461,0.766417,7088.035
462,0.768083,7008.687
463,0.76985,6930.679
464,0.771417,6930.679
465,0.773083,6853.565
466,0.77475,6774.515
467,0.776417,6774.515
468,0.778083,6701.276
469,0.7797500000000001,6626.695
470,0.781417,6554.5
471,0.783083,6554.5
472,0.7847499999999999,6485.879
473,0.786517,6420.016
474,0.788067,6353.11
475,0.789733,6353.11
476,0.7914,6292.76
477,0.793067,6230.026
478,0.794733,6161.034
479,0.796417,6161.034
480,0.79805,6103.813
481,0.799717,6040.409
482,0.801383,6040.409
483,0.80305,5980.283
484,0.804717,5924.553
485,0.806383,5862.191
486,0.80805,5862.191
487,0.809717,5804.226
488,0.811383,5751.252
489,0.8130500000000001,5702.153
490,0.814717,5702.153
491,0.816383,5653.054
492,0.8180500000000001,5607.68
493,0.819717,5560.741
494,0.821383,5560.741
495,0.823067,5509.705
496,0.824717,5464.032
497,0.826383,5464.032
498,0.82805,5413.964
499,0.829717,5363.077
500,0.831383,5314.574
501,0.83305,5314.574
502,0.834717,5264.729
503,0.836383,5220.771
504,0.83805,5178.824
505,0.839717,5178.824
506,0.841383,5135.76
507,0.84305,5094.632
508,0.8447170000000001,5053.356
509,0.846383,5053.356
510,0.84805,5009.919
511,0.8497169999999999,4971.102
512,0.851383,4936.978
513,0.85305,4936.978
514,0.8547,4899.278
515,0.856367,4865.005
516,0.858033,4865.005
517,0.8597,4827.082
518,0.861367,4783.646
519,0.8630330000000001,4746.467
520,0.8647,4746.467
521,0.866367,4706.904
522,0.8680330000000001,4674.718
523,0.8697,4643.649
524,0.871433,4643.649
525,0.8730329999999999,4607.886
526,0.8747,4572.57
527,0.876367,4536.063
528,0.878033,4536.063
529,0.8797,4504.025
530,0.881367,4471.913
531,0.883033,4471.913
532,0.8847,4444.793
533,0.886367,4416.034
534,0.888133,4384.89
535,0.8897,4384.89
536,0.891367,4358.59
537,0.893033,4328.34
538,0.8947000000000001,4300.251
539,0.896367,4300.251
540,0.898033,4267.618
541,0.8997000000000001,4235.878
542,0.901367,4208.237
543,0.903033,4208.237
544,0.904783,4178.882
545,0.906367,4155.71
546,0.908033,4132.092
547,0.9097,4132.092
548,0.911367,4106.388
549,0.913033,4083.514
550,0.9147,4083.514
551,0.916367,4058.629
552,0.918017,4030.466
553,0.919683,4002.452
554,0.92135,4002.452
555,0.923017,3976.226
556,0.924683,3952.682
557,0.92635,3932.864
558,0.928017,3932.864
559,0.929683,3915.057
560,0.93135,3893.375
561,0.933017,3872.067
562,0.9347,3872.067
563,0.93635,3848.523
564,0.938017,3824.756
565,0.939683,3824.756
566,0.94135,3801.435
567,0.943017,3773.793
568,0.9446830000000001,3748.536
569,0.94635,3748.536
570,0.948017,3726.631
571,0.9496830000000001,3709.495
572,0.95135,3692.135
573,0.953017,3692.135
574,0.9546829999999999,3676.042
575,0.95635,3655.404
576,0.958017,3633.127
577,0.959683,3633.127
578,0.96135,3614.649
579,0.963017,3594.905
580,0.9647,3577.769
581,0.96635,3577.769
582,0.968017,3560.781
583,0.969683,3542.304
584,0.97135,3542.304
585,0.973017,3521.517
586,0.974683,3504.53
587,0.9763500000000001,3483.817
588,0.978,3483.817
589,0.979667,3465.265
590,0.981333,3450.736
591,0.983,3430.694
592,0.984667,3430.694
593,0.986333,3415.868
594,0.988,3401.041
595,0.9897,3385.544
596,0.991333,3385.544
597,0.993,3374.964
598,0.994667,3360.51
599,0.996333,3360.51
600,0.998,3349.185
601,0.999667,3332.496
602,1.001333,3312.901
603,1.003,3312.901
604,1.004667,3299.117
605,1.006367,3280.491
606,1.008,3268.644
607,1.009667,3268.644
608,1.011333,3255.829
609,1.013,3236.309
610,1.014667,3224.388
611,1.016333,3224.388
612,1.018,3207.624
613,1.019667,3191.233
614,1.021333,3191.233
615,1.023117,3179.61
616,1.024667,3163.367
617,1.026333,3150.031
618,1.028,3150.031
619,1.029667,3137.514
620,1.031333,3125.519
621,1.033,3114.119
622,1.034667,3114.119
623,1.036333,3101.23
624,1.037983,3090.873
625,1.03965,3077.76
626,1.041317,3077.76
627,1.043,3063.753
628,1.0447,3051.087
629,1.046317,3038.645
630,1.047983,3038.645
631,1.04965,3027.022
632,1.051317,3015.697
633,1.052983,3015.697
634,1.05465,3006.607
635,1.056317,2994.537
636,1.057983,2983.883
637,1.05965,2983.883
638,1.061317,2970.844
639,1.062983,2957.583
640,1.06465,2943.724
641,1.066317,2943.724
642,1.067983,2931.655
643,1.06965,2922.341
644,1.071317,2910.793
645,1.072983,2910.793
646,1.07465,2902.001
647,1.076317,2891.645
648,1.077983,2891.645
649,1.079633,2879.948
650,1.0813,2872.348
651,1.082967,2866.983
652,1.084633,2866.983
653,1.0863,2855.882
654,1.087967,2847.91
655,1.089633,2834.946
656,1.0913,2834.946
657,1.092967,2820.268
658,1.094633,2810.135
659,1.0963,2797.618
660,1.09795,2797.618
661,1.099617,2790.764
662,1.101283,2781.674
663,1.10295,2773.702
664,1.104617,2773.702
665,1.106283,2768.338
666,1.108083,2761.707
667,1.109633,2761.707
668,1.111283,2750.68
669,1.11295,2742.857
670,1.114617,2734.587
671,1.116283,2734.587
672,1.11795,2719.686
673,1.119617,2714.321
674,1.121283,2705.008
675,1.12295,2705.008
676,1.124633,2696.514
677,1.126283,2692.491
678,1.12795,2685.562
679,1.129617,2685.562
680,1.131283,2678.409
681,1.13295,2668.5
682,1.134617,2668.5
683,1.136283,2660.453
684,1.13795,2649.65
685,1.139617,2639.145
686,1.141383,2639.145
687,1.14295,2634.078
688,1.144617,2628.714
689,1.146283,2623.871
690,1.14795,2623.871
691,1.149617,2614.781
692,1.151283,2604.574
693,1.15295,2589.375
694,1.154617,2589.375
695,1.156283,2577.975
696,1.157933,2573.207
697,1.1596,2573.207
698,1.161267,2568.364
699,1.162933,2565.011
700,1.1646,2560.765
701,1.166267,2560.765
702,1.167933,2557.039
703,1.1696,2547.055
704,1.171267,2540.946
705,1.172933,2540.946
706,1.1746,2532.974
707,1.176267,2521.053
708,1.17795,2516.732
709,1.17965,2516.732
710,1.181267,2510.175
711,1.182933,2501.979
712,1.1846,2496.541
713,1.186267,2496.541
714,1.187933,2487.153
715,1.1896,2479.926
716,1.191267,2479.926
717,1.192933,2474.859
718,1.1946,2467.409
719,1.196267,2460.331
720,1.197933,2460.331
721,1.1996,2454.072
722,1.201267,2447.963
723,1.202933,2443.791
724,1.2046,2443.791
725,1.206267,2439.618
726,1.207933,2431.497
727,1.2096,2426.654
728,1.211267,2426.654
729,1.212933,2421.066
730,1.2146,2411.306
731,1.216267,2411.306
732,1.217933,2411.157
733,1.219583,2406.388
734,1.22125,2399.087
735,1.222917,2399.087
736,1.224583,2396.479
737,1.226317,2384.037
738,1.227917,2377.927
739,1.229583,2377.927
740,1.23125,2373.904
741,1.232917,2367.422
742,1.234583,2363.92
743,1.23625,2363.92
744,1.237917,2358.034
745,1.239583,2353.713
746,1.24125,2349.392
747,1.242967,2349.392
748,1.244583,2345.89
749,1.24625,2339.035
750,1.24795,2339.035
751,1.2496,2328.53
752,1.25125,2320.856
753,1.252917,2317.95
754,1.254583,2317.95
755,1.25625,2312.884
756,1.257917,2310.723
757,1.259683,2308.563
758,1.26125,2308.563
759,1.262917,2299.845
760,1.264583,2297.014
761,1.26625,2292.246
762,1.267917,2292.246
763,1.269583,2283.379
764,1.27125,2277.344
765,1.272917,2277.344
766,1.274583,2267.584
767,1.27625,2260.655
768,1.2779,2258.718
769,1.279567,2258.718
770,1.281233,2258.122
771,1.2829,2255.812
772,1.284567,2251.938
773,1.286233,2251.938
774,1.2879,2245.232
775,1.289567,2235.919
776,1.291233,2233.61
777,1.2929,2233.61
778,1.294567,2231.523
779,1.296233,2229.586
780,1.2979,2225.712
781,1.299567,2225.712
782,1.301233,2220.795
783,1.3029,2215.132
784,1.304567,2215.132
785,1.306233,2210.885
786,1.3079,2205.297
787,1.309567,2199.709
788,1.311233,2199.709
789,1.3129,2195.76
790,1.314567,2190.918
791,1.316233,2189.279
792,1.317917,2189.279
793,1.319567,2186.895
794,1.321233,2184.212
795,1.3229,2179.295
796,1.324567,2179.295
797,1.326233,2174.005
798,1.3279,2167.896
799,1.329567,2167.896
800,1.331233,2163.052
801,1.3329,2161.339
802,1.334567,2159.029
803,1.336233,2159.029
804,1.3379,2156.571
805,1.33955,2150.983
806,1.341217,2147.704
807,1.342883,2147.704
808,1.344617,2146.14
809,1.346217,2140.552
810,1.347883,2137.05
811,1.34955,2137.05
812,1.351217,2131.984
813,1.352883,2126.023
814,1.35455,2123.713
815,1.356217,2123.713
816,1.357883,2121.106
817,1.35955,2118.722
818,1.361217,2118.722
819,1.362883,2116.188
820,1.36455,2108.365
821,1.366217,2104.044
822,1.367883,2104.044
823,1.36955,2100.617
824,1.3712,2096.072
825,1.372867,2096.817
826,1.374533,2096.817
827,1.3762,2094.88
828,1.377967,2085.79
829,1.379533,2080.426
830,1.3812,2080.426
831,1.382867,2076.924
832,1.384533,2072.379
833,1.3862,2072.379
834,1.387867,2072.975
835,1.389533,2068.281
836,1.3912,2068.058
837,1.392867,2068.058
838,1.394533,2065.45
839,1.396233,2062.693
840,1.39785,2060.085
841,1.399517,2060.085
842,1.401183,2055.168
843,1.40285,2049.282
844,1.404517,2045.259
845,1.406183,2045.259
846,1.40785,2042.726
847,1.409517,2038.255
848,1.411183,2038.255
849,1.41285,2039.373
850,1.414517,2038.33
851,1.416183,2038.702
852,1.41785,2038.702
853,1.419517,2036.542
854,1.421183,2030.134
855,1.42285,2027.079
856,1.424517,2027.079
857,1.426183,2020.672
858,1.42785,2014.86
859,1.429517,2013.221
860,1.431183,2013.221
861,1.43285,2011.806
862,1.434517,2012.7
863,1.436183,2012.104
864,1.43785,2012.104
865,1.439517,2005.249
866,1.441183,1996.756
867,1.44285,1996.756
868,1.444517,1987.293
869,1.446183,1981.035
870,1.44785,1979.321
871,1.449517,1979.321
872,1.451183,1974.925
873,1.45285,1976.192
874,1.454517,1975.521
875,1.456183,1975.521
876,1.457833,1975.819
877,1.4595,1979.619
878,1.461167,1976.565
879,1.462867,1976.565
880,1.4645,1974.925
881,1.4662,1970.753
882,1.467833,1970.753
883,1.4695,1964.346
884,1.471167,1962.557
885,1.472833,1954.883
886,1.4745,1954.883
887,1.476167,1952.127
888,1.477833,1948.923
889,1.4795,1945.123
890,1.481167,1945.123
891,1.482833,1944.974
892,1.4845,1939.014
893,1.486167,1935.735
894,1.487833,1935.735
895,1.4895,1932.234
896,1.491167,1930.594
897,1.492833,1935.959
898,1.4945,1935.959
899,1.496267,1931.339
900,1.497833,1927.987
901,1.4995,1927.987
902,1.501167,1928.806
903,1.502833,1922.622
904,1.5045,1924.559
905,1.506167,1924.559
906,1.507833,1925.901
907,1.5095,1917.109
