"ID","sea_time","fid_signal"
1,0,1208.335
2,0.001667,1210.347
3,0.003367,1207.739
4,0.005,1207.739
5,0.006667,1209.751
6,0.008333,1204.088
7,0.01,1204.088
8,0.011667,1196.414
9,0.013333,1192.689
10,0.014983,1187.25
11,0.01665,1187.25
12,0.018317,1190.901
13,0.019983,1199.394
14,0.02165,1202.896
15,0.023317,1202.896
16,0.024983,1205.131
17,0.026683,1205.057
18,0.028317,1203.492
19,0.029983,1203.492
20,0.03165,1206.696
21,0.033317,1206.473
22,0.034983,1206.473
23,0.03665,1206.771
24,0.038317,1207.516
25,0.039983,1206.473
26,0.04165,1206.473
27,0.043317,1205.951
28,0.044983,1207.292
29,0.04665,1208.335
30,0.048317,1208.335
31,0.049967,1208.186
32,0.051633,1210.943
33,0.0533,1208.857
34,0.054967,1208.857
35,0.056633,1206.174
36,0.0583,1204.014
37,0.059967,1204.014
38,0.061633,1200.661
39,0.063333,1202.971
40,0.064967,1202.3
41,0.066633,1202.3
42,0.0683,1202.747
43,0.07000000000000001,1204.386
44,0.071633,1201.406
45,0.0733,1201.406
46,0.07496700000000001,1203.79
47,0.07663300000000001,1206.771
48,0.07829999999999999,1209.08
49,0.08,1209.08
50,0.081633,1208.633
51,0.0833,1207.143
52,0.084967,1208.037
53,0.086633,1208.037
54,0.0883,1210.049
55,0.08996700000000001,1210.943
56,0.09163300000000001,1210.943
57,0.09329999999999999,1214.668
58,0.094967,1216.456
59,0.096633,1215.19
60,0.0983,1215.19
61,0.099967,1216.009
62,0.101633,1211.539
63,0.1033,1205.876
64,0.104967,1205.876
65,0.106633,1204.312
66,0.1083,1206.026
67,0.10995,1207.665
68,0.111617,1207.665
69,0.113283,1212.656
70,0.114967,1213.327
71,0.116617,1213.327
72,0.1183,1213.327
73,0.11995,1212.582
74,0.121617,1211.241
75,0.123283,1211.241
76,0.12495,1210.421
77,0.126617,1208.261
78,0.128283,1210.198
79,0.12995,1210.198
80,0.131617,1206.473
81,0.133283,1205.653
82,0.13495,1205.802
83,0.136617,1205.802
84,0.138283,1204.312
85,0.139967,1207.292
86,0.141617,1207.069
87,0.143283,1207.069
88,0.14495,1210.049
89,0.146617,1211.464
90,0.148283,1211.464
91,0.14995,1209.974
92,0.151617,1210.57
93,0.153283,1208.112
94,0.15495,1208.112
95,0.156617,1205.802
96,0.158283,1204.386
97,0.15995,1202.002
98,0.161617,1202.002
99,0.163283,1201.034
100,0.164933,1201.928
101,0.166617,1199.469
102,0.168283,1199.469
103,0.169933,1200.736
104,0.1716,1200.959
105,0.173267,1200.959
106,0.174933,1203.492
107,0.1766,1206.547
108,0.178267,1209.453
109,0.179933,1209.453
110,0.181617,1210.496
111,0.183267,1209.527
112,0.184933,1212.135
113,0.1866,1212.135
114,0.188267,1210.421
115,0.189933,1209.751
116,0.1916,1207.59
117,0.193267,1207.59
118,0.194933,1207.814
119,0.1966,1207.59
120,0.1983,1210.049
121,0.199933,1210.049
122,0.2016,1212.954
123,0.203267,1212.731
124,0.204933,1212.731
125,0.2066,1213.327
126,0.208267,1212.433
127,0.209933,1213.849
128,0.2116,1213.849
129,0.213267,1214.296
130,0.215017,1214.966
131,0.2166,1211.911
132,0.218267,1211.911
133,0.219933,1209.304
134,0.2216,1208.633
135,0.223267,1207.441
136,0.224933,1207.441
137,0.2266,1209.155
138,0.228267,1209.08
139,0.229917,1209.08
140,0.231583,1210.272
141,0.23325,1212.359
142,0.234917,1211.539
143,0.236583,1211.539
144,0.23825,1208.186
145,0.239917,1201.928
146,0.241583,1200.959
147,0.24325,1200.959
148,0.244917,1204.014
149,0.246583,1208.633
150,0.248267,1213.029
151,0.249917,1213.029
152,0.251583,1214.594
153,0.25325,1211.464
154,0.254917,1211.464
155,0.256583,1209.974
156,0.25825,1208.037
157,0.259917,1204.237
158,0.261583,1204.237
159,0.26325,1200.512
160,0.264917,1198.724
161,0.266583,1200.289
162,0.26825,1200.289
163,0.269917,1200.289
164,0.271583,1204.461
165,0.27325,1206.994
166,0.274917,1206.994
167,0.276583,1207.665
168,0.278267,1210.719
169,0.279983,1210.719
170,0.281583,1210.719
171,0.28325,1211.315
172,0.284917,1211.911
173,0.286583,1211.911
174,0.28825,1213.849
175,0.2899,1216.233
176,0.291567,1214.147
177,0.293233,1214.147
178,0.2949,1210.049
179,0.296567,1204.833
180,0.298233,1202.002
181,0.299983,1202.002
182,0.301567,1200.736
183,0.303233,1200.14
184,0.304883,1198.649
185,0.30655,1198.649
186,0.308217,1198.724
187,0.309883,1202.449
188,0.31155,1202.449
189,0.313217,1206.398
190,0.314883,1210.421
191,0.31655,1212.88
192,0.318217,1212.88
193,0.319883,1213.551
194,0.32155,1215.339
195,0.323217,1214.966
196,0.324883,1214.966
197,0.32655,1209.751
198,0.328217,1206.249
199,0.329883,1203.716
200,0.33155,1203.716
201,0.333317,1206.473
202,0.334883,1211.092
203,0.33655,1213.476
204,0.338217,1213.476
205,0.339883,1216.158
206,0.34155,1217.648
207,0.343217,1217.648
208,0.344883,1219.287
209,0.34655,1220.405
210,0.3482,1219.586
211,0.349867,1219.586
212,0.351533,1218.84
213,0.3532,1218.692
214,0.354883,1219.362
215,0.356583,1219.362
216,0.358267,1222.491
217,0.359867,1224.428
218,0.361533,1230.016
219,0.3632,1230.016
220,0.364867,1236.796
221,0.366533,1242.757
222,0.3682,1242.757
223,0.369867,1247.227
224,0.371533,1252.592
225,0.3732,1256.093
226,0.374867,1256.093
227,0.376533,1262.948
228,0.3782,1270.697
229,0.379867,1277.477
230,0.381533,1277.477
231,0.3832,1286.119
232,0.384867,1291.037
233,0.386533,1302.585
234,0.3882,1302.585
235,0.389867,1313.09
236,0.391533,1324.49
237,0.3932,1324.49
238,0.394867,1335.442
239,0.396533,1341.328
240,0.3982,1349.524
241,0.399867,1349.524
242,0.401533,1356.155
243,0.4032,1364.574
244,0.404867,1374.856
245,0.406533,1374.856
246,0.408183,1380.295
247,0.40985,1389.459
248,0.411517,1396.239
249,0.413183,1396.239
250,0.41485,1399.592
251,0.416517,1406.67
252,0.418233,1408.532
253,0.41985,1408.532
254,0.421517,1411.14
255,0.4232,1413.971
256,0.42485,1413.971
257,0.426517,1416.728
258,0.428183,1420.23
259,0.42985,1424.477
260,0.431517,1424.477
261,0.433183,1427.233
262,0.43485,1428.574
263,0.436517,1426.563
264,0.438183,1426.563
265,0.43985,1424.849
266,0.441517,1422.986
267,0.443183,1419.932
268,0.44485,1419.932
269,0.446517,1418.218
270,0.448183,1417.1
271,0.44985,1417.1
272,0.451617,1420.453
273,0.453183,1428.947
274,0.45485,1446.083
275,0.456517,1446.083
276,0.458183,1469.404
277,0.45985,1503.751
278,0.461517,1555.458
279,0.463183,1555.458
280,0.46485,1637.116
281,0.466517,1753.941
282,0.468183,1923.069
283,0.469833,1923.069
284,0.4715,2158.359
285,0.473167,2470.687
286,0.474833,2882.257
287,0.4765,2882.257
288,0.478167,3404.021
289,0.479833,4054.606
290,0.4815,4054.606
291,0.483167,4844.293
292,0.484833,5789.176
293,0.4865,6895.736
294,0.488167,6895.736
295,0.489833,8161.738
296,0.4915,9590.388000000001
297,0.493167,11176.69
298,0.494833,11176.69
299,0.496533,12920.647
300,0.498183,14823.303
301,0.499833,16878.396
302,0.5014999999999999,16878.396
303,0.503167,19071.549
304,0.504833,21400.154
305,0.5065,21400.154
306,0.508167,23847.074
307,0.509833,26401.43
308,0.5115,29054.582
309,0.513167,29054.582
310,0.514833,31783.953
311,0.5165,34576.879
312,0.518167,37417.188
313,0.519833,37417.188
314,0.5215,40285.734
315,0.523167,43163.895
316,0.524833,46037.809
317,0.526483,46037.809
318,0.5281670000000001,48896.445
319,0.529817,51728.188
320,0.531483,54525.434
321,0.53315,54525.434
322,0.534817,57272.91
323,0.536517,59960.41
324,0.53815,59960.41
325,0.539817,62582.715
326,0.541483,65128.504
327,0.54315,67601.875
328,0.544817,67601.875
329,0.5464830000000001,69996.344
330,0.54815,72309.602
331,0.549817,74540.45299999999
332,0.5514829999999999,74540.45299999999
333,0.55315,76678.992
334,0.554817,78723.211
335,0.5564829999999999,80665.20299999999
336,0.55815,80665.20299999999
337,0.559817,82501.023
338,0.561483,84232.094
339,0.56315,84232.094
340,0.564817,85855.94500000001
341,0.566483,87366.773
342,0.56815,88763.461
343,0.569867,88763.461
344,0.5715,90038.32799999999
345,0.57315,91179.836
346,0.574817,92186.633
347,0.576483,92186.633
348,0.5781500000000001,93048.289
349,0.579817,93761.234
350,0.581483,94319.42999999999
351,0.5831499999999999,94319.42999999999
352,0.584817,94714.461
353,0.586483,94940.43799999999
354,0.58815,94940.43799999999
355,0.5898,94975.008
356,0.591467,94810.648
357,0.593133,94444.383
358,0.5948,94444.383
359,0.59645,93858.984
360,0.598117,93061.477
361,0.599783,92052.07000000001
362,0.60145,92052.07000000001
363,0.603117,90832.18799999999
364,0.604783,89418.81299999999
365,0.60645,87824.164
366,0.608117,87824.164
367,0.609783,86068.359
368,0.61145,84175.17200000001
369,0.613117,82168.727
370,0.614783,82168.727
371,0.6164500000000001,80074.664
372,0.618117,77919.06299999999
373,0.619783,77919.06299999999
374,0.6214499999999999,75727.258
375,0.623117,73517.711
376,0.624783,71311.29700000001
377,0.62645,71311.29700000001
378,0.628117,69125.367
379,0.629783,66968.79700000001
380,0.63145,64854.473
381,0.633117,64854.473
382,0.634783,62788.801
383,0.63645,60774.164
384,0.638117,58814.66
385,0.6398,58814.66
386,0.64145,56916.551
387,0.643117,55082.441
388,0.644783,55082.441
389,0.64645,53310.617
390,0.6481170000000001,51604.734
391,0.649767,49961.582
392,0.651433,49961.582
393,0.6531,48379.527
394,0.6548,46860.055
395,0.656433,45403.316
396,0.6581,45403.316
397,0.659767,44011.621
398,0.661433,42678.043
399,0.6631,41399.227
400,0.664767,41399.227
401,0.6664330000000001,40173.082
402,0.6681,38997.902
403,0.669767,37873.09
404,0.671533,37873.09
405,0.6731,36795.66
406,0.674767,35761.895
407,0.676433,35761.895
408,0.6781,34766.719
409,0.679767,33807.531
410,0.681433,32888.129
411,0.6831,32888.129
412,0.684767,31999.648
413,0.686433,31142.385
414,0.6882,30321.479
415,0.689767,30321.479
416,0.691433,29529.482
417,0.6931,28770.492
418,0.694767,28040.408
419,0.696433,28040.408
420,0.6981000000000001,27336.852
421,0.699767,26658.848
422,0.701433,26658.848
423,0.7030999999999999,26003.494
424,0.704867,25373.697
425,0.706433,24767.668
426,0.7081,24767.668
427,0.70975,24183.244
428,0.711417,23624.004
429,0.713083,23083.613
430,0.714767,23083.613
431,0.716417,22562.742
432,0.718083,22064
433,0.71975,21579.266
434,0.721417,21579.266
435,0.723083,21110.625
436,0.72475,20655.021
437,0.726417,20213.201
438,0.728083,20213.201
439,0.72975,19790.158
440,0.731417,19379.854
441,0.733083,19379.854
442,0.73475,18981.174
443,0.736417,18597.096
444,0.738083,18221.885
445,0.73975,18221.885
446,0.741433,17860.904
447,0.743083,17514.154
448,0.74475,17176.867
449,0.746433,17176.867
450,0.7480830000000001,16854.107
451,0.74975,16540.512
452,0.751417,16236.454
453,0.7530829999999999,16236.454
454,0.75475,15942.752
455,0.756417,15655.085
456,0.758083,15655.085
457,0.75975,15376.359
458,0.761417,15105.903
459,0.763083,14841.259
460,0.76475,14841.259
461,0.766417,14586.226
462,0.7680670000000001,14341.548
463,0.769733,14105.886
464,0.7714,14105.886
465,0.7731170000000001,13877.079
466,0.774733,13651.848
467,0.7764,13431.534
468,0.778067,13431.534
469,0.779733,13217.33
470,0.7814,13009.161
471,0.783067,13009.161
472,0.784733,12810.528
473,0.7864,12614.354
474,0.788067,12422.055
475,0.7897999999999999,12422.055
476,0.7914,12234.822
477,0.793067,12052.581
478,0.794733,11878.535
479,0.7964,11878.535
480,0.798067,11706.203
481,0.799733,11542.29
482,0.8014,11381.06
483,0.803067,11381.06
484,0.804733,11219.979
485,0.806467,11066.646
486,0.808067,10914.355
487,0.809733,10914.355
488,0.8114,10765.94
489,0.813067,10626.018
490,0.814733,10626.018
491,0.8164,10487.735
492,0.818067,10351.985
493,0.819733,10221.75
494,0.8214,10221.75
495,0.823167,10090.769
496,0.824733,9965.003000000001
497,0.8264,9842.217000000001
498,0.828067,9842.217000000001
499,0.829717,9722.112999999999
500,0.831417,9603.276
501,0.83305,9489.059999999999
502,0.834717,9489.059999999999
503,0.836383,9373.575000000001
504,0.83805,9256.304
505,0.839717,9256.304
506,0.841383,9145.959999999999
507,0.84305,9034.424999999999
508,0.8447170000000001,8931.234
509,0.846383,8931.234
510,0.84805,8830.353999999999
511,0.8497169999999999,8728.802
512,0.851383,8633.434999999999
513,0.85305,8633.434999999999
514,0.854733,8540.227999999999
515,0.856383,8446.424999999999
516,0.85805,8355.752
517,0.859717,8355.752
518,0.861383,8264.333000000001
519,0.86305,8173.734
520,0.864717,8089.915
521,0.866383,8089.915
522,0.86805,8010.268
523,0.869717,7933.825
524,0.871383,7933.825
525,0.87305,7853.88
526,0.874717,7771.104
527,0.876383,7689.521
528,0.87805,7689.521
529,0.879717,7607.564
530,0.881383,7534.399
531,0.88305,7466.674
532,0.884717,7466.674
533,0.886383,7398.948
534,0.8880169999999999,7330.403
535,0.889683,7259.399
536,0.89135,7259.399
537,0.8930169999999999,7188.097
538,0.894683,7119.7
539,0.89635,7119.7
540,0.898017,7053.167
541,0.899683,6990.209
542,0.90135,6928.22
543,0.903017,6928.22
544,0.904683,6864.518
545,0.90635,6803.423
546,0.9081,6742.403
547,0.909683,6742.403
548,0.91135,6683.692
549,0.913017,6626.472
550,0.914683,6572.306
551,0.91635,6572.306
552,0.918017,6519.035
553,0.919683,6462.932
554,0.921367,6407.872
555,0.923017,6407.872
556,0.924733,6354.898
557,0.92635,6302.968
558,0.928033,6302.968
559,0.929683,6254.539
560,0.93135,6206.036
561,0.933017,6154.403
562,0.934683,6154.403
563,0.93635,6104.037
564,0.938017,6058.365
565,0.939683,6013.214
566,0.94145,6013.214
567,0.943017,5969.554
568,0.9446830000000001,5923.137
569,0.94635,5876.571
570,0.948017,5876.571
571,0.949667,5831.495
572,0.951333,5787.909
573,0.953,5787.909
574,0.954667,5749.091
575,0.956333,5706.4
576,0.958,5666.315
577,0.959667,5666.315
578,0.961333,5625.486
579,0.963,5583.242
580,0.9646670000000001,5544.871
581,0.966333,5544.871
582,0.968,5505.458
583,0.9696669999999999,5467.534
584,0.971333,5429.089
585,0.973,5429.089
586,0.974667,5389.75
587,0.976333,5349.74
588,0.978,5349.74
589,0.979667,5312.338
590,0.981333,5278.066
591,0.983,5245.432
592,0.984667,5245.432
593,0.986333,5214.438
594,0.988,5181.134
595,0.989667,5149.841
596,0.991333,5149.841
597,0.993,5116.09
598,0.994667,5082.563
599,0.996333,5050.451
600,0.998,5050.451
601,0.999667,5016.104
602,1.001333,4984.811
603,1.003,4956.946
604,1.004667,4956.946
605,1.006333,4926.101
606,1.008,4893.616
607,1.00965,4893.616
608,1.011317,4863.665
609,1.012983,4833.788
610,1.01465,4807.115
611,1.016317,4807.115
612,1.017983,4779.846
613,1.01965,4750.937
614,1.021317,4723.37
615,1.022983,4723.37
616,1.02465,4693.419
617,1.026333,4665.479
618,1.027983,4642.308
619,1.02965,4642.308
620,1.031317,4617.498
621,1.032983,4596.188
622,1.03465,4596.188
623,1.036317,4572.719
624,1.037983,4546.27
625,1.03965,4519.597
626,1.041317,4519.597
627,1.043017,4493.073
628,1.04465,4469.604
629,1.046317,4441.961
630,1.047983,4441.961
631,1.04965,4416.257
632,1.051317,4392.266
633,1.052983,4370.66
634,1.05465,4370.66
635,1.056317,4350.618
636,1.057983,4330.054
637,1.05975,4310.906
638,1.061317,4310.906
639,1.062983,4287.884
640,1.06465,4267.916
641,1.066317,4267.916
642,1.067983,4250.258
643,1.069633,4229.248
644,1.0713,4207.492
645,1.072967,4207.492
646,1.074633,4189.759
647,1.0763,4164.204
648,1.078,4139.766
649,1.079633,4139.766
650,1.0813,4121.512
651,1.082967,4100.576
652,1.084633,4083.663
653,1.0863,4083.663
654,1.087967,4068.464
655,1.089633,4049.54
656,1.0913,4049.54
657,1.092967,4028.082
658,1.094633,4008.71
659,1.0963,3986.284
660,1.097967,3986.284
661,1.099633,3966.391
662,1.1013,3950.074
663,1.102967,3932.864
664,1.104633,3932.864
665,1.1063,3920.57
666,1.107967,3904.551
667,1.109633,3886.074
668,1.1113,3886.074
669,1.112967,3868.714
670,1.114633,3847.48
671,1.1163,3832.132
672,1.117967,3832.132
673,1.119633,3815.889
674,1.1213,3802.031
675,1.122967,3802.031
676,1.124633,3786.683
677,1.1263,3769.472
678,1.12795,3754.571
679,1.129617,3754.571
680,1.131283,3736.317
681,1.13295,3721.789
682,1.134617,3706.589
683,1.136283,3706.589
684,1.13795,3689.9
685,1.139617,3674.85
686,1.141283,3659.129
687,1.14295,3659.129
688,1.1447,3644.451
689,1.146283,3629.401
690,1.14795,3629.401
691,1.149633,3618.449
692,1.151283,3607.72
693,1.15295,3594.086
694,1.154617,3594.086
695,1.156283,3582.388
696,1.15795,3566.667
697,1.159617,3550.947
698,1.161283,3550.947
699,1.16295,3537.983
700,1.164617,3526.807
701,1.166283,3513.619
702,1.16795,3513.619
703,1.169617,3503.04
704,1.171283,3492.46
705,1.17295,3477.782
706,1.174617,3477.782
707,1.176283,3466.234
708,1.17805,3449.097
709,1.1796,3449.097
710,1.181267,3432.259
711,1.182933,3421.381
712,1.1846,3408.045
713,1.186267,3408.045
714,1.187933,3400.37
715,1.189583,3391.206
716,1.19125,3375.783
717,1.192917,3375.783
718,1.194583,3361.627
719,1.19625,3347.471
720,1.197917,3334.88
721,1.199583,3334.88
722,1.20125,3324.971
723,1.202917,3318.787
724,1.204583,3318.787
725,1.20625,3311.187
726,1.207917,3302.023
727,1.209583,3294.498
728,1.21125,3294.498
729,1.212917,3284.738
730,1.214583,3273.413
731,1.216283,3261.045
732,1.217917,3261.045
733,1.219583,3249.124
734,1.22125,3234.073
735,1.222917,3221.78
736,1.224583,3221.78
737,1.22625,3212.616
738,1.227917,3201.738
739,1.229583,3201.738
740,1.23125,3192.946
741,1.232917,3184.006
742,1.234583,3172.681
743,1.23625,3172.681
744,1.237917,3162.548
745,1.239583,3156.513
746,1.24125,3147.2
747,1.242917,3147.2
748,1.244583,3139.004
749,1.24625,3131.852
750,1.247917,3119.186
751,1.249567,3119.186
752,1.251233,3108.606
753,1.2529,3099.665
754,1.254567,3090.799
755,1.256233,3090.799
756,1.2579,3081.337
757,1.259567,3070.31
758,1.261233,3070.31
759,1.262983,3062.785
760,1.264567,3054.813
761,1.266233,3047.362
762,1.2679,3047.362
763,1.269567,3038.719
764,1.271233,3029.406
765,1.2729,3018.156
766,1.274567,3018.156
767,1.276233,3010.333
768,1.2779,3005.862
769,1.279583,2996.4
770,1.281233,2996.4
771,1.2829,2987.161
772,1.284567,2976.582
773,1.28625,2976.582
774,1.28795,2964.511
775,1.289567,2955.273
776,1.291233,2945.662
777,1.2929,2945.662
778,1.294567,2937.988
779,1.296333,2932.25
780,1.2979,2924.427
781,1.299567,2924.427
782,1.301233,2918.914
783,1.3029,2912.954
784,1.304567,2902.97
785,1.306233,2902.97
786,1.307883,2897.456
787,1.30955,2889.931
788,1.311217,2881.438
789,1.312883,2881.438
790,1.31455,2874.21
791,1.316217,2865.568
792,1.317883,2865.568
793,1.31955,2860.65
794,1.321217,2854.392
795,1.322883,2847.314
796,1.324567,2847.314
797,1.326217,2838.373
798,1.327883,2828.389
799,1.32955,2820.343
800,1.331217,2820.343
801,1.332883,2814.159
802,1.33455,2806.112
803,1.336217,2797.469
804,1.337883,2797.469
805,1.33955,2788.901
806,1.341217,2781.6
807,1.342883,2781.6
808,1.34455,2775.565
809,1.346217,2769.381
810,1.347883,2760.217
811,1.34955,2760.217
812,1.351217,2752.244
813,1.352883,2745.688
814,1.35455,2738.014
815,1.356217,2738.014
816,1.357883,2733.618
817,1.359567,2727.732
818,1.361217,2721.176
819,1.362883,2721.176
820,1.36455,2714.991
821,1.366217,2705.38
822,1.367867,2705.38
823,1.369533,2697.334
824,1.3712,2691.969
825,1.372867,2687.648
826,1.374533,2687.648
827,1.3762,2686.903
828,1.377867,2683.848
829,1.379533,2677.888
830,1.38125,2677.888
831,1.382867,2668.649
832,1.384533,2661.198
833,1.3862,2655.908
834,1.387867,2655.908
835,1.389533,2651.587
836,1.3912,2648.905
837,1.392867,2640.039
838,1.394533,2640.039
839,1.3962,2632.588
840,1.397867,2625.436
841,1.399533,2625.436
842,1.4012,2619.103
843,1.402867,2616.942
844,1.404533,2612.472
845,1.4062,2612.472
846,1.407867,2607.778
847,1.409533,2601.594
848,1.4112,2593.249
849,1.412867,2593.249
850,1.414633,2588.481
851,1.4162,2582.669
852,1.417867,2577.379
853,1.419533,2577.379
854,1.4212,2573.729
855,1.422867,2572.536
856,1.424533,2572.536
857,1.4262,2569.631
858,1.42785,2567.545
859,1.429517,2563.521
860,1.431183,2563.521
861,1.43285,2556.145
862,1.434533,2549.663
863,1.436267,2543.032
864,1.43785,2543.032
865,1.439517,2537.966
866,1.441183,2528.727
867,1.44285,2525.374
868,1.444517,2525.374
869,1.446183,2519.488
870,1.44785,2511.963
871,1.449517,2507.642
872,1.451183,2507.642
873,1.45285,2499.744
874,1.454517,2494.082
875,1.456183,2494.082
876,1.45785,2489.909
877,1.459517,2487.376
878,1.461183,2484.471
879,1.46285,2484.471
880,1.464517,2479.33
881,1.466183,2474.114
882,1.46785,2468.75
883,1.469517,2468.75
884,1.471167,2462.193
885,1.472833,2459.586
886,1.4745,2457.5
887,1.476167,2457.5
888,1.477833,2450.943
889,1.4795,2449.751
890,1.481167,2449.751
891,1.482833,2446.249
892,1.4845,2439.767
893,1.486167,2435.818
894,1.487833,2435.818
895,1.489483,2429.038
896,1.49115,2422.556
897,1.492817,2417.117
898,1.494483,2417.117
899,1.49615,2412.945
