"ID","sea_time","fid_signal"
1,0,139.922
2,0.001717,139.944
3,0.003333,140.049
4,0.005,140.049
5,0.006667,139.788
6,0.008333,139.818
7,0.010033,139.855
8,0.011667,139.855
9,0.013383,139.944
10,0.015,140.108
11,0.016667,140.429
12,0.018433,140.429
13,0.02,140.548
14,0.021667,140.466
15,0.023333,140.198
16,0.025,140.198
17,0.026667,139.84
18,0.028333,139.564
19,0.03,139.564
20,0.031667,139.497
21,0.033333,139.713
22,0.034983,139.765
23,0.03665,139.765
24,0.038317,140.041
25,0.039983,140.026
26,0.04165,139.803
27,0.043317,139.803
28,0.044983,139.728
29,0.04665,139.676
30,0.048317,139.847
31,0.049983,139.847
32,0.05165,139.929
33,0.053317,140.049
34,0.054983,140.116
35,0.05665,140.116
36,0.058317,140.16
37,0.059983,140.376
38,0.06165,140.376
39,0.063317,140.324
40,0.064983,140.22
41,0.06665,140.019
42,0.068317,140.019
43,0.069983,139.803
44,0.07165000000000001,139.579
45,0.07331699999999999,139.758
46,0.07498299999999999,139.758
47,0.076683,139.989
48,0.078317,140.257
49,0.079983,140.615
50,0.08165,140.615
51,0.083317,140.429
52,0.084983,140.272
53,0.08665,140.272
54,0.08831700000000001,139.877
55,0.09,139.885
56,0.09165,139.989
57,0.093317,139.989
58,0.094983,139.795
59,0.096633,140.198
60,0.0983,140.16
61,0.099967,140.16
62,0.101633,140.004
63,0.103383,139.944
64,0.104967,139.877
65,0.106633,139.877
66,0.1083,140.034
67,0.109967,140.257
68,0.111633,140.354
69,0.1133,140.354
70,0.114967,140.391
71,0.116633,140.473
72,0.1183,140.473
73,0.119967,140.51
74,0.121633,140.66
75,0.1233,140.689
76,0.124967,140.689
77,0.126633,140.555
78,0.1283,140.309
79,0.129967,140.496
80,0.131633,140.496
81,0.1333,140.294
82,0.134967,140.242
83,0.136733,140.093
84,0.1383,140.093
85,0.139967,139.639
86,0.141633,139.832
87,0.1433,139.832
88,0.144967,139.765
89,0.146633,140.183
90,0.1483,140.607
91,0.149967,140.607
92,0.151633,140.585
93,0.1533,140.607
94,0.154967,140.294
95,0.156667,140.294
96,0.158283,140.004
97,0.15995,139.795
98,0.161617,139.602
99,0.163283,139.602
100,0.16495,139.557
101,0.166617,139.542
102,0.168283,139.743
103,0.16995,139.743
104,0.171617,139.788
105,0.173283,139.914
106,0.17495,139.914
107,0.176617,140.198
108,0.1783,140.011
109,0.17995,140.265
110,0.181617,140.265
111,0.183317,140.227
112,0.18495,140.049
113,0.186617,139.877
114,0.188283,139.877
115,0.18995,139.549
116,0.191617,139.505
117,0.193283,139.542
118,0.19495,139.542
119,0.196617,140.108
120,0.198283,140.28
121,0.19995,140.28
122,0.201617,140.592
123,0.203283,140.436
124,0.20495,139.87
125,0.206633,139.87
126,0.208283,140.086
127,0.20995,140.093
128,0.211617,140.458
129,0.213283,140.458
130,0.21495,140.481
131,0.2166,140.123
132,0.218267,139.736
133,0.21995,139.736
134,0.221617,139.43
135,0.223267,139.445
136,0.224933,139.445
137,0.2266,139.415
138,0.228267,139.43
139,0.229933,139.616
140,0.2316,139.616
141,0.233267,139.654
142,0.234933,139.862
143,0.2366,140.049
144,0.238267,140.049
145,0.239933,140.138
146,0.2416,140.339
147,0.243267,140.57
148,0.244933,140.57
149,0.2466,140.227
150,0.248267,139.9
151,0.249933,139.87
152,0.2516,139.87
153,0.253267,139.408
154,0.255033,139.698
155,0.2566,139.698
156,0.258267,139.855
157,0.259933,140.049
158,0.2616,140.473
159,0.263267,140.473
160,0.264933,140.548
161,0.2666,140.689
162,0.268267,140.324
163,0.269933,140.324
164,0.2717,140.369
165,0.273267,140.004
166,0.274933,139.788
167,0.276583,139.788
168,0.27825,140.078
169,0.279917,139.959
170,0.281583,139.959
171,0.28325,140.183
172,0.284917,140.22
173,0.286583,140.399
174,0.28825,140.399
175,0.289917,140.384
176,0.291567,140.458
177,0.293233,140.771
178,0.294933,140.771
179,0.296567,140.57
180,0.298233,140.697
181,0.2999,140.913
182,0.301567,140.913
183,0.303233,140.652
184,0.3049,140.689
185,0.306567,140.972
186,0.308233,140.972
187,0.3099,140.958
188,0.311567,141.002
189,0.313233,141.002
190,0.3149,141.159
191,0.316567,141.487
192,0.318233,142.284
193,0.3199,142.284
194,0.321567,143.364
195,0.323233,145.078
196,0.3249,146.65
197,0.326567,146.65
198,0.328233,148.661
199,0.3299,151.604
200,0.331567,154.741
201,0.333233,154.741
202,0.334883,158.809
203,0.33655,163.741
204,0.338217,163.741
205,0.3399,169.382
206,0.34155,175.521
207,0.343217,182.077
208,0.344883,182.077
209,0.34655,189.245
210,0.34825,196.412
211,0.349883,204.146
212,0.35155,204.146
213,0.353233,212.312
214,0.354883,222.37
215,0.3566,238.53
216,0.358217,238.53
217,0.359883,268.638
218,0.36155,328.898
219,0.363217,444.025
220,0.364883,444.025
221,0.36655,650.2569999999999
222,0.368217,993.587
223,0.369933,993.587
224,0.37155,1522.534
225,0.373317,2282.85
226,0.374883,3308.877
227,0.37655,3308.877
228,0.378217,4619.963
229,0.379883,6222.442
230,0.38155,8111.812
231,0.383217,8111.812
232,0.384883,10278.516
233,0.38655,12712.694
234,0.388217,15403.524
235,0.389883,15403.524
236,0.39155,18342.33
237,0.393217,21518.371
238,0.394867,21518.371
239,0.396533,24916.328
240,0.3982,28517.984
241,0.399867,32293.045
242,0.401533,32293.045
243,0.4032,36209.367
244,0.404867,40228.422
245,0.406533,44305.422
246,0.4082,44305.422
247,0.409867,48398.762
248,0.411533,52462.852
249,0.4132,56456.023
250,0.414867,56456.023
251,0.416533,60339.719
252,0.4182,64077.293
253,0.419867,64077.293
254,0.421533,67634.008
255,0.4232,70973.109
256,0.424867,74061.227
257,0.426533,74061.227
258,0.4282,76864.859
259,0.429867,79346.227
260,0.431533,81467.594
261,0.433217,81467.594
262,0.434867,83181.336
263,0.436533,84434.258
264,0.4382,85168.711
265,0.439867,85168.711
266,0.441533,85322.234
267,0.4432,84842.383
268,0.444867,83696.914
269,0.446567,83696.914
270,0.4482,81886.891
271,0.449867,79453.875
272,0.451533,79453.875
273,0.4532,76478.30499999999
274,0.454867,73069.391
275,0.456517,69353.92999999999
276,0.458183,69353.92999999999
277,0.45985,65460.676
278,0.461517,61507.648
279,0.463183,57592.695
280,0.46485,57592.695
281,0.466517,53790.516
282,0.468183,50153.758
283,0.46985,46715.289
284,0.471517,46715.289
285,0.473183,43492.176
286,0.4749,40490.68
287,0.476517,40490.68
288,0.478183,37709.172
289,0.47985,35140.781
290,0.481517,32775.961
291,0.483183,32775.961
292,0.48485,30602.371
293,0.486517,28607.344
294,0.488183,26777.477
295,0.48985,26777.477
296,0.491567,25100.307
297,0.493183,23563.512
298,0.49485,22154.316
299,0.496517,22154.316
300,0.498183,20861.768
301,0.49985,19674.563
302,0.501517,18583.492
303,0.503183,18583.492
304,0.50485,17579.578
305,0.506517,16654.424
306,0.508283,15800.953
307,0.50985,15800.953
308,0.511517,15011.608
309,0.5131829999999999,14281.549
310,0.514833,14281.549
311,0.5165,13604.879
312,0.518167,12976.975
313,0.519833,12393.981
314,0.521517,12393.981
315,0.523217,11851.273
316,0.5249,11345.699
317,0.5265,10874.22
318,0.5281670000000001,10874.22
319,0.529833,10433.741
320,0.5315,10021.783
321,0.5331669999999999,10021.783
322,0.534833,9636.066000000001
323,0.5365,9274.4
324,0.538167,8934.549999999999
325,0.539833,8934.549999999999
326,0.5415,8615.248
327,0.543167,8314.796
328,0.544833,8031.868
329,0.5465,8031.868
330,0.548167,7765.583
331,0.549833,7514.06
332,0.5515,7276.341
333,0.553167,7276.341
334,0.554833,7051.565
335,0.5565,6838.851
336,0.558167,6637.313
337,0.559833,6637.313
338,0.5615,6446.257
339,0.563167,6264.851
340,0.564833,6264.851
341,0.5665,6092.325
342,0.568167,5928.047
343,0.569833,5771.57
344,0.5715,5771.57
345,0.573167,5622.014
346,0.574817,5479.194
347,0.576483,5342.692
348,0.5781500000000001,5342.692
349,0.579817,5212.15
350,0.581467,5087.338
351,0.583133,4967.6
352,0.5848,4967.6
353,0.586467,4852.638
354,0.588133,4742.205
355,0.5898,4742.205
356,0.591483,4635.498
357,0.593183,4532.799
358,0.5948,4433.535
359,0.596467,4433.535
360,0.598133,4337.952
361,0.5998,4245.907
362,0.6015,4156.873
363,0.603133,4156.873
364,0.6048,4071.355
365,0.606467,3988.199
366,0.608133,3908.075
367,0.60985,3908.075
368,0.611467,3830.254
369,0.613133,3754.258
370,0.6148,3754.258
371,0.616467,3680.758
372,0.618133,3609.59
373,0.6198,3540.963
374,0.621467,3540.963
375,0.623133,3474.698
376,0.6248,3410.466
377,0.626517,3347.516
378,0.6281330000000001,3347.516
379,0.6298,3286.317
380,0.631467,3226.854
381,0.6331329999999999,3168.874
382,0.634783,3168.874
383,0.63645,3112.897
384,0.638117,3058.538
385,0.639783,3005.691
386,0.64145,3005.691
387,0.643117,2954.438
388,0.644783,2904.415
389,0.64645,2904.415
390,0.6481170000000001,2855.629
391,0.649783,2808.094
392,0.65145,2762.116
393,0.6531169999999999,2762.116
394,0.654783,2717.473
395,0.65645,2673.611
396,0.658117,2631.076
397,0.659783,2631.076
398,0.66145,2589.271
399,0.663117,2548.613
400,0.664783,2509.296
401,0.6665,2509.296
402,0.668117,2470.926
403,0.669783,2433.62
404,0.67145,2433.62
405,0.673117,2396.971
406,0.674783,2361.238
407,0.67645,2326.481
408,0.678117,2326.481
409,0.679783,2292.425
410,0.68145,2259.262
411,0.68315,2227.001
412,0.684783,2227.001
413,0.68645,2195.604
414,0.688117,2165.02
415,0.689783,2135.307
416,0.69145,2135.307
417,0.693117,2106.138
418,0.694767,2077.587
419,0.696433,2049.521
420,0.6981000000000001,2049.521
421,0.699767,2022.028
422,0.701433,1994.975
423,0.7030999999999999,1994.975
424,0.704767,1968.414
425,0.706433,1943.015
426,0.7081,1917.735
427,0.709767,1917.735
428,0.71145,1893.185
429,0.7131,1869.462
430,0.714767,1845.896
431,0.716433,1845.896
432,0.7181,1823.135
433,0.719767,1801.021
434,0.721433,1778.826
435,0.7231,1778.826
436,0.7247670000000001,1756.862
437,0.726433,1735.59
438,0.728133,1735.59
439,0.7297670000000001,1715.012
440,0.731433,1694.888
441,0.7331,1675.509
442,0.7347669999999999,1675.509
443,0.736433,1656.354
444,0.7381,1636.989
445,0.739767,1618.467
446,0.741433,1618.467
447,0.7431,1600.243
448,0.7448669999999999,1582.324
449,0.746433,1564.838
450,0.7481,1564.838
451,0.749767,1547.597
452,0.751433,1530.416
453,0.7531,1513.846
454,0.75475,1513.846
455,0.756433,1497.678
456,0.758083,1481.622
457,0.75975,1481.622
458,0.761417,1466.349
459,0.763083,1450.747
460,0.76475,1435.719
461,0.766417,1435.719
462,0.768083,1420.788
463,0.76975,1406.133
464,0.771417,1391.955
465,0.773083,1391.955
466,0.774767,1377.508
467,0.776417,1363.732
468,0.778083,1349.963
469,0.7797500000000001,1349.963
470,0.781417,1336.686
471,0.783083,1323.834
472,0.7847499999999999,1323.834
473,0.786417,1311.205
474,0.788083,1298.703
475,0.78975,1286.306
476,0.791417,1286.306
477,0.793083,1274.31
478,0.79475,1262.233
479,0.796417,1250.535
480,0.798083,1250.535
481,0.79975,1238.853
482,0.801417,1226.939
483,0.803083,1215.436
484,0.80475,1215.436
485,0.8064170000000001,1204.036
486,0.8081,1193.039
487,0.80975,1193.039
488,0.8114170000000001,1182.601
489,0.813083,1172.446
490,0.814733,1162.261
491,0.8164,1162.261
492,0.818067,1152.351
493,0.819733,1142.234
494,0.8214,1132.354
495,0.823067,1132.354
496,0.824733,1122.505
497,0.8264,1112.804
498,0.828067,1103.386
499,0.829783,1103.386
500,0.8314,1094.006
501,0.833067,1085.021
502,0.8347329999999999,1075.976
503,0.8364,1075.976
504,0.838067,1067.258
505,0.839733,1058.348
506,0.8414,1058.348
507,0.843067,1049.399
508,0.844733,1040.95
509,0.846417,1032.636
510,0.848067,1032.636
511,0.849733,1024.455
512,0.8514,1016.341
513,0.853067,1008.101
514,0.854733,1008.101
515,0.8564000000000001,1000.129
516,0.858083,992.134
517,0.859733,984.579
518,0.8614000000000001,984.579
519,0.863167,977.226
520,0.864733,969.835
521,0.8663999999999999,969.835
522,0.868067,962.5700000000001
523,0.869733,955.38
524,0.8714,947.9
525,0.87305,947.9
526,0.8747,940.427
527,0.876367,933.386
528,0.878033,926.569
529,0.8797,926.569
530,0.881367,919.96
531,0.883033,913.3
532,0.884733,906.847
533,0.886367,906.847
534,0.888033,900.12
535,0.8897,893.712
536,0.891367,887.454
537,0.893033,887.454
538,0.8947000000000001,880.957
539,0.896367,874.571
540,0.898033,874.571
541,0.8997000000000001,868.4400000000001
542,0.901367,862.405
543,0.903033,856.787
544,0.9046999999999999,856.787
545,0.906367,851.08
546,0.908033,845.186
547,0.9097,839.323
548,0.911367,839.323
549,0.913033,833.645
550,0.9147,828.303
551,0.916367,822.924
552,0.918033,822.924
553,0.9197,817.5890000000001
554,0.921367,811.905
555,0.923033,811.905
556,0.9247,806.518
557,0.9263670000000001,801.28
558,0.928033,796.139
559,0.9297,796.139
560,0.9313669999999999,791.304
561,0.933017,786.357
562,0.934683,781.328
563,0.93635,781.328
564,0.938017,776.343
565,0.9397,771.351
566,0.9414,766.4930000000001
567,0.943017,766.4930000000001
568,0.9446830000000001,762.008
569,0.94635,757.679
570,0.948067,753.12
571,0.949717,753.12
572,0.95135,748.388
573,0.953017,743.441
574,0.9546829999999999,743.441
575,0.95635,738.837
576,0.958017,734.277
577,0.959683,729.837
578,0.96135,729.837
579,0.963017,725.612
580,0.964683,720.985
581,0.96635,717.059
582,0.968017,717.059
583,0.969683,712.968
584,0.97135,708.796
585,0.973017,704.758
586,0.974683,704.758
587,0.9763500000000001,700.444
588,0.978017,696.532
589,0.979683,696.532
590,0.981433,692.621
591,0.983017,688.6420000000001
592,0.9847,684.574
593,0.9863499999999999,684.574
594,0.988017,680.424
595,0.989683,676.58
596,0.99135,673.115
597,0.993017,673.115
598,0.994667,669.651
599,0.996333,666.141
600,0.998,662.67
601,0.999667,662.67
602,1.001333,659.049
603,1.003,655.48
604,1.004667,655.48
605,1.006333,651.941
606,1.008,648.245
607,1.009667,644.736
608,1.011333,644.736
609,1.013,640.973
610,1.014667,637.323
611,1.016333,633.873
612,1.018,633.873
613,1.019667,630.215
614,1.021333,626.922
615,1.023017,623.792
616,1.0247,623.792
617,1.026367,620.633
618,1.028,617.586
619,1.029667,614.494
620,1.031333,614.494
621,1.033,611.193
622,1.034667,607.982
623,1.036333,607.982
624,1.038,604.853
625,1.039667,602.067
626,1.041333,599.228
627,1.043,599.228
628,1.044667,596.285
629,1.046333,593.4160000000001
630,1.048,590.265
631,1.049667,590.265
632,1.051333,587.627
633,1.053,584.96
634,1.05465,582.159
635,1.056317,582.159
636,1.057983,579.208
637,1.05965,576.116
638,1.061317,576.116
639,1.062983,573.345
640,1.06465,570.4690000000001
641,1.066383,567.8390000000001
642,1.067983,567.8390000000001
643,1.06965,565.052
644,1.071317,562.347
645,1.072983,559.747
646,1.07465,559.747
647,1.076317,557.46
648,1.077983,554.956
649,1.07965,552.431
650,1.081317,552.431
651,1.082983,549.8680000000001
652,1.08465,547.066
653,1.086317,544.682
654,1.087983,544.682
655,1.08965,541.866
656,1.091317,539.474
657,1.092983,539.474
658,1.09465,537.157
659,1.096317,534.683
660,1.097983,532.4109999999999
661,1.099717,532.4109999999999
662,1.10135,530.072
663,1.102983,527.583
664,1.10465,525.258
665,1.106317,525.258
666,1.107983,522.897
667,1.10965,520.46
668,1.111317,518.188
669,1.112983,518.188
670,1.114633,515.886
671,1.1163,513.539
672,1.117967,513.539
673,1.119633,511.505
674,1.1213,509.545
675,1.122967,507.548
676,1.124633,507.548
677,1.1263,505.559
678,1.127967,503.458
679,1.129633,501.096
680,1.1313,501.096
681,1.132967,498.72
682,1.134633,496.738
683,1.1363,494.607
684,1.137967,494.607
685,1.139633,492.476
686,1.1413,490.643
687,1.142967,488.564
688,1.144633,488.564
689,1.1463,486.635
690,1.147967,484.936
691,1.149633,484.936
692,1.1513,483.14
693,1.152967,481.531
694,1.154633,479.639
695,1.1563,479.639
696,1.157967,477.806
697,1.159633,475.936
698,1.1613,473.961
699,1.162967,473.961
700,1.164617,471.771
701,1.166283,469.632
702,1.16795,467.658
703,1.169633,467.658
704,1.171283,465.84
705,1.172983,464.223
706,1.1746,464.223
707,1.176267,462.659
708,1.177933,460.714
709,1.1796,458.561
710,1.181267,458.561
711,1.182933,456.847
712,1.184617,454.828
713,1.186267,453.025
714,1.187933,453.025
715,1.1896,451.252
716,1.191267,449.3
717,1.192933,447.989
718,1.1946,447.989
719,1.196267,446.603
720,1.197933,445.426
721,1.1996,445.426
722,1.20135,443.868
723,1.202933,441.909
724,1.2046,439.979
725,1.206267,439.979
726,1.207933,438.213
727,1.2096,436.805
728,1.211267,435.39
729,1.212933,435.39
730,1.2146,433.989
731,1.216267,432.432
732,1.218033,430.956
733,1.2196,430.956
734,1.221267,429.496
735,1.222933,428.013
736,1.2246,426.345
737,1.226267,426.345
738,1.227933,424.758
739,1.2296,423.096
740,1.231267,423.096
741,1.232933,421.45
742,1.234717,420.392
743,1.23625,419.058
744,1.237917,419.058
745,1.239583,417.836
746,1.24125,416.495
747,1.242917,414.677
748,1.244583,414.677
749,1.246267,413.172
750,1.247917,411.578
751,1.249583,410.348
752,1.25125,410.348
753,1.252917,409.357
754,1.254583,408.225
755,1.25625,408.225
756,1.257917,407.167
757,1.259583,405.751
758,1.26125,404.254
759,1.262933,404.254
760,1.264617,402.637
761,1.26625,401.027
762,1.267917,399.85
763,1.269583,399.85
764,1.27125,398.33
765,1.272917,396.825
766,1.274583,395.484
767,1.27625,395.484
768,1.277917,394.18
769,1.279583,393.048
770,1.28125,392.012
771,1.282917,392.012
772,1.284583,390.969
773,1.28625,389.367
774,1.287917,389.367
775,1.289583,387.758
776,1.29125,386.387
777,1.292917,384.904
778,1.294567,384.904
779,1.296233,384.025
780,1.2979,383.109
781,1.299567,381.924
782,1.301233,381.924
783,1.302917,380.814
784,1.304567,379.369
785,1.306233,378.005
786,1.307917,378.005
787,1.309567,377.074
788,1.311233,375.971
789,1.3129,375.971
790,1.314567,374.772
791,1.316233,373.989
792,1.3179,372.887
793,1.319633,372.887
794,1.321233,371.844
795,1.3229,371.113
796,1.324567,369.862
797,1.326233,369.862
798,1.3279,368.871
799,1.329567,367.865
800,1.331233,366.606
801,1.3329,366.606
802,1.334567,365.458
803,1.336317,364.289
804,1.3379,362.918
805,1.339567,362.918
806,1.341233,361.875
807,1.3429,360.973
808,1.344567,360.973
809,1.346233,359.751
810,1.3479,358.835
811,1.349567,357.71
812,1.35125,357.71
813,1.353017,356.995
814,1.35455,356.227
815,1.356217,355.266
816,1.357883,355.266
817,1.35955,354.171
818,1.361217,352.837
819,1.362883,351.943
820,1.36455,351.943
821,1.366217,350.952
822,1.367883,350.073
823,1.36955,350.073
824,1.371217,349.335
825,1.372883,348.27
826,1.37455,347.555
827,1.376217,347.555
828,1.377883,346.594
829,1.37955,345.327
830,1.381217,344.358
831,1.382883,344.358
832,1.38455,343.412
833,1.386217,342.727
834,1.387933,341.885
835,1.38955,341.885
836,1.391217,340.864
837,1.392883,339.732
838,1.39455,338.949
839,1.396217,338.949
840,1.397883,338.145
841,1.39955,337.377
842,1.401217,337.377
843,1.402883,336.409
844,1.40455,335.395
845,1.406217,334.33
846,1.407883,334.33
847,1.40955,333.175
848,1.411217,332.37
849,1.412883,331.29
850,1.414533,331.29
851,1.4162,330.724
852,1.417867,329.994
853,1.419533,329.293
854,1.4212,329.293
855,1.422867,328.258
856,1.424533,327.013
857,1.4262,327.013
858,1.427867,326.015
859,1.429533,325.143
860,1.431217,324.756
861,1.432867,324.756
862,1.434533,324.249
863,1.4362,323.869
864,1.437933,322.983
865,1.439533,322.983
866,1.4412,321.947
867,1.442867,320.911
868,1.444533,319.861
869,1.4462,319.861
870,1.447867,319.265
871,1.449533,318.654
872,1.4512,318.654
873,1.452867,318.192
874,1.454583,317.514
875,1.456183,316.918
876,1.457867,316.918
877,1.459517,316.255
878,1.461183,315.316
879,1.46285,314.601
880,1.464517,314.601
881,1.466183,313.625
882,1.46785,312.641
883,1.469517,312.001
884,1.47125,312.001
885,1.47285,311.024
886,1.4745,310.19
887,1.476167,309.683
888,1.477833,309.683
889,1.4795,309.08
890,1.481167,308.849
891,1.482833,308.849
892,1.4845,308.067
893,1.486167,307.284
894,1.487833,306.383
895,1.4895,306.383
896,1.491167,305.34
897,1.492833,304.617
898,1.4945,303.909
899,1.496167,303.909
900,1.497833,303.373
901,1.4995,302.814
902,1.501167,302.181
903,1.502833,302.181
904,1.5045,301.681
905,1.506167,301.033
906,1.507833,301.033
907,1.5095,300.437
908,1.511167,299.916
909,1.512833,299.305
910,1.5145,299.305
911,1.516217,298.44
912,1.517833,297.822
913,1.5195,297.308
914,1.521167,297.308
915,1.522833,296.623
916,1.5245,296.138
917,1.526167,295.348
918,1.527833,295.348
919,1.5295,294.589
920,1.531167,293.568
921,1.532867,292.696
922,1.534483,292.696
923,1.53615,291.839
924,1.537817,290.975
925,1.539483,290.975
926,1.54115,290.371
927,1.542817,289.88
928,1.544483,289.477
929,1.54615,289.477
930,1.547817,289.12
931,1.549483,288.71
932,1.55115,288.039
933,1.552817,288.039
934,1.554483,287.265
935,1.55615,286.46
936,1.557817,285.573
937,1.559483,285.573
938,1.56115,285.126
939,1.562833,284.627
