"ID","sea_time","fid_signal"
1,0,146.329
2,0.001667,146.203
3,0.00335,146.165
4,0.005,146.165
5,0.006667,145.979
6,0.008333,145.406
7,0.01,144.489
8,0.011667,144.489
9,0.013333,143.565
10,0.015,142.91
11,0.0167,142.947
12,0.018333,142.947
13,0.02,143.692
14,0.021667,144.541
15,0.023333,145.078
16,0.025,145.078
17,0.026667,145.04
18,0.028333,145.249
19,0.029983,145.383
20,0.03165,145.383
21,0.03335,145.957
22,0.034983,146.031
23,0.03665,146.031
24,0.038317,145.979
25,0.039983,145.696
26,0.04165,145.696
27,0.043317,145.696
28,0.044983,145.786
29,0.04665,145.338
30,0.048317,145.584
31,0.050083,145.584
32,0.05165,145.279
33,0.053317,145.406
34,0.054983,145.741
35,0.05665,145.741
36,0.058317,145.823
37,0.059983,146.106
38,0.061633,146.106
39,0.0633,146.195
40,0.064967,146.106
41,0.066783,145.957
42,0.0683,145.957
43,0.069967,145.532
44,0.071633,145.346
45,0.0733,145.681
46,0.07496700000000001,145.681
47,0.07665,145.599
48,0.07829999999999999,145.711
49,0.079967,145.771
50,0.081633,145.771
51,0.0833,145.704
52,0.084967,145.584
53,0.086633,145.592
54,0.0883,145.592
55,0.08996700000000001,145.786
56,0.09163300000000001,145.666
57,0.09329999999999999,145.666
58,0.094967,145.733
59,0.09665,145.569
60,0.0983,145.428
61,0.099967,145.428
62,0.101633,145.487
63,0.1033,145.83
64,0.104967,146.262
65,0.106633,146.262
66,0.108317,146.404
67,0.109967,146.262
68,0.111633,146.143
69,0.1133,146.143
70,0.114967,146.031
71,0.116633,145.748
72,0.1183,145.748
73,0.119967,145.786
74,0.121617,145.935
75,0.123283,146.009
76,0.12495,146.009
77,0.126617,146.307
78,0.128283,146.449
79,0.12995,146.314
80,0.131617,146.314
81,0.133283,145.935
82,0.134983,145.912
83,0.136617,145.905
84,0.138283,145.905
85,0.139983,145.979
86,0.141617,146.21
87,0.143283,146.21
88,0.14495,146.24
89,0.146617,145.987
90,0.148283,145.763
91,0.14995,145.763
92,0.151667,145.92
93,0.153283,145.704
94,0.15495,145.771
95,0.156617,145.771
96,0.158283,145.86
97,0.15995,145.726
98,0.161617,145.815
99,0.163283,145.815
100,0.16495,145.912
101,0.166617,145.972
102,0.16835,145.808
103,0.16995,145.808
104,0.171617,145.733
105,0.173283,145.935
106,0.17495,145.935
107,0.176617,146.076
108,0.178283,146.233
109,0.179933,146.158
110,0.1816,146.158
111,0.183267,145.756
112,0.18505,145.286
113,0.1866,145.13
114,0.188267,145.13
115,0.189933,144.996
116,0.1916,145.204
117,0.193267,145.324
118,0.194933,145.324
119,0.1966,145.458
120,0.198283,145.622
121,0.199933,145.622
122,0.2016,145.353
123,0.203267,145.353
124,0.204933,145.398
125,0.2066,145.398
126,0.208267,145.338
127,0.209933,145.413
128,0.2116,145.346
129,0.213267,145.346
130,0.214933,145.286
131,0.21665,145.435
132,0.218267,145.875
133,0.219933,145.875
134,0.2216,146.061
135,0.223267,145.778
136,0.224933,145.495
137,0.2266,145.495
138,0.228267,144.996
139,0.229933,144.772
140,0.2316,144.772
141,0.233267,144.809
142,0.234933,144.646
143,0.2366,144.713
144,0.238267,144.713
145,0.239933,145.16
146,0.241583,145.45
147,0.24325,145.8
148,0.244917,145.8
149,0.246583,145.897
150,0.24825,145.465
151,0.249917,145.465
152,0.251583,145.465
153,0.25325,145.45
154,0.254917,145.637
155,0.256583,145.637
156,0.25825,145.644
157,0.259917,145.905
158,0.261583,146.009
159,0.26325,146.009
160,0.264917,145.979
161,0.266583,146.158
162,0.26825,145.912
163,0.269983,145.912
164,0.271583,145.815
165,0.27325,145.592
166,0.27495,145.569
167,0.276583,145.569
168,0.27825,145.629
169,0.279917,145.793
170,0.281583,145.853
171,0.28325,145.853
172,0.284917,145.912
173,0.286667,145.741
174,0.28825,145.741
175,0.289917,145.577
176,0.291583,145.502
177,0.29325,145.406
178,0.294917,145.406
179,0.296583,145.271
180,0.29825,145.465
181,0.299917,145.786
182,0.301567,145.786
183,0.303367,145.793
184,0.3049,145.845
185,0.306567,145.808
186,0.308233,145.808
187,0.3099,145.704
188,0.311567,145.674
189,0.313233,145.674
190,0.3149,145.949
191,0.316567,145.823
192,0.318233,145.629
193,0.3199,145.629
194,0.32155,145.979
195,0.323217,145.942
196,0.324883,145.927
197,0.32655,145.927
198,0.328217,146.031
199,0.329883,145.733
200,0.33155,145.45
201,0.333217,145.45
202,0.334883,145.592
203,0.33655,145.882
204,0.338217,145.882
205,0.339883,146.18
206,0.34155,146.583
207,0.343217,146.985
208,0.344883,146.985
209,0.34655,147.216
210,0.348217,147.44
211,0.349883,147.745
212,0.35155,147.745
213,0.353217,148.095
214,0.3549,148.527
215,0.35655,149.339
216,0.35825,149.339
217,0.359867,150.546
218,0.361533,151.522
219,0.3632,153.027
220,0.364867,153.027
221,0.366533,154.607
222,0.3682,156.246
223,0.369867,156.246
224,0.371533,158.206
225,0.3732,160.456
226,0.374867,163.019
227,0.376533,163.019
228,0.3782,165.828
229,0.379867,169.121
230,0.381533,172.928
231,0.3832,172.928
232,0.384867,176.705
233,0.386533,181.69
234,0.388217,187.039
235,0.389867,187.039
236,0.391533,192.359
237,0.3932,198.655
238,0.394867,198.655
239,0.396533,204.749
240,0.3982,211.753
241,0.399867,219.122
242,0.401533,219.122
243,0.4032,226.781
244,0.404883,234.924
245,0.406533,242.665
246,0.4082,242.665
247,0.409867,250.98
248,0.411533,258.833
249,0.4132,266.828
250,0.414867,266.828
251,0.416533,274.979
252,0.4182,282.325
253,0.419867,290.304
254,0.421633,290.304
255,0.423183,297.576
256,0.42485,305.258
257,0.426517,305.258
258,0.428183,313.245
259,0.42985,320.993
260,0.431517,330.374
261,0.433183,330.374
262,0.434883,341.073
263,0.436517,355.862
264,0.438183,377.059
265,0.43985,377.059
266,0.441517,407.435
267,0.443183,452.34
268,0.44485,517.2569999999999
269,0.446517,517.2569999999999
270,0.448183,610.299
271,0.44985,741.296
272,0.451517,741.296
273,0.453183,920.728
274,0.45485,1160.711
275,0.456517,1472.421
276,0.458183,1472.421
277,0.45985,1866.661
278,0.461517,2353.042
279,0.463183,2937.891
280,0.46485,2937.891
281,0.466517,3626.272
282,0.468183,4419.692
283,0.46985,5317.368
284,0.471517,5317.368
285,0.473183,6317.206
286,0.47485,7415.444
287,0.476517,8608.036
288,0.478183,8608.036
289,0.47985,9890.058000000001
290,0.4815,11255.928
291,0.483167,11255.928
292,0.484833,12700.99
293,0.4865,14218.166
294,0.488167,15801.489
295,0.489833,15801.489
296,0.4915,17444.768
297,0.493167,19141.801
298,0.494833,20886.377
299,0.496517,20886.377
300,0.498233,22672.533
301,0.49985,24493.537
302,0.5014999999999999,26338.861
303,0.503167,26338.861
304,0.504833,28197.223
305,0.506567,30058.359
306,0.508167,30058.359
307,0.509833,31911.039
308,0.5115,33743.598
309,0.513167,35545.672
310,0.514833,35545.672
311,0.5165,37306.629
312,0.518167,39015.387
313,0.519833,40662.434
314,0.5215,40662.434
315,0.523167,42239.605
316,0.524833,43734.078
317,0.5265,45132.668
318,0.5281670000000001,45132.668
319,0.529833,46424.031
320,0.5315,47598.25
321,0.5331669999999999,47598.25
322,0.534833,48647.715
323,0.5365,49566.238
324,0.538167,50349.723
325,0.53995,50349.723
326,0.541483,50991.648
327,0.54315,51485.859
328,0.544817,51829.957
329,0.5464830000000001,51829.957
330,0.54815,52018.879
331,0.549817,52049.254
332,0.5514829999999999,51920.086
333,0.55315,51920.086
334,0.554817,51634.367
335,0.5564829999999999,51200.961
336,0.55815,50635.332
337,0.559817,50635.332
338,0.561483,49957.031
339,0.56315,49182.027
340,0.564817,49182.027
341,0.566483,48323.934
342,0.56815,47395.723
343,0.569833,46410.586
344,0.571483,46410.586
345,0.57315,45380.621
346,0.574817,44319.063
347,0.576483,43237.508
348,0.5781500000000001,43237.508
349,0.579817,42143.055
350,0.581483,41044.898
351,0.5831499999999999,39951.055
352,0.584817,39951.055
353,0.586483,38867.32
354,0.58815,37798.957
355,0.589817,37798.957
356,0.591483,36749.734
357,0.59315,35723.035
358,0.594817,34720.242
359,0.596483,34720.242
360,0.59815,33742.672
361,0.5998,32792.18
362,0.601467,31868.309
363,0.603133,31868.309
364,0.6048,30970.305
365,0.606467,30098.543
366,0.608133,29253.357
367,0.6098,29253.357
368,0.61145,28435.111
369,0.613117,27645.85
370,0.614783,26885.896
371,0.6164500000000001,26885.896
372,0.618117,26154.75
373,0.619783,25450.959
374,0.6214499999999999,25450.959
375,0.623117,24772.115
376,0.624783,24116.74
377,0.62645,23483.873
378,0.628117,23483.873
379,0.629783,22872.143
380,0.63145,22281.438
381,0.633117,21711.811
382,0.634783,21711.811
383,0.63645,21161.936
384,0.638117,20632.074
385,0.639783,20121.396
386,0.641467,20121.396
387,0.643117,19628.375
388,0.644783,19151.092
389,0.64645,19151.092
390,0.6481170000000001,18689.313
391,0.649783,18242.359
392,0.65145,17808.885
393,0.6531169999999999,17808.885
394,0.654783,17388.902
395,0.65645,16982.592
396,0.6582170000000001,16589.709
397,0.659783,16589.709
398,0.661433,16210.653
399,0.6631,15846.007
400,0.664767,15494.056
401,0.6664330000000001,15494.056
402,0.6681,15153.743
403,0.669767,14824.569
404,0.6714329999999999,14505.804
405,0.6731,14505.804
406,0.674783,14197.104
407,0.676433,13898.03
408,0.6781,13898.03
409,0.679767,13608.157
410,0.681433,13326.607
411,0.6831,13052.747
412,0.684767,13052.747
413,0.686433,12786.642
414,0.6881,12528.181
415,0.689767,12276.873
416,0.691433,12276.873
417,0.6931,12032.658
418,0.694767,11795.066
419,0.696433,11564.307
420,0.6981000000000001,11564.307
421,0.699767,11340.879
422,0.701433,11124.737
423,0.7030999999999999,11124.737
424,0.704767,10915.957
425,0.706433,10713.205
426,0.7081,10515.966
427,0.709767,10515.966
428,0.711433,10324.545
429,0.713117,10137.849
430,0.714767,9956.725
431,0.716433,9956.725
432,0.7181,9780.719999999999
433,0.719767,9609.103999999999
434,0.721417,9441.755999999999
435,0.723083,9441.755999999999
436,0.72475,9277.873
437,0.726417,9117.395
438,0.728083,9117.395
439,0.72975,8960.433999999999
440,0.731417,8807.800999999999
441,0.733083,8659.832
442,0.73475,8659.832
443,0.736417,8516.178
444,0.738083,8376.695
445,0.73975,8240.573
446,0.741417,8240.573
447,0.74315,8107.96
448,0.74475,7979.005
449,0.746417,7853.24
450,0.7480830000000001,7853.24
451,0.74975,7730.737
452,0.751417,7611.088
453,0.7530829999999999,7494.286
454,0.75475,7494.286
455,0.756417,7380.158
456,0.758083,7268.593
457,0.75975,7268.593
458,0.761417,7159.255
459,0.763083,7052.37
460,0.76475,6947.651
461,0.766417,6947.651
462,0.768083,6845.258
463,0.76975,6745.383
464,0.771417,6647.482
465,0.773083,6647.482
466,0.77475,6552.257
467,0.776517,6459.475
468,0.778083,6367.847
469,0.779733,6367.847
470,0.7814,6278.098
471,0.783067,6190.434
472,0.784733,6190.434
473,0.7864,6104.521
474,0.788067,6021.284
475,0.789733,5940.609
476,0.791417,5940.609
477,0.793233,5861.186
478,0.794733,5783.588
479,0.7964,5707.063
480,0.798067,5707.063
481,0.799733,5631.604
482,0.8014,5557.969
483,0.803067,5486.012
484,0.804733,5486.012
485,0.8064,5416.52
486,0.808067,5348.809
487,0.809733,5282.395
488,0.8114,5282.395
489,0.813067,5217.045
490,0.814733,5153.053
491,0.8164,5153.053
492,0.818067,5090.05
493,0.819733,5028.546
494,0.8214,4968.308
495,0.823067,4968.308
496,0.824733,4909.031
497,0.8264,4850.805
498,0.828067,4793.771
499,0.8297330000000001,4793.771
500,0.8314,4738.025
501,0.833067,4683.479
502,0.8347329999999999,4629.597
503,0.8364,4629.597
504,0.838067,4576.467
505,0.839733,4524.052
506,0.841383,4524.052
507,0.84305,4472.241
508,0.8447170000000001,4422.18
509,0.846383,4372.708
510,0.84805,4372.708
511,0.8497169999999999,4324.257
512,0.851383,4276.961
513,0.85305,4230.656
514,0.8547169999999999,4230.656
515,0.856383,4185.952
516,0.858083,4142.068
517,0.859717,4098.713
518,0.861417,4098.713
519,0.86305,4055.992
520,0.864717,4013.479
521,0.866383,3971.621
522,0.86805,3971.621
523,0.869717,3931.098
524,0.871383,3891.058
525,0.87305,3891.058
526,0.874717,3851.749
527,0.876383,3813.341
528,0.8781330000000001,3775.246
529,0.879717,3775.246
530,0.881383,3737.539
531,0.88305,3700.502
532,0.884717,3663.965
533,0.886383,3663.965
534,0.88805,3628.284
535,0.889717,3593.422
536,0.891383,3559.045
537,0.89305,3559.045
538,0.894817,3525.324
539,0.896383,3491.305
540,0.89805,3491.305
541,0.8997000000000001,3457.911
542,0.901367,3425.032
543,0.903017,3392.562
544,0.904683,3392.562
545,0.90635,3361.173
546,0.908017,3330.372
547,0.909683,3300.414
548,0.91135,3300.414
549,0.913017,3271.073
550,0.914683,3242.306
551,0.91635,3214.106
552,0.918017,3214.106
553,0.919683,3186.353
554,0.92135,3159.158
555,0.923017,3159.158
556,0.924683,3131.881
557,0.92635,3104.985
558,0.928017,3078.177
559,0.929683,3078.177
560,0.9313669999999999,3051.795
561,0.933017,3026.322
562,0.934683,3001.004
563,0.93635,3001.004
564,0.938017,2976.537
565,0.939683,2951.95
566,0.94135,2927.065
567,0.943017,2927.065
568,0.9446830000000001,2902.202
569,0.94635,2877.764
570,0.948017,2853.93
571,0.9496830000000001,2853.93
572,0.95135,2831.31
573,0.953017,2809.301
574,0.9546829999999999,2809.301
575,0.95635,2787.262
576,0.958017,2765.752
577,0.959683,2744.161
578,0.961333,2744.161
579,0.963,2723.12
580,0.9646670000000001,2702.72
581,0.966333,2682.485
582,0.968,2682.485
583,0.9696669999999999,2663.001
584,0.971333,2643.094
585,0.973,2622.947
586,0.974667,2622.947
587,0.976333,2602.957
588,0.978,2582.803
589,0.9797169999999999,2563.722
590,0.981333,2563.722
591,0.983,2544.746
592,0.984667,2526.403
593,0.986333,2526.403
594,0.988,2508.014
595,0.989667,2489.723
596,0.991333,2472.006
597,0.993,2472.006
598,0.994667,2454.542
599,0.9964,2437.316
600,0.998,2420.254
601,0.999667,2420.254
602,1.001333,2403.103
603,1.003,2385.661
604,1.004667,2368.793
605,1.006333,2368.793
606,1.008,2352.506
607,1.009667,2336.502
608,1.011333,2336.502
609,1.013083,2321.273
610,1.014667,2306.268
611,1.016333,2291.068
612,1.018,2291.068
613,1.019667,2276.234
614,1.021317,2261.467
615,1.022983,2246.738
616,1.02465,2246.738
617,1.026317,2231.806
618,1.027983,2217.174
619,1.029767,2202.705
620,1.031317,2202.705
621,1.032983,2188.608
622,1.03465,2175.182
623,1.036317,2175.182
624,1.037983,2161.786
625,1.039667,2148.099
626,1.041317,2134.375
627,1.042983,2134.375
628,1.04465,2120.89
629,1.046317,2107.657
630,1.047983,2094.835
631,1.04965,2094.835
632,1.051317,2082.244
633,1.052983,2069.578
634,1.05465,2056.971
635,1.056317,2056.971
636,1.057983,2044.514
637,1.05965,2032.131
638,1.061317,2020.039
639,1.062983,2020.039
640,1.06465,2008.393
641,1.066317,1996.703
642,1.067983,1996.703
643,1.06965,1985.028
644,1.071317,1973.212
645,1.072983,1961.507
646,1.07465,1961.507
647,1.076317,1950.145
648,1.077983,1938.939
649,1.07965,1927.89
650,1.0813,1927.89
651,1.082967,1917.176
652,1.084633,1906.514
653,1.0863,1895.808
654,1.087967,1895.808
655,1.089633,1885.109
656,1.0913,1873.978
657,1.092967,1873.978
658,1.094633,1862.742
659,1.0963,1852.006
660,1.097983,1841.672
661,1.099633,1841.672
662,1.1013,1831.457
663,1.102967,1821.786
664,1.104633,1812.302
665,1.1063,1812.302
666,1.107967,1802.817
667,1.109633,1793.563
668,1.1113,1784.146
669,1.112967,1784.146
670,1.1147,1775.041
671,1.1163,1766.182
672,1.117967,1757.182
673,1.119633,1757.182
674,1.1213,1748.569
675,1.122967,1739.495
676,1.124633,1739.495
677,1.1263,1730.36
678,1.127967,1721.561
679,1.129633,1712.643
680,1.131367,1712.643
681,1.132967,1704.231
682,1.134633,1695.454
683,1.1363,1686.558
684,1.137967,1686.558
685,1.139633,1677.893
686,1.141283,1668.997
687,1.14295,1660.503
688,1.144617,1660.503
689,1.146283,1652.315
690,1.148067,1644.425
691,1.149617,1644.425
692,1.151283,1636.669
693,1.15295,1629.055
694,1.154617,1621.671
695,1.156283,1621.671
696,1.15795,1613.952
697,1.159617,1606.33
698,1.161283,1598.969
699,1.16295,1598.969
700,1.164617,1591.63
701,1.166283,1584.165
702,1.16795,1576.804
703,1.169617,1576.804
704,1.171283,1569.42
705,1.17295,1561.664
706,1.174617,1561.664
707,1.176283,1554.094
708,1.17795,1546.629
709,1.179617,1539.603
710,1.181283,1539.603
711,1.18295,1532.882
712,1.184617,1526.035
713,1.186283,1518.942
714,1.18795,1518.942
715,1.189617,1511.559
716,1.191283,1504.056
717,1.19295,1497.105
718,1.1946,1497.105
719,1.196267,1490.399
720,1.197933,1483.709
721,1.199583,1477.346
722,1.20125,1477.346
723,1.20295,1470.812
724,1.204583,1464.665
725,1.20625,1464.665
726,1.207917,1458.429
727,1.209583,1451.939
728,1.21125,1445.971
729,1.212917,1445.971
730,1.214583,1439.869
731,1.216267,1433.834
732,1.217917,1428.351
733,1.219583,1428.351
734,1.22125,1422.375
735,1.222917,1416.385
736,1.224583,1410.522
737,1.22625,1410.522
738,1.227917,1404.867
739,1.229583,1399.152
740,1.23125,1399.152
741,1.23295,1393.467
742,1.234583,1387.753
743,1.23625,1381.814
744,1.237917,1381.814
745,1.239583,1376.01
746,1.24125,1370.035
747,1.242917,1364.447
748,1.244583,1364.447
749,1.24625,1358.964
750,1.247917,1353.48
751,1.2496,1348.287
752,1.25125,1348.287
753,1.252917,1343.064
754,1.254583,1337.983
755,1.25625,1332.738
756,1.257917,1332.738
757,1.259583,1327.671
758,1.261233,1322.716
759,1.2629,1322.716
760,1.264567,1317.583
761,1.266367,1312.599
762,1.2679,1307.331
763,1.269567,1307.331
764,1.271233,1302.294
765,1.2729,1297.027
766,1.274567,1291.975
767,1.276233,1291.975
768,1.2779,1287.155
769,1.279567,1281.589
770,1.281233,1276.135
771,1.2829,1276.135
772,1.284567,1271.248
773,1.286233,1266.077
774,1.2879,1266.077
775,1.289583,1261.577
776,1.291233,1257.353
777,1.2929,1252.592
778,1.294567,1252.592
779,1.296233,1248.427
780,1.2979,1243.725
781,1.299567,1238.987
782,1.301233,1238.987
783,1.3029,1234.71
784,1.304567,1230.061
785,1.30625,1225.673
786,1.3079,1225.673
787,1.309567,1221.56
788,1.311233,1217.052
789,1.3129,1217.052
790,1.314567,1212.895
791,1.316233,1208.76
792,1.3179,1204.126
793,1.319567,1204.126
794,1.321217,1199.983
795,1.322883,1195.699
796,1.32455,1191.311
797,1.326217,1191.311
798,1.327883,1187.406
799,1.32955,1183.249
800,1.331217,1178.831
801,1.332883,1178.831
802,1.33455,1175.039
803,1.336217,1170.807
804,1.337883,1166.545
805,1.33955,1166.545
806,1.341217,1162.492
807,1.342883,1158.312
808,1.34455,1158.312
809,1.346217,1154.564
810,1.347883,1151.003
811,1.34955,1147.397
812,1.351267,1147.397
813,1.352883,1143.754
814,1.35455,1139.887
815,1.356217,1135.975
816,1.357883,1135.975
817,1.35955,1132.198
818,1.361267,1128.286
819,1.362883,1124.725
820,1.36455,1124.725
821,1.366217,1121.23
822,1.367883,1117.498
823,1.36955,1117.498
824,1.371217,1113.966
825,1.372883,1110.382
826,1.37455,1106.657
827,1.376217,1106.657
828,1.377883,1103.208
829,1.379533,1099.586
830,1.3812,1095.697
831,1.382867,1095.697
832,1.384633,1092.099
833,1.3862,1088.344
834,1.387867,1084.782
835,1.389533,1084.782
836,1.3912,1081.78
837,1.392867,1078.486
838,1.394533,1075.216
839,1.3962,1075.216
840,1.397867,1072.153
841,1.399533,1068.935
842,1.4012,1068.935
843,1.402867,1065.396
844,1.404533,1062.393
845,1.4062,1059.018
846,1.407867,1059.018
847,1.409533,1055.822
848,1.4112,1052.856
849,1.412867,1049.638
850,1.414533,1049.638
851,1.4162,1046.531
852,1.417867,1043.26
853,1.419533,1040.399
854,1.4212,1040.399
855,1.422867,1037.054
856,1.424533,1033.954
857,1.4262,1033.954
858,1.427867,1031.004
859,1.42955,1027.927
860,1.4312,1025.066
861,1.432867,1025.066
862,1.434533,1022.182
863,1.4362,1018.83
864,1.437867,1015.38
865,1.439533,1015.38
866,1.4412,1012.377
867,1.442883,1009.211
868,1.444517,1006.246
869,1.446183,1006.246
870,1.44785,1003.437
871,1.449517,1000.74
872,1.451183,997.841
873,1.45285,997.841
874,1.454517,995.159
875,1.456183,992.753
876,1.45785,992.753
877,1.459517,989.884
878,1.461183,987.425
879,1.46285,984.356
880,1.464517,984.356
881,1.466183,981.3680000000001
882,1.46785,978.8200000000001
883,1.469567,975.549
884,1.471183,975.549
885,1.47285,973.098
886,1.474517,970.528
887,1.476183,967.525
888,1.47785,967.525
889,1.479517,964.8200000000001
890,1.481183,961.855
891,1.48285,961.855
892,1.484517,958.949
893,1.486167,955.999
894,1.487833,953.712
895,1.4895,953.712
896,1.491167,951.596
897,1.492833,949.293
898,1.4945,947.095
899,1.496167,947.095
900,1.497833,944.599
901,1.4995,942.215
902,1.50115,939.965
903,1.502933,939.965
904,1.504483,937.454
905,1.50615,935.122
906,1.507817,935.122
907,1.509483,932.2910000000001
908,1.51115,929.371
909,1.512817,927.106
910,1.514483,927.106
911,1.51615,924.394
912,1.517817,922.151
913,1.519483,919.67
914,1.52115,919.67
915,1.522817,916.928
916,1.524483,914.6559999999999
917,1.52615,912.3680000000001
918,1.527817,912.3680000000001
919,1.529483,910.215
