"ID","sea_time","fid_signal"
1,0,1170.114
2,0.001667,1170.114
3,0.003333,1171.008
4,0.004983,1167.879
5,0.00665,1165.494
6,0.008317,1165.494
7,0.009983000000000001,1164.302
8,0.01165,1163.483
9,0.013317,1163.259
10,0.014983,1163.259
11,0.01665,1165.196
12,0.018317,1168.847
13,0.019967,1168.847
14,0.021683,1168.847
15,0.0233,1168.922
16,0.024967,1162.961
17,0.026633,1162.961
18,0.0283,1158.863
19,0.029967,1158.938
20,0.031633,1160.204
21,0.0333,1160.204
22,0.034983,1166.314
23,0.036633,1166.984
24,0.038367,1167.58
25,0.039967,1167.58
26,0.041633,1167.059
27,0.0433,1166.314
28,0.044983,1165.867
29,0.046633,1165.867
30,0.0483,1164.302
31,0.049967,1162.812
32,0.051633,1164.004
33,0.0533,1164.004
34,0.055083,1165.122
35,0.056633,1165.718
36,0.0583,1165.718
37,0.059967,1169.369
38,0.061633,1169.22
39,0.0633,1169.145
40,0.064967,1169.145
41,0.066633,1169.741
42,0.0683,1167.729
43,0.069967,1166.09
44,0.071633,1166.09
45,0.0733,1165.345
46,0.07496700000000001,1167.432
47,0.07663300000000001,1166.165
48,0.07829999999999999,1166.165
49,0.07994999999999999,1166.984
50,0.081617,1167.879
51,0.083283,1167.879
52,0.08495,1167.804
53,0.086617,1171.082
54,0.088283,1171.231
55,0.08995,1171.231
56,0.09165,1170.114
57,0.093283,1168.102
58,0.09495000000000001,1164.228
59,0.09661699999999999,1164.228
60,0.098283,1159.087
61,0.09995,1157.895
62,0.101617,1160.204
63,0.103283,1160.204
64,0.10495,1164.228
65,0.106617,1171.604
66,0.108283,1171.604
67,0.10995,1176.074
68,0.111617,1173.392
69,0.113283,1169.294
70,0.11495,1169.294
71,0.116617,1165.122
72,0.118283,1162.514
73,0.11995,1160.428
74,0.12165,1160.428
75,0.123283,1162.887
76,0.12495,1162.738
77,0.126617,1164.228
78,0.128283,1164.228
79,0.12995,1167.282
80,0.131617,1168.698
81,0.133283,1169.443
82,0.13495,1169.443
83,0.136617,1166.612
84,0.138267,1166.537
85,0.14,1166.537
86,0.1416,1163.781
87,0.143267,1164.228
88,0.144933,1166.463
89,0.1466,1166.463
90,0.148267,1167.357
91,0.149933,1168.996
92,0.1516,1168.773
93,0.153267,1168.773
94,0.154933,1166.91
95,0.1566,1164.302
96,0.158267,1162.142
97,0.159933,1162.142
98,0.1616,1162.961
99,0.163267,1163.259
100,0.164933,1163.259
101,0.1666,1165.569
102,0.168267,1166.612
103,0.169933,1168.475
104,0.1716,1168.475
105,0.17335,1168.549
106,0.174933,1165.569
107,0.1766,1162.961
108,0.178267,1162.961
109,0.179933,1158.416
110,0.1816,1159.385
111,0.1833,1162.365
112,0.184933,1162.365
113,0.1866,1164.973
114,0.188267,1166.314
115,0.189933,1166.016
116,0.1916,1166.016
117,0.193267,1164.675
118,0.194933,1164.451
119,0.1966,1164.451
120,0.198267,1164.824
121,0.199917,1163.408
122,0.201633,1162.514
123,0.20325,1162.514
124,0.204917,1162.44
125,0.206583,1165.345
126,0.20825,1166.314
127,0.209917,1166.314
128,0.211583,1169.592
129,0.21325,1169.145
130,0.214917,1165.569
131,0.216583,1165.569
132,0.21825,1164.824
133,0.219917,1161.471
134,0.221583,1161.471
135,0.22325,1162.887
136,0.224917,1162.44
137,0.226583,1162.067
138,0.22825,1162.067
139,0.229917,1165.867
140,0.231583,1165.196
141,0.23325,1165.569
142,0.234917,1165.569
143,0.236583,1166.761
144,0.23825,1164.377
145,0.239917,1165.345
146,0.241583,1165.345
147,0.24325,1168.251
148,0.244917,1168.251
149,0.246583,1171.082
150,0.24825,1171.082
151,0.249917,1170.933
152,0.251583,1169.22
153,0.25325,1169.22
154,0.254917,1169.443
155,0.256583,1166.537
156,0.258317,1167.58
157,0.2599,1167.58
158,0.261583,1166.537
159,0.263283,1166.388
160,0.2649,1167.655
161,0.266567,1167.655
162,0.268233,1168.4
163,0.269967,1168.326
164,0.271567,1169.89
165,0.273233,1169.89
166,0.2749,1169.369
167,0.276567,1166.612
168,0.278233,1166.612
169,0.2799,1166.91
170,0.281567,1166.612
171,0.283233,1166.463
172,0.2849,1166.463
173,0.286567,1166.239
174,0.288233,1166.984
175,0.2899,1167.879
176,0.291683,1167.879
177,0.293233,1167.432
178,0.2949,1168.549
179,0.29655,1171.678
180,0.298217,1171.678
181,0.299883,1172.051
182,0.30155,1175.478
183,0.303217,1175.478
184,0.304883,1179.278
185,0.30655,1181.439
186,0.308217,1185.089
187,0.309883,1185.089
188,0.31155,1187.474
189,0.313217,1190.528
190,0.314883,1195.222
191,0.31655,1195.222
192,0.3182,1201.853
193,0.319867,1209.751
194,0.321533,1220.405
195,0.3232,1220.405
196,0.324867,1230.91
197,0.326533,1242.161
198,0.3282,1254.529
199,0.329867,1254.529
200,0.331533,1264.587
201,0.3332,1277.477
202,0.334867,1277.477
203,0.336533,1292.08
204,0.3382,1305.863
205,0.3399,1324.117
206,0.341533,1324.117
207,0.3432,1336.038
208,0.344867,1348.332
209,0.346533,1361.296
210,0.3482,1361.296
211,0.349867,1370.385
212,0.351533,1382.604
213,0.3532,1392.662
214,0.354867,1392.662
215,0.356533,1406.968
216,0.3582,1426.116
217,0.359867,1426.116
218,0.361533,1460.016
219,0.3632,1512.244
220,0.364867,1587.048
221,0.366533,1587.048
222,0.3682,1692.325
223,0.369867,1830.831
224,0.371533,2014.041
225,0.3732,2014.041
226,0.374867,2240.315
227,0.376583,2517.253
228,0.378183,2845.451
229,0.37985,2845.451
230,0.381517,3212.765
231,0.383183,3626.198
232,0.38485,4071.966
233,0.386517,4071.966
234,0.388183,4541.427
235,0.38985,5034.879
236,0.391517,5034.879
237,0.393183,5544.201
238,0.39485,6065.592
239,0.396517,6593.764
240,0.398183,6593.764
241,0.39985,7119.999
242,0.401517,7640.645
243,0.403183,8156.598
244,0.40485,8156.598
245,0.406517,8660.48
246,0.408183,9155.571
247,0.409917,9631.663
248,0.411533,9631.663
249,0.413183,10090.396
250,0.41485,10536.835
251,0.416517,10536.835
252,0.418183,10959.506
253,0.41985,11366.382
254,0.421517,11751.503
255,0.423183,11751.503
256,0.42485,12105.927
257,0.426517,12437.775
258,0.428183,12746.229
259,0.42985,12746.229
260,0.431517,13020.561
261,0.433183,13264.566
262,0.43485,13474.301
263,0.436517,13474.301
264,0.438183,13635.68
265,0.439833,13747.96
266,0.4415,13792.962
267,0.443167,13792.962
268,0.444833,13752.878
269,0.4465,13612.956
270,0.448167,13612.956
271,0.449833,13353.974
272,0.4515,12975.932
273,0.453167,12484.491
274,0.454833,12484.491
275,0.4565,11897.161
276,0.458167,11250.004
277,0.459833,10575.205
278,0.4615,10575.205
279,0.463167,9902.120000000001
280,0.464833,9262.486999999999
281,0.4665,8661.673000000001
282,0.468167,8661.673000000001
283,0.469833,8115.321
284,0.4715,7618.219
285,0.473167,7618.219
286,0.474833,7171.035
287,0.4765,6776.377
288,0.478183,6415.77
289,0.479833,6415.77
290,0.4815,6096.214
291,0.4832,5808.845
292,0.484833,5544.052
293,0.4865,5544.052
294,0.488167,5307.57
295,0.489833,5090.237
296,0.4915,4887.208
297,0.493167,4887.208
298,0.49485,4700.869
299,0.4965,4529.953
300,0.498167,4529.953
301,0.499817,4372.671
302,0.501483,4224.032
303,0.50315,4087.388
304,0.504817,4087.388
305,0.506483,3957.599
306,0.50815,3837.571
307,0.509817,3728.196
308,0.511533,3728.196
309,0.51315,3622.547
310,0.514817,3524.348
311,0.516483,3431.141
312,0.51815,3431.141
313,0.519817,3341.511
314,0.521483,3260.821
315,0.52315,3180.429
316,0.524817,3180.429
317,0.526483,3101.677
318,0.528267,3030.077
319,0.529817,3030.077
320,0.531483,2958.998
321,0.53315,2893.358
322,0.534817,2833.53
323,0.536483,2833.53
324,0.53815,2775.863
325,0.539817,2718.419
326,0.541483,2665.371
327,0.54315,2665.371
328,0.544817,2612.025
329,0.5464830000000001,2562.031
330,0.54815,2517.179
331,0.549817,2517.179
332,0.5514829999999999,2475.828
333,0.55315,2436.265
334,0.554817,2436.265
335,0.5565,2396.554
336,0.558183,2359.301
337,0.5598,2318.621
338,0.561467,2318.621
339,0.563133,2280.697
340,0.5648,2243.146
341,0.5664670000000001,2210.14
342,0.568133,2210.14
343,0.5698,2178.103
344,0.5714669999999999,2150.089
345,0.573133,2124.682
346,0.574833,2124.682
347,0.576467,2091.08
348,0.578133,2062.693
349,0.5798,2034.604
350,0.581467,2034.604
351,0.583133,2007.484
352,0.5848,1986.399
353,0.58645,1986.399
354,0.588117,1962.334
355,0.5897829999999999,1938.79
356,0.59145,1913.533
357,0.593117,1913.533
358,0.594783,1893.714
359,0.59645,1876.503
360,0.598117,1856.61
361,0.599783,1856.61
362,0.60145,1838.952
363,0.603117,1819.208
364,0.604783,1802.817
365,0.60645,1802.817
366,0.608117,1785.01
367,0.609783,1772.419
368,0.61145,1772.419
369,0.613183,1756.772
370,0.614783,1740.53
371,0.6164500000000001,1728.833
372,0.618117,1728.833
373,0.619767,1713.634
374,0.621433,1701.34
375,0.6231,1688.153
376,0.624783,1688.153
377,0.626483,1674.891
378,0.6281,1660.362
379,0.62985,1644.939
380,0.631433,1644.939
381,0.6331,1630.187
382,0.634767,1618.49
383,0.636433,1605.228
384,0.6381,1605.228
385,0.639767,1594.35
386,0.641433,1583.695
387,0.6431,1583.695
388,0.644767,1571.104
389,0.646533,1561.195
390,0.6481,1551.956
391,0.649767,1551.956
392,0.651433,1545.921
393,0.6531,1538.098
394,0.654767,1528.934
395,0.656433,1528.934
396,0.6581,1518.354
397,0.659767,1506.358
398,0.661433,1498.833
399,0.6632,1498.833
400,0.664767,1495.481
401,0.66645,1490.116
402,0.6681,1490.116
403,0.669767,1482.815
404,0.6714329999999999,1471.415
405,0.6731,1461.059
406,0.674767,1461.059
407,0.676433,1453.012
408,0.678083,1443.848
409,0.67975,1439.378
410,0.6814170000000001,1439.378
411,0.683083,1432.896
412,0.68475,1427.978
413,0.6864170000000001,1426.786
414,0.688083,1426.786
415,0.68975,1422.167
416,0.6914169999999999,1417.92
417,0.693083,1417.92
418,0.69475,1410.917
419,0.696417,1403.019
420,0.698083,1396.462
421,0.699783,1396.462
422,0.701417,1391.619
423,0.703083,1389.235
424,0.70475,1386.181
425,0.706417,1386.181
426,0.708083,1384.243
427,0.70975,1379.55
428,0.711417,1371.428
429,0.713083,1371.428
430,0.71475,1367.629
431,0.716417,1362.041
432,0.718083,1358.464
433,0.71975,1358.464
434,0.721417,1359.433
435,0.723083,1353.398
436,0.72475,1353.398
437,0.726417,1349.896
438,0.728083,1344.159
439,0.72975,1338.646
440,0.731417,1338.646
441,0.7331,1334.548
442,0.73475,1331.493
443,0.736417,1330.078
444,0.738067,1330.078
445,0.739733,1323
446,0.7413999999999999,1320.764
447,0.743067,1316.816
448,0.744733,1316.816
449,0.7464,1314.059
450,0.748133,1314.059
451,0.749733,1314.059
452,0.7514,1312.271
453,0.753067,1308.62
454,0.754733,1303.33
455,0.7564,1303.33
456,0.758067,1299.083
457,0.759733,1297.966
458,0.7614,1296.028
459,0.7630670000000001,1296.028
460,0.7648,1294.464
461,0.7664,1292.08
462,0.7680670000000001,1288.056
463,0.769733,1288.056
464,0.771433,1290.217
465,0.7730669999999999,1286.79
466,0.774733,1285.598
467,0.7764,1285.598
468,0.778067,1282.766
469,0.779733,1275.018
470,0.781517,1273.602
471,0.783067,1273.602
472,0.784733,1272.112
473,0.7864,1269.43
474,0.788067,1269.43
475,0.789733,1267.12
476,0.7914,1266.077
477,0.793067,1265.407
478,0.794733,1265.407
479,0.7964,1266.301
480,0.798067,1269.951
481,0.799717,1268.238
482,0.801383,1268.238
483,0.80305,1266.897
484,0.804717,1267.12
485,0.806383,1267.12
486,0.80805,1262.575
487,0.809717,1259.893
488,0.811383,1259.67
489,0.8130500000000001,1259.67
490,0.814717,1255.572
491,0.816383,1254.752
492,0.8180500000000001,1255.05
493,0.819717,1255.05
494,0.821383,1253.635
495,0.8230499999999999,1252.07
496,0.824733,1251.623
497,0.826417,1251.623
498,0.82805,1248.345
499,0.829717,1244.992
500,0.831383,1244.172
501,0.83305,1244.172
502,0.834717,1240.373
503,0.8364,1240.596
504,0.83805,1240.596
505,0.839717,1239.702
506,0.841383,1235.828
507,0.84305,1235.753
508,0.8447170000000001,1235.753
509,0.846383,1236.051
510,0.84805,1234.487
511,0.8497169999999999,1235.604
512,0.851383,1235.604
513,0.85305,1231.581
514,0.8547169999999999,1227.036
515,0.856383,1222.938
516,0.858033,1222.938
517,0.8597,1219.958
518,0.861367,1223.609
519,0.8630330000000001,1223.609
520,0.8647,1225.77
521,0.866383,1229.42
522,0.8680330000000001,1231.134
523,0.8697,1231.134
524,0.871367,1228.154
525,0.8730329999999999,1225.919
526,0.8747,1223.087
527,0.876367,1223.087
528,0.878017,1221.746
529,0.879683,1221.001
530,0.88135,1217.127
531,0.88305,1217.127
532,0.884683,1214.892
533,0.88635,1213.029
534,0.8880169999999999,1213.029
535,0.889683,1211.911
536,0.89135,1213.998
537,0.8930169999999999,1214.37
538,0.894683,1214.37
539,0.89635,1215.711
540,0.898017,1218.17
541,0.899783,1218.766
542,0.90135,1218.766
543,0.903017,1217.276
544,0.904683,1213.178
545,0.90635,1210.943
546,0.908017,1210.943
547,0.909683,1208.261
548,0.911367,1207.59
549,0.913017,1210.347
550,0.914717,1210.347
551,0.916333,1208.41
552,0.918,1210.123
553,0.919667,1210.123
554,0.921333,1211.315
555,0.923,1209.527
556,0.924667,1207.963
557,0.926333,1207.963
558,0.928,1203.865
559,0.929667,1203.567
560,0.931333,1201.034
561,0.9330000000000001,1201.034
562,0.934667,1197.755
563,0.936333,1198.128
564,0.9379999999999999,1195.893
565,0.939667,1195.893
566,0.941333,1195.744
567,0.9429999999999999,1199.618
568,0.944667,1199.618
569,0.946333,1202.524
570,0.948,1203.194
571,0.949667,1203.492
572,0.951333,1203.492
573,0.953,1205.578
574,0.954667,1205.429
575,0.956333,1203.79
576,0.958,1203.79
577,0.959667,1206.323
578,0.961333,1203.194
579,0.963,1203.492
580,0.9646670000000001,1203.492
581,0.966333,1203.716
582,0.968,1199.916
583,0.9696669999999999,1197.904
584,0.971333,1197.904
585,0.973,1195.52
586,0.974667,1194.552
587,0.9763500000000001,1194.552
588,0.978033,1195.073
589,0.97965,1197.01
590,0.981317,1196.936
591,0.9829830000000001,1196.936
592,0.984733,1199.245
593,0.986317,1200.81
594,0.9879829999999999,1198.5
595,0.98965,1198.5
596,0.991317,1198.649
597,0.9929829999999999,1194.999
598,0.99465,1190.454
599,0.996317,1190.454
600,0.997983,1193.285
601,0.99965,1192.763
602,1.001317,1192.763
603,1.002983,1196.712
604,1.00465,1198.873
605,1.006317,1197.979
606,1.007983,1197.979
607,1.00965,1196.787
608,1.011317,1194.254
609,1.012983,1195.52
610,1.01465,1195.52
611,1.016317,1192.018
612,1.018083,1189.634
613,1.01965,1187.921
614,1.021317,1187.921
615,1.022983,1184.791
616,1.02465,1186.505
617,1.026317,1186.654
618,1.027983,1186.654
619,1.02965,1187.921
620,1.031317,1189.858
621,1.032983,1189.858
622,1.03465,1191.422
623,1.036317,1194.03
624,1.037967,1196.414
625,1.039633,1196.414
626,1.0413,1196.116
627,1.042967,1194.999
628,1.044633,1193.657
629,1.0463,1193.657
630,1.047967,1192.912
631,1.049633,1193.359
632,1.0513,1192.018
633,1.052967,1192.018
634,1.054633,1194.03
635,1.056317,1190.603
636,1.057967,1190.603
637,1.059633,1187.846
638,1.0613,1186.654
639,1.062967,1182.407
640,1.064633,1182.407
641,1.0663,1182.631
642,1.067967,1184.121
643,1.06965,1186.281
644,1.0713,1186.281
645,1.072967,1191.348
646,1.074633,1193.062
647,1.0763,1190.379
648,1.077967,1190.379
649,1.079633,1189.56
650,1.0813,1185.015
651,1.082967,1183.152
652,1.084633,1183.152
653,1.0863,1185.387
654,1.087967,1184.866
655,1.089633,1184.866
656,1.0913,1186.579
657,1.092967,1186.654
658,1.094633,1185.462
659,1.0963,1185.462
660,1.09795,1186.43
661,1.099617,1185.611
662,1.101283,1185.536
663,1.10295,1185.536
664,1.104617,1187.846
665,1.106283,1189.858
666,1.10795,1190.528
667,1.109617,1190.528
668,1.111283,1192.167
669,1.11295,1191.497
670,1.114617,1191.497
671,1.116283,1189.187
672,1.11795,1188.815
673,1.119667,1187.324
674,1.121283,1187.324
675,1.12295,1183.823
676,1.124633,1182.258
677,1.126333,1179.203
678,1.127983,1179.203
679,1.129617,1179.129
680,1.131283,1182.482
681,1.13295,1180.693
682,1.134617,1180.693
683,1.136383,1182.929
684,1.13795,1183.674
685,1.139617,1183.674
686,1.141283,1184.27
687,1.14295,1185.015
688,1.144617,1183.599
689,1.146283,1183.599
690,1.14795,1183.003
691,1.149617,1183.674
692,1.151283,1184.344
693,1.15295,1184.344
694,1.154617,1184.717
695,1.156283,1183.897
696,1.157933,1181.96
697,1.1596,1181.96
698,1.161267,1183.674
699,1.162933,1183.674
700,1.1646,1183.897
701,1.166267,1183.897
702,1.167933,1182.705
703,1.169583,1180.693
704,1.17125,1180.693
705,1.172917,1180.47
706,1.174583,1180.47
707,1.17625,1181.588
708,1.177917,1181.588
709,1.179583,1182.78
710,1.18125,1180.992
711,1.182917,1182.184
712,1.184583,1182.184
713,1.18625,1179.725
714,1.187917,1179.054
715,1.189583,1180.47
716,1.19125,1180.47
717,1.192917,1176.745
718,1.194583,1178.682
719,1.19625,1178.682
720,1.197967,1178.831
721,1.199583,1179.65
722,1.20125,1184.195
723,1.202917,1184.195
724,1.204583,1183.376
725,1.206267,1185.313
726,1.207917,1183.897
727,1.209583,1183.897
728,1.21125,1183.599
729,1.212917,1186.729
730,1.214583,1184.791
731,1.21625,1184.791
732,1.2179,1185.909
733,1.219567,1184.195
734,1.2213,1184.568
735,1.2229,1184.568
736,1.224567,1187.026
737,1.226233,1190.379
738,1.2279,1190.379
739,1.229567,1190.975
740,1.231233,1188.219
741,1.2329,1185.313
742,1.234567,1185.313
743,1.236233,1180.545
744,1.2379,1178.458
745,1.239567,1180.693
746,1.241233,1180.693
747,1.2429,1182.109
748,1.244583,1183.152
749,1.246233,1183.45
750,1.2479,1183.45
751,1.249567,1182.035
752,1.251233,1179.501
753,1.2529,1179.501
754,1.254683,1178.533
755,1.256233,1178.458
756,1.2579,1177.564
757,1.259567,1177.564
758,1.261233,1178.011
759,1.2629,1180.246
760,1.264567,1178.086
761,1.266233,1178.086
762,1.2679,1177.788
763,1.269567,1177.713
764,1.271233,1175.553
765,1.2729,1175.553
766,1.274567,1178.384
767,1.276233,1178.458
768,1.277917,1178.756
769,1.27955,1178.756
770,1.281217,1180.768
771,1.282883,1179.948
772,1.28455,1179.948
773,1.286217,1179.65
774,1.287883,1182.78
775,1.28955,1181.513
776,1.291217,1181.513
777,1.292883,1181.811
778,1.29455,1181.066
779,1.296217,1179.129
780,1.297883,1179.129
781,1.29955,1178.309
782,1.30125,1176.149
783,1.302883,1175.255
784,1.30455,1175.255
785,1.306217,1174.733
786,1.307883,1175.255
787,1.30955,1175.255
788,1.311217,1181.215
789,1.312883,1184.195
790,1.31455,1183.152
791,1.316217,1183.152
792,1.317883,1183.152
793,1.31955,1178.905
794,1.321217,1177.713
795,1.322883,1177.713
796,1.32455,1177.192
797,1.326217,1177.639
798,1.327883,1178.533
799,1.32955,1178.533
800,1.331217,1178.831
801,1.332883,1180.768
802,1.33455,1180.768
803,1.3362,1180.246
804,1.337867,1180.619
805,1.3396,1176.372
806,1.341217,1176.372
807,1.3429,1175.702
808,1.344533,1179.65
809,1.3462,1179.725
810,1.347867,1179.725
811,1.349533,1183.227
812,1.3512,1183.078
813,1.352867,1179.203
814,1.354533,1179.203
815,1.356267,1176.521
816,1.357867,1176.745
817,1.359533,1176.074
818,1.3612,1176.074
819,1.362867,1175.031
820,1.364533,1176.149
821,1.3662,1176.149
822,1.367867,1174.286
823,1.369533,1172.498
824,1.3712,1175.404
825,1.372983,1175.404
826,1.374533,1175.255
827,1.3762,1176.596
828,1.377867,1178.905
829,1.379533,1178.905
830,1.3812,1179.203
831,1.382867,1179.948
832,1.384533,1177.862
833,1.3862,1177.862
834,1.387867,1174.733
835,1.389533,1171.529
836,1.391233,1171.082
837,1.392867,1171.082
838,1.394533,1171.157
839,1.3962,1174.286
840,1.39785,1174.286
841,1.399517,1175.925
842,1.401183,1178.309
843,1.40285,1181.066
844,1.404517,1181.066
845,1.406183,1178.384
846,1.40785,1175.553
847,1.409517,1171.529
848,1.411183,1171.529
849,1.41285,1171.604
850,1.414517,1175.329
851,1.416183,1178.533
852,1.41785,1178.533
853,1.419567,1178.905
854,1.421183,1177.713
855,1.42285,1177.713
856,1.424517,1174.807
857,1.426183,1173.765
858,1.42785,1177.415
859,1.429517,1177.415
860,1.431183,1179.054
861,1.43285,1182.035
862,1.434517,1180.693
863,1.436183,1180.693
864,1.43785,1180.321
865,1.439517,1178.235
866,1.441183,1174.882
867,1.44285,1174.882
868,1.444517,1173.988
869,1.446183,1169.071
870,1.44785,1169.071
871,1.449517,1170.71
872,1.451183,1169.592
873,1.45285,1168.698
874,1.454517,1168.698
875,1.456167,1170.561
876,1.45785,1169.89
877,1.4595,1172.87
878,1.46115,1172.87
879,1.462817,1176.67
880,1.464483,1178.384
881,1.46615,1178.011
882,1.467817,1178.011
883,1.469483,1179.203
884,1.47115,1178.831
885,1.472817,1178.831
886,1.4746,1177.266
887,1.47615,1174.584
888,1.477833,1170.188
889,1.479483,1170.188
890,1.48115,1167.953
891,1.482817,1169.443
892,1.484483,1172.274
893,1.48615,1172.274
894,1.487817,1175.255
895,1.489483,1174.36
896,1.491167,1174.435
897,1.492817,1174.435
898,1.494483,1172.423
899,1.49615,1173.243
900,1.497817,1176.149
901,1.499483,1176.149
902,1.50115,1175.404
903,1.502817,1177.49
904,1.504483,1177.49
905,1.50615,1176.745
906,1.507817,1174.212
907,1.509483,1173.094
908,1.51115,1173.094
909,1.512817,1172.349
910,1.514483,1173.69
911,1.516133,1173.466
912,1.5178,1173.466
913,1.519467,1174.063
914,1.521133,1174.063
915,1.5228,1172.87
916,1.524467,1172.87
