"ID","sea_time","fid_signal"
1,0,36.53
2,0.001667,36.554
3,0.003333,36.554
4,0.005,36.599
5,0.006667,36.614
6,0.008333,36.518
7,0.01,36.518
8,0.0117,36.384
9,0.013333,36.31
10,0.015,36.332
11,0.016667,36.332
12,0.018333,36.468
13,0.02,36.627
14,0.021667,36.627
15,0.023333,36.706
16,0.025,36.734
17,0.026667,36.758
18,0.02835,36.758
19,0.03,36.731
20,0.031667,36.696
21,0.033333,36.656
22,0.035,36.656
23,0.036667,36.643
24,0.038333,36.646
25,0.039983,36.674
26,0.04165,36.674
27,0.043317,36.722
28,0.0451,36.706
29,0.04665,36.706
30,0.048317,36.703
31,0.049983,36.69
32,0.05165,36.659
33,0.053317,36.659
34,0.054983,36.667
35,0.05665,36.673
36,0.058317,36.664
37,0.059983,36.664
38,0.06165,36.653
39,0.063317,36.647
40,0.064983,36.632
41,0.066667,36.632
42,0.068333,36.65
43,0.070017,36.635
44,0.07165000000000001,36.621
45,0.07331699999999999,36.621
46,0.07498299999999999,36.637
47,0.07665,36.6
48,0.078317,36.6
49,0.079983,36.617
50,0.08165,36.637
51,0.083317,36.617
52,0.084983,36.617
53,0.08665,36.653
54,0.08831700000000001,36.655
55,0.08998299999999999,36.645
56,0.09165,36.645
57,0.093317,36.677
58,0.094983,36.696
59,0.09665,36.675
60,0.0983,36.675
61,0.099967,36.675
62,0.101633,36.662
63,0.1033,36.662
64,0.104967,36.649
65,0.106633,36.699
66,0.1083,36.694
67,0.109967,36.694
68,0.111633,36.661
69,0.1133,36.62
70,0.114967,36.57
71,0.116633,36.57
72,0.1183,36.55
73,0.119967,36.573
74,0.121633,36.597
75,0.1233,36.597
76,0.124967,36.592
77,0.126633,36.626
78,0.1283,36.63
79,0.130033,36.63
80,0.131633,36.614
81,0.1333,36.626
82,0.134967,36.626
83,0.136633,36.613
84,0.1383,36.619
85,0.14,36.648
86,0.141633,36.648
87,0.1433,36.688
88,0.145,36.688
89,0.146633,36.684
90,0.1483,36.684
91,0.149967,36.672
92,0.151633,36.634
93,0.1533,36.621
94,0.154967,36.621
95,0.156633,36.609
96,0.1583,36.587
97,0.15995,36.587
98,0.161617,36.576
99,0.1634,36.577
100,0.16495,36.594
101,0.166617,36.594
102,0.168283,36.629
103,0.16995,36.681
104,0.171617,36.693
105,0.173283,36.693
106,0.17495,36.658
107,0.176617,36.649
108,0.178283,36.601
109,0.17995,36.601
110,0.181617,36.571
111,0.183283,36.611
112,0.18495,36.619
113,0.186617,36.619
114,0.188283,36.629
115,0.18995,36.644
116,0.191617,36.644
117,0.193283,36.625
118,0.19495,36.63
119,0.196617,36.611
120,0.1983,36.611
121,0.19995,36.605
122,0.201617,36.591
123,0.203283,36.593
124,0.20495,36.593
125,0.206617,36.613
126,0.208283,36.613
127,0.20995,36.621
128,0.211633,36.621
129,0.213283,36.596
130,0.214933,36.639
131,0.216617,36.639
132,0.218283,36.772
133,0.219933,37.009
134,0.2216,37.425
135,0.223267,37.425
136,0.224933,38.04
137,0.2266,38.984
138,0.228267,40.439
139,0.22995,40.439
140,0.231633,42.544
141,0.233267,45.487
142,0.234933,49.388
143,0.2366,49.388
144,0.238267,54.277
145,0.239933,60.258
146,0.2416,60.258
147,0.243267,67.306
148,0.244933,75.45699999999999
149,0.2466,84.649
150,0.248333,84.649
151,0.249933,94.761
152,0.2516,105.728
153,0.253267,117.332
154,0.254933,117.332
155,0.2566,129.541
156,0.258267,142.215
157,0.259933,155.236
158,0.2616,155.236
159,0.263267,168.582
160,0.264933,182.08
161,0.2666,195.711
162,0.26825,195.711
163,0.269917,209.475
164,0.271583,223.297
165,0.27325,223.297
166,0.274917,237.209
167,0.276583,251.241
168,0.27825,265.392
169,0.2799,265.392
170,0.281667,279.687
171,0.283233,294.208
172,0.2849,308.97
173,0.286567,308.97
174,0.288233,324.007
175,0.2899,339.329
176,0.291633,355.007
177,0.293233,355.007
178,0.2949,371.052
179,0.296567,387.531
180,0.298233,387.531
181,0.2999,404.561
182,0.301567,422.135
183,0.303233,440.319
184,0.3049,440.319
185,0.306567,459.167
186,0.308233,478.723
187,0.3099,499.06
188,0.311567,499.06
189,0.313233,520.224
190,0.3149,542.268
191,0.316567,565.293
192,0.318233,565.293
193,0.319933,589.345
194,0.321567,614.604
195,0.323233,641.229
196,0.3249,641.229
197,0.326567,669.433
198,0.328233,699.677
199,0.3299,699.677
200,0.331567,732.442
201,0.333233,768.283
202,0.3349,807.729
203,0.336567,807.729
204,0.338233,851.075
205,0.339883,898.201
206,0.34155,948.409
207,0.343217,948.409
208,0.344883,1000.351
209,0.34655,1051.859
210,0.348217,1100.398
211,0.349883,1100.398
212,0.35155,1143.104
213,0.353217,1177.198
214,0.354917,1177.198
215,0.35655,1200.438
216,0.358217,1211.029
217,0.359883,1208.16
218,0.36155,1208.16
219,0.363217,1191.806
220,0.364883,1162.768
221,0.3666,1122.537
222,0.368217,1122.537
223,0.369883,1073.011
224,0.37155,1016.355
225,0.373233,954.687
226,0.374883,954.687
227,0.37655,890.016
228,0.378217,824.182
229,0.379883,758.708
230,0.38155,758.708
231,0.383217,694.84
232,0.384883,633.568
233,0.38655,633.568
234,0.388217,575.5650000000001
235,0.389883,521.294
236,0.39155,471.063
237,0.393217,471.063
238,0.394883,424.98
239,0.39655,383
240,0.398217,345.019
241,0.4,345.019
242,0.401533,310.776
243,0.4032,280.076
244,0.404867,252.662
245,0.406533,252.662
246,0.4082,228.241
247,0.409867,206.576
248,0.411533,206.576
249,0.4132,187.363
250,0.414883,170.407
251,0.416533,155.439
252,0.4182,155.439
253,0.419867,142.243
254,0.421533,130.614
255,0.4232,120.381
256,0.424867,120.381
257,0.426533,111.378
258,0.4282,103.455
259,0.429867,96.5
260,0.431533,96.5
261,0.4332,90.33499999999999
262,0.4349,84.902
263,0.436533,84.902
264,0.4382,80.13500000000001
265,0.439867,75.92100000000001
266,0.441533,72.18000000000001
267,0.4432,72.18000000000001
268,0.444867,68.87
269,0.446533,65.935
270,0.4482,63.311
271,0.449867,63.311
272,0.451533,61.006
273,0.4532,58.967
274,0.454867,57.168
275,0.456533,57.168
276,0.4582,55.588
277,0.45985,54.175
278,0.461517,52.921
279,0.463183,52.921
280,0.46485,51.749
281,0.466517,50.693
282,0.468183,50.693
283,0.46985,49.776
284,0.471517,48.917
285,0.473183,48.166
286,0.47485,48.166
287,0.476517,47.497
288,0.478183,46.875
289,0.47985,46.324
290,0.481517,46.324
291,0.483183,45.818
292,0.484917,45.361
293,0.486517,44.905
294,0.488183,44.905
295,0.48985,44.532
296,0.491517,44.183
297,0.493183,44.183
298,0.49485,43.847
299,0.496533,43.592
300,0.498183,43.294
301,0.49985,43.294
302,0.5016,43.037
303,0.503183,42.773
304,0.504867,42.515
305,0.506517,42.515
306,0.5081830000000001,42.318
307,0.50985,42.09
308,0.511517,41.947
309,0.5131829999999999,41.947
310,0.51485,41.766
311,0.516517,41.595
312,0.5183,41.454
313,0.519833,41.454
314,0.5215,41.274
315,0.523167,41.168
316,0.524833,41.168
317,0.5265,41.039
318,0.5281670000000001,40.922
319,0.529833,40.834
320,0.5315,40.834
321,0.5331669999999999,40.688
322,0.534833,40.58
323,0.5365,40.509
324,0.538167,40.509
325,0.539833,40.428
326,0.5415,40.367
327,0.543167,40.282
328,0.544833,40.282
329,0.5465,40.184
330,0.548167,40.083
331,0.549833,40.083
332,0.5515,39.998
333,0.553167,39.937
334,0.554833,39.873
335,0.5565,39.873
336,0.55815,39.814
337,0.559817,39.766
338,0.561483,39.696
339,0.56315,39.696
340,0.564817,39.638
341,0.566483,39.555
342,0.56815,39.472
343,0.569817,39.472
344,0.571483,39.393
345,0.57315,39.297
346,0.574817,39.297
347,0.576483,39.268
348,0.578133,39.221
349,0.5798,39.203
350,0.581467,39.203
351,0.583133,39.183
352,0.5848,39.142
353,0.586467,39.1
354,0.588133,39.1
355,0.5898,39.039
356,0.591467,39.002
357,0.593133,38.949
358,0.5948,38.949
359,0.596467,38.927
360,0.598133,38.912
361,0.5998,38.867
362,0.601467,38.867
363,0.603133,38.818
364,0.6048,38.774
365,0.606467,38.774
366,0.608133,38.732
367,0.6098,38.691
368,0.611467,38.657
369,0.613133,38.657
370,0.6148,38.628
371,0.616467,38.604
372,0.618133,38.607
373,0.61985,38.607
374,0.621467,38.613
375,0.623133,38.604
376,0.6248,38.584
377,0.626467,38.584
378,0.6281330000000001,38.563
379,0.6298,38.514
380,0.631467,38.514
381,0.6331329999999999,38.449
382,0.6348,38.409
383,0.636533,38.374
384,0.638133,38.374
385,0.639783,38.371
386,0.64145,38.365
387,0.643117,38.339
388,0.644783,38.339
389,0.64645,38.331
390,0.6481170000000001,38.306
391,0.649783,38.289
392,0.65145,38.289
393,0.653233,38.291
394,0.654783,38.256
395,0.65645,38.235
396,0.658117,38.235
397,0.659783,38.216
398,0.66145,38.189
399,0.663117,38.189
400,0.664783,38.148
401,0.66645,38.116
402,0.668117,38.099
403,0.669783,38.099
404,0.67145,38.067
405,0.673117,38.088
406,0.674783,38.076
407,0.67645,38.076
408,0.678117,38.065
409,0.679783,38.033
410,0.68145,38.008
411,0.683117,38.008
412,0.684783,38.026
413,0.68645,38.018
414,0.688117,38.018
415,0.689783,38.013
416,0.69145,37.968
417,0.693117,37.914
418,0.694783,37.914
419,0.69645,37.881
420,0.698117,37.894
421,0.699767,37.887
422,0.701433,37.887
423,0.7030999999999999,37.871
424,0.704767,37.857
425,0.706433,37.822
426,0.7081,37.822
427,0.709767,37.817
428,0.711433,37.807
429,0.7131,37.799
430,0.714767,37.799
431,0.716433,37.784
432,0.7181,37.773
433,0.719783,37.773
434,0.721433,37.768
435,0.7231,37.774
436,0.7247670000000001,37.762
437,0.726433,37.762
438,0.7281,37.746
439,0.7297670000000001,37.748
440,0.731433,37.726
441,0.7331,37.726
442,0.7347669999999999,37.706
443,0.736433,37.68
444,0.738133,37.646
445,0.739767,37.646
446,0.741433,37.643
447,0.7431,37.651
448,0.744767,37.651
449,0.746433,37.639
450,0.7481,37.614
451,0.749767,37.593
452,0.751433,37.593
453,0.7531,37.595
454,0.7548,37.576
455,0.756433,37.565
456,0.7581,37.565
457,0.75975,37.535
458,0.761417,37.508
459,0.763083,37.539
460,0.76475,37.539
461,0.766417,37.567
462,0.768083,37.594
463,0.76975,37.578
464,0.771533,37.578
465,0.773083,37.546
466,0.77475,37.515
467,0.776433,37.515
468,0.778083,37.482
469,0.7797500000000001,37.499
470,0.781417,37.499
471,0.783083,37.499
472,0.7847499999999999,37.52
473,0.786417,37.522
474,0.788083,37.511
475,0.78975,37.511
476,0.791417,37.54
477,0.793083,37.516
478,0.79475,37.545
479,0.7964329999999999,37.545
480,0.798083,37.556
481,0.7998,37.524
482,0.801417,37.524
483,0.803083,37.511
484,0.80475,37.48
485,0.8064170000000001,37.449
486,0.808083,37.449
487,0.80975,37.441
488,0.8114170000000001,37.444
489,0.813083,37.424
490,0.81475,37.424
491,0.8164169999999999,37.419
492,0.818067,37.426
493,0.819733,37.4
494,0.8214,37.4
495,0.823067,37.403
496,0.824733,37.382
497,0.8264,37.382
498,0.828067,37.362
499,0.8297330000000001,37.356
500,0.8314,37.361
501,0.833067,37.361
502,0.8347329999999999,37.383
503,0.8364,37.386
504,0.838067,37.381
505,0.839733,37.381
506,0.8414,37.341
507,0.843067,37.312
508,0.844733,37.302
509,0.8464,37.302
510,0.848067,37.307
511,0.8497169999999999,37.322
512,0.851383,37.322
513,0.85305,37.322
514,0.8547169999999999,37.306
515,0.85645,37.303
516,0.85805,37.303
517,0.859717,37.322
518,0.861383,37.328
519,0.86305,37.324
520,0.864717,37.324
521,0.866383,37.298
522,0.86805,37.269
523,0.869733,37.254
524,0.8714,37.254
525,0.873067,37.27
526,0.874717,37.266
527,0.876383,37.263
528,0.878033,37.263
529,0.8797,37.29
530,0.881367,37.265
531,0.883033,37.265
532,0.8847,37.3
533,0.886367,37.313
534,0.888033,37.279
535,0.8898,37.279
536,0.891367,37.289
537,0.893033,37.261
538,0.8947000000000001,37.249
539,0.896367,37.249
540,0.898033,37.224
541,0.8997000000000001,37.213
542,0.901367,37.233
543,0.903033,37.233
544,0.9046999999999999,37.219
545,0.906367,37.245
546,0.908033,37.24
547,0.9097,37.24
548,0.911367,37.207
549,0.913033,37.204
550,0.9147,37.204
551,0.916367,37.183
552,0.918033,37.18
553,0.9197,37.159
554,0.921367,37.159
555,0.923033,37.131
556,0.9247,37.14
557,0.9263670000000001,37.132
558,0.928033,37.132
559,0.9297,37.126
560,0.9313669999999999,37.105
561,0.933033,37.093
562,0.9347,37.093
563,0.9363669999999999,37.063
564,0.938017,37.077
565,0.939683,37.077
566,0.941367,37.121
567,0.9430500000000001,37.102
568,0.944733,37.111
569,0.9464,37.111
570,0.948017,37.13
571,0.9496830000000001,37.105
572,0.951367,37.117
573,0.953017,37.117
574,0.9546829999999999,37.132
575,0.95635,37.106
576,0.958017,37.112
577,0.959683,37.112
578,0.96135,37.137
579,0.963017,37.132
580,0.964683,37.137
581,0.96635,37.137
582,0.968017,37.128
583,0.969683,37.107
584,0.97135,37.107
585,0.973017,37.111
586,0.974733,37.125
587,0.9763500000000001,37.131
588,0.978017,37.131
589,0.979683,37.117
590,0.9813499999999999,37.133
591,0.983017,37.136
592,0.984683,37.136
593,0.9863499999999999,37.155
594,0.988017,37.184
595,0.989683,37.193
596,0.99135,37.193
597,0.993017,37.193
598,0.994683,37.161
599,0.99635,37.161
600,0.998017,37.166
601,0.999667,37.113
602,1.001333,37.07
603,1.003,37.07
604,1.004667,37.05
605,1.006333,36.973
606,1.008,36.954
607,1.009667,36.954
608,1.011333,36.979
609,1.013,36.98
610,1.014667,36.995
611,1.016333,36.995
612,1.018017,37.021
613,1.019733,37.004
614,1.021333,37.004
615,1.023,37.02
616,1.024667,37.076
617,1.026333,37.102
618,1.028,37.102
619,1.029667,37.114
620,1.031333,37.136
621,1.033,37.083
622,1.034667,37.083
623,1.036333,37.058
624,1.038,37.05
625,1.039667,37.038
626,1.041333,37.038
627,1.043,37.063
628,1.044667,37.085
629,1.046333,37.112
630,1.048,37.112
631,1.049667,37.105
632,1.051333,37.101
633,1.053,37.101
634,1.054667,37.058
635,1.056333,36.989
636,1.058,36.969
637,1.05965,36.969
638,1.061317,36.965
639,1.062983,36.979
640,1.06465,37.018
641,1.066317,37.018
642,1.067983,37.019
643,1.06965,37.009
644,1.071317,37.006
645,1.072983,37.006
646,1.07465,37.004
647,1.076317,37.019
648,1.077983,37.019
649,1.079683,36.993
650,1.081317,36.96
651,1.082983,36.965
652,1.08465,36.965
653,1.086317,36.962
654,1.087983,36.978
655,1.08965,36.983
656,1.091317,36.983
657,1.09305,36.965
658,1.09465,36.931
659,1.096317,36.936
660,1.097983,36.936
661,1.09965,36.96
662,1.101317,36.966
663,1.102983,36.994
664,1.10465,36.994
665,1.106317,37.009
666,1.107983,36.979
667,1.10965,36.979
668,1.111317,36.954
669,1.112983,36.948
670,1.11465,36.944
671,1.116317,36.944
672,1.117967,36.946
673,1.119633,36.936
674,1.1213,36.922
675,1.122967,36.922
676,1.124633,36.897
677,1.1264,36.909
678,1.127967,36.946
679,1.129633,36.946
680,1.1313,36.961
681,1.132967,36.971
682,1.134633,36.971
683,1.1363,36.952
684,1.137967,36.912
685,1.139633,36.887
686,1.141283,36.887
687,1.14295,36.871
688,1.144617,36.848
689,1.146283,36.865
690,1.14795,36.865
691,1.149617,36.871
692,1.151283,36.871
693,1.15295,36.92
694,1.154617,36.92
695,1.1563,36.924
696,1.15795,36.933
697,1.159667,36.929
698,1.161283,36.929
699,1.16295,36.906
700,1.164617,36.936
701,1.166283,36.936
702,1.16795,36.953
703,1.169617,36.991
704,1.171283,36.994
705,1.17295,36.994
706,1.174617,36.985
707,1.176283,36.985
708,1.17795,36.939
709,1.1796,36.939
710,1.181267,36.939
711,1.182933,36.927
712,1.1846,36.902
713,1.186267,36.902
714,1.187933,36.931
715,1.1896,36.948
716,1.191267,36.948
717,1.192933,36.924
718,1.1946,36.921
719,1.196267,36.914
720,1.197933,36.914
721,1.1996,36.93
722,1.201267,36.938
723,1.202933,36.943
724,1.2046,36.943
725,1.206267,36.931
726,1.207933,36.892
727,1.2096,36.899
728,1.211267,36.899
729,1.212933,36.915
730,1.2146,36.938
731,1.216267,36.938
732,1.217933,36.936
733,1.2196,36.905
734,1.221267,36.897
735,1.222933,36.897
736,1.2246,36.896
737,1.226267,36.905
738,1.227933,36.918
739,1.2296,36.918
740,1.231267,36.899
741,1.232933,36.864
742,1.2346,36.839
743,1.236267,36.839
744,1.237917,36.839
745,1.239583,36.86
746,1.24125,36.88
747,1.242917,36.88
748,1.244717,36.871
749,1.24625,36.868
750,1.247917,36.868
751,1.249583,36.857
752,1.25125,36.85
753,1.252917,36.883
754,1.254583,36.883
755,1.25625,36.885
756,1.257917,36.852
757,1.259583,36.811
758,1.26125,36.811
759,1.262917,36.792
760,1.264583,36.792
761,1.26625,36.832
762,1.267917,36.832
763,1.269583,36.901
764,1.27125,36.903
765,1.272917,36.903
766,1.274583,36.923
767,1.27625,36.912
768,1.277917,36.871
769,1.279583,36.871
770,1.28125,36.851
771,1.282917,36.836
772,1.284583,36.86
773,1.28625,36.86
774,1.287917,36.875
775,1.289583,36.895
776,1.29125,36.88
777,1.292917,36.88
778,1.294583,36.855
779,1.296233,36.836
780,1.2979,36.816
781,1.299567,36.816
782,1.301267,36.833
783,1.30295,36.836
784,1.3046,36.836
785,1.306233,36.85
786,1.3079,36.857
787,1.309567,36.837
788,1.311233,36.837
789,1.3129,36.824
790,1.314567,36.82
791,1.316233,36.854
792,1.3179,36.854
793,1.319567,36.876
794,1.321233,36.9
795,1.3229,36.892
796,1.324567,36.892
797,1.326233,36.879
798,1.3279,36.88
799,1.329583,36.88
800,1.331233,36.863
801,1.3329,36.851
802,1.334567,36.842
803,1.336233,36.842
804,1.3379,36.828
805,1.339567,36.798
806,1.341233,36.812
807,1.3429,36.812
808,1.344567,36.804
809,1.346333,36.823
810,1.3479,36.845
811,1.349567,36.845
812,1.351233,36.822
813,1.3529,36.805
814,1.354567,36.782
815,1.356217,36.782
816,1.357883,36.783
817,1.35955,36.785
818,1.361217,36.785
819,1.362983,36.781
820,1.36455,36.789
821,1.366217,36.763
822,1.367883,36.763
823,1.36955,36.781
824,1.371217,36.803
825,1.372883,36.776
826,1.37455,36.776
827,1.376233,36.775
828,1.377967,36.759
829,1.37965,36.777
830,1.381217,36.777
831,1.382883,36.788
832,1.38455,36.803
833,1.386217,36.803
834,1.387883,36.839
835,1.38955,36.804
836,1.391217,36.827
837,1.392883,36.827
838,1.39455,36.816
839,1.396217,36.779
840,1.397883,36.776
841,1.39955,36.776
842,1.401217,36.783
843,1.402883,36.789
844,1.40455,36.793
845,1.406217,36.793
846,1.4079,36.796
847,1.40955,36.764
848,1.411217,36.764
849,1.412883,36.764
850,1.41455,36.753
851,1.416217,36.737
852,1.417867,36.737
853,1.419533,36.739
854,1.4212,36.72
855,1.422867,36.734
856,1.424533,36.734
857,1.4262,36.748
858,1.427867,36.744
859,1.429533,36.745
860,1.4312,36.745
861,1.43285,36.725
862,1.434517,36.719
863,1.436183,36.745
864,1.437883,36.745
865,1.439517,36.766
866,1.441183,36.793
867,1.44285,36.793
868,1.444533,36.786
869,1.446217,36.757
870,1.44785,36.778
871,1.449517,36.778
872,1.451183,36.766
873,1.45285,36.786
874,1.454517,36.774
875,1.456183,36.774
876,1.45785,36.738
877,1.459517,36.728
878,1.461183,36.747
879,1.46285,36.747
880,1.464567,36.754
881,1.466183,36.782
882,1.46785,36.782
883,1.469517,36.792
884,1.471183,36.789
885,1.47285,36.789
886,1.474517,36.789
887,1.476183,36.762
888,1.477833,36.744
889,1.4795,36.751
890,1.48125,36.751
891,1.482833,36.776
892,1.4845,36.784
893,1.486167,36.776
894,1.487833,36.776
895,1.4895,36.734
896,1.491167,36.744
897,1.492833,36.759
898,1.4945,36.759
899,1.496167,36.8
900,1.49795,36.81
901,1.4995,36.81
902,1.501167,36.807
903,1.502833,36.805
904,1.5045,36.784
905,1.506167,36.784
906,1.507833,36.785
907,1.5095,36.757
908,1.511167,36.766
909,1.512833,36.766
910,1.5145,36.757
911,1.516167,36.737
912,1.517867,36.764
913,1.5195,36.764
914,1.521167,36.763
915,1.522833,36.799
916,1.5245,36.799
917,1.526167,36.813
918,1.527833,36.784
919,1.5295,36.75
920,1.531167,36.75
921,1.532833,36.732
922,1.534517,36.74
923,1.536167,36.739
924,1.537817,36.739
925,1.539483,36.746
926,1.54115,36.757
927,1.542817,36.749
928,1.544483,36.749
929,1.54615,36.78
930,1.547817,36.818
931,1.549483,36.784
932,1.55115,36.784
933,1.552817,36.766
934,1.554483,36.723
935,1.55615,36.723
936,1.557817,36.684
937,1.559483,36.69
938,1.56115,36.733
939,1.562817,36.733
940,1.564483,36.746
941,1.56615,36.755
942,1.567817,36.743
943,1.569483,36.743
944,1.57115,36.711
945,1.572817,36.713
946,1.574483,36.725
947,1.57615,36.725
948,1.577817,36.766
949,1.579483,36.776
950,1.58115,36.776
951,1.582867,36.803
952,1.584483,36.804
953,1.58615,36.782
954,1.587817,36.782
955,1.589483,36.775
956,1.591167,36.746
957,1.592817,36.751
958,1.594483,36.751
959,1.596133,36.751
960,1.5978,36.781
961,1.599517,36.803
962,1.601133,36.803
963,1.6028,36.775
964,1.604467,36.761
965,1.606133,36.761
966,1.6078,36.717
967,1.609467,36.67
968,1.611133,36.67
969,1.6128,36.67
970,1.614467,36.673
971,1.616133,36.692
972,1.6178,36.726
973,1.619467,36.726
974,1.621133,36.753
975,1.6228,36.778
976,1.624467,36.792
977,1.626133,36.792
978,1.6278,36.772
979,1.6295,36.742
980,1.631133,36.722
981,1.6328,36.722
982,1.634467,36.704
983,1.636133,36.7
984,1.6378,36.7
985,1.639467,36.699
986,1.641133,36.724
987,1.6428,36.731
988,1.644467,36.731
989,1.646133,36.746
990,1.6478,36.748
991,1.649467,36.721
992,1.651133,36.721
993,1.6528,36.722
994,1.654467,36.708
995,1.656133,36.703
996,1.657783,36.703
997,1.65945,36.713
998,1.661117,36.715
999,1.662783,36.715
1000,1.66445,36.73
1001,1.666133,36.741
1002,1.667833,36.732
1003,1.66945,36.732
1004,1.671117,36.751
1005,1.672783,36.774
1006,1.67445,36.798
