"ID","sea_time","fid_signal"
1,0,28.225
2,0.001667,28.229
3,0.003333,28.228
4,0.005,28.228
5,0.006667,28.228
6,0.008333,28.215
7,0.01,28.161
8,0.011667,28.161
9,0.013333,28.097
10,0.015033,28.036
11,0.016667,28.036
12,0.018383,28.006
13,0.02,28.025
14,0.021667,28.075
15,0.023333,28.075
16,0.025,28.125
17,0.026667,28.165
18,0.028333,28.189
19,0.03,28.189
20,0.03165,28.2
21,0.033317,28.207
22,0.034983,28.211
23,0.03665,28.211
24,0.038317,28.223
25,0.039983,28.228
26,0.04165,28.232
27,0.0433,28.232
28,0.044967,28.233
29,0.046633,28.236
30,0.0483,28.236
31,0.049967,28.245
32,0.051633,28.255
33,0.0533,28.265
34,0.055033,28.265
35,0.056633,28.26
36,0.0583,28.257
37,0.059967,28.246
38,0.061633,28.246
39,0.0633,28.232
40,0.064967,28.229
41,0.066633,28.222
42,0.0683,28.222
43,0.069967,28.226
44,0.07166699999999999,28.229
45,0.0733,28.229
46,0.07496700000000001,28.236
47,0.07663300000000001,28.245
48,0.07829999999999999,28.244
49,0.079967,28.244
50,0.081633,28.242
51,0.0833,28.24
52,0.084967,28.232
53,0.086633,28.232
54,0.08835,28.228
55,0.08996700000000001,28.224
56,0.09165,28.219
57,0.09329999999999999,28.219
58,0.094967,28.221
59,0.096633,28.221
60,0.0983,28.227
61,0.099967,28.227
62,0.101617,28.224
63,0.103283,28.22
64,0.10495,28.22
65,0.106617,28.218
66,0.108283,28.216
67,0.10995,28.217
68,0.111617,28.217
69,0.113283,28.217
70,0.11495,28.215
71,0.116617,28.217
72,0.118283,28.217
73,0.11995,28.22
74,0.121617,28.221
75,0.123283,28.228
76,0.12495,28.228
77,0.126617,28.233
78,0.128283,28.239
79,0.12995,28.239
80,0.131617,28.241
81,0.133283,28.238
82,0.134967,28.237
83,0.136617,28.237
84,0.138283,28.229
85,0.13995,28.231
86,0.141617,28.232
87,0.143283,28.232
88,0.14495,28.232
89,0.146617,28.24
90,0.148283,28.238
91,0.14995,28.238
92,0.151617,28.236
93,0.153283,28.233
94,0.15495,28.233
95,0.156633,28.228
96,0.158333,28.237
97,0.15995,28.243
98,0.1616,28.243
99,0.163267,28.246
100,0.164933,28.243
101,0.1666,28.241
102,0.168267,28.241
103,0.169933,28.234
104,0.1716,28.224
105,0.173283,28.218
106,0.174933,28.218
107,0.1766,28.211
108,0.178267,28.213
109,0.179933,28.224
110,0.1816,28.224
111,0.183267,28.232
112,0.184933,28.232
113,0.1866,28.232
114,0.188267,28.237
115,0.18995,28.232
116,0.1916,28.23
117,0.193267,28.23
118,0.194933,28.227
119,0.1966,28.218
120,0.198267,28.217
121,0.199933,28.217
122,0.2016,28.219
123,0.203267,28.222
124,0.204933,28.227
125,0.2067,28.227
126,0.208267,28.228
127,0.209933,28.227
128,0.2116,28.227
129,0.213267,28.235
130,0.214933,28.235
131,0.2166,28.235
132,0.218267,28.235
133,0.219917,28.239
134,0.221583,28.237
135,0.22325,28.24
136,0.224917,28.24
137,0.226583,28.245
138,0.22825,28.256
139,0.229917,28.267
140,0.231583,28.267
141,0.23325,28.273
142,0.234933,28.279
143,0.236583,28.283
144,0.23825,28.283
145,0.239917,28.286
146,0.241583,28.293
147,0.24325,28.293
148,0.244917,28.306
149,0.246583,28.32
150,0.24825,28.339
151,0.249917,28.339
152,0.251583,28.365
153,0.25325,28.385
154,0.254917,28.4
155,0.256583,28.4
156,0.25825,28.419
157,0.259917,28.445
158,0.261583,28.466
159,0.26325,28.466
160,0.264917,28.496
161,0.266583,28.536
162,0.26825,28.536
163,0.269917,28.569
164,0.271583,28.62
165,0.27325,28.667
166,0.274917,28.667
167,0.276583,28.712
168,0.27825,28.768
169,0.2799,28.828
170,0.281567,28.828
171,0.283233,28.908
172,0.2849,29.003
173,0.286567,29.122
174,0.288233,29.122
175,0.2899,29.258
176,0.291567,29.421
177,0.293233,29.618
178,0.2949,29.618
179,0.296567,29.84
180,0.298233,30.118
181,0.2999,30.118
182,0.301567,30.44
183,0.303233,30.807
184,0.304933,31.233
185,0.306633,31.233
186,0.308233,31.72
187,0.3099,32.275
188,0.311567,32.916
189,0.313233,32.916
190,0.3149,33.648
191,0.316567,34.477
192,0.318233,35.421
193,0.3199,35.421
194,0.321567,36.478
195,0.323217,37.666
196,0.325,38.992
197,0.32655,38.992
198,0.328217,40.454
199,0.329883,42.054
200,0.33155,42.054
201,0.333217,43.776
202,0.334883,45.615
203,0.33655,47.538
204,0.338217,47.538
205,0.339883,49.521
206,0.34155,51.541
207,0.3432,53.57
208,0.344867,53.57
209,0.346533,55.581
210,0.3482,57.559
211,0.349867,57.559
212,0.351533,59.492
213,0.3532,61.353
214,0.354867,63.144
215,0.356533,63.144
216,0.3582,64.86199999999999
217,0.359867,66.51000000000001
218,0.361533,68.09999999999999
219,0.3632,68.09999999999999
220,0.364867,69.648
221,0.366533,71.173
222,0.3682,72.69799999999999
223,0.369867,72.69799999999999
224,0.371533,74.267
225,0.3732,75.931
226,0.3749,77.73999999999999
227,0.37655,77.73999999999999
228,0.3782,79.752
229,0.379867,82.029
230,0.381533,82.029
231,0.3832,84.646
232,0.384867,87.672
233,0.386533,91.197
234,0.3882,91.197
235,0.389867,95.292
236,0.391533,100.013
237,0.3932,105.406
238,0.394867,105.406
239,0.396533,111.489
240,0.3982,118.274
241,0.39985,125.735
242,0.401517,125.735
243,0.403183,133.833
244,0.40485,142.493
245,0.406517,142.493
246,0.408183,151.625
247,0.409917,161.117
248,0.411517,170.848
249,0.413183,170.848
250,0.41485,180.689
251,0.416517,190.516
252,0.418183,200.226
253,0.41985,200.226
254,0.421517,209.702
255,0.423183,218.857
256,0.42485,227.598
257,0.426517,227.598
258,0.428183,235.851
259,0.42985,243.573
260,0.431517,250.717
261,0.433183,250.717
262,0.43485,257.267
263,0.436517,263.198
264,0.438183,263.198
265,0.43985,268.507
266,0.441517,273.213
267,0.443233,277.319
268,0.444867,277.319
269,0.446517,280.842
270,0.448183,283.8
271,0.44985,286.222
272,0.451517,286.222
273,0.4532,288.13
274,0.45485,289.559
275,0.456517,290.546
276,0.458183,290.546
277,0.45985,291.11
278,0.4615,291.282
279,0.463167,291.282
280,0.464833,291.103
281,0.4665,290.589
282,0.468167,289.758
283,0.469833,289.758
284,0.4715,288.644
285,0.473167,287.264
286,0.474833,285.654
287,0.4765,285.654
288,0.478167,283.835
289,0.479833,281.822
290,0.4815,279.632
291,0.483167,279.632
292,0.484833,277.28
293,0.4865,274.783
294,0.488167,272.165
295,0.489833,272.165
296,0.4915,269.437
297,0.493167,266.602
298,0.494833,266.602
299,0.4965,263.677
300,0.498167,260.669
301,0.499833,257.588
302,0.5014999999999999,257.588
303,0.503167,254.45
304,0.504833,251.267
305,0.5065,248.032
306,0.508167,248.032
307,0.509833,244.759
308,0.5115,241.454
309,0.513167,238.121
310,0.51485,238.121
311,0.5165,234.78
312,0.5182,231.436
313,0.519833,231.436
314,0.521483,228.091
315,0.52315,224.746
316,0.524817,221.402
317,0.526483,221.402
318,0.5282,218.062
319,0.529817,214.73
320,0.531483,211.416
321,0.53315,211.416
322,0.534817,208.12
323,0.536483,204.841
324,0.538167,201.589
325,0.539817,201.589
326,0.541483,198.361
327,0.54315,195.16
328,0.544817,191.993
329,0.5464830000000001,191.993
330,0.54815,188.852
331,0.549817,185.743
332,0.5514829999999999,185.743
333,0.55315,182.671
334,0.554817,179.629
335,0.5564829999999999,176.631
336,0.55815,176.631
337,0.559817,173.675
338,0.5615830000000001,170.753
339,0.56315,167.872
340,0.564817,167.872
341,0.566483,165.028
342,0.56815,162.224
343,0.569817,159.467
344,0.571483,159.467
345,0.57315,156.749
346,0.574817,154.08
347,0.576483,154.08
348,0.5781500000000001,151.446
349,0.579817,148.857
350,0.581467,146.318
351,0.583133,146.318
352,0.5848,143.815
353,0.586467,141.364
354,0.588133,138.951
355,0.5898,138.951
356,0.591467,136.577
357,0.593133,134.248
358,0.5948,131.956
359,0.596467,131.956
360,0.598133,129.713
361,0.5998,127.513
362,0.601467,127.513
363,0.603133,125.348
364,0.6048,123.235
365,0.606467,121.152
366,0.608133,121.152
367,0.6098,119.115
368,0.611467,117.12
369,0.613133,115.159
370,0.614783,115.159
371,0.6164500000000001,113.247
372,0.618117,111.368
373,0.619783,109.527
374,0.6214499999999999,109.527
375,0.623117,107.724
376,0.624783,105.961
377,0.62645,104.235
378,0.628117,104.235
379,0.629783,102.546
380,0.63145,100.89
381,0.633117,100.89
382,0.634783,99.267
383,0.63645,97.681
384,0.638117,96.131
385,0.639767,96.131
386,0.641433,94.61799999999999
387,0.6431,93.137
388,0.644767,91.675
389,0.646467,91.675
390,0.6481,90.25
391,0.649767,88.857
392,0.651433,87.497
393,0.6531,87.497
394,0.654767,86.172
395,0.656433,84.879
396,0.658117,84.879
397,0.659767,83.61499999999999
398,0.661433,82.37
399,0.663167,81.157
400,0.664767,81.157
401,0.6664330000000001,79.97
402,0.6681,78.80200000000001
403,0.669767,77.67
404,0.6714329999999999,77.67
405,0.6731,76.566
406,0.674767,75.482
407,0.676433,74.42
408,0.6781,74.42
409,0.679883,73.378
410,0.681433,72.35299999999999
411,0.6831,71.354
412,0.684767,71.354
413,0.686433,70.387
414,0.6881,69.444
415,0.689767,69.444
416,0.691433,68.526
417,0.6931,67.63
418,0.694767,66.749
419,0.6965,66.749
420,0.6981000000000001,65.886
421,0.69975,65.044
422,0.701417,64.224
423,0.703083,64.224
424,0.70475,63.426
425,0.706417,62.649
426,0.708083,61.89
427,0.70975,61.89
428,0.711417,61.139
429,0.7131,60.4
430,0.71475,60.4
431,0.716417,59.688
432,0.718083,58.988
433,0.71975,58.32
434,0.721417,58.32
435,0.723083,57.664
436,0.72475,57.009
437,0.726417,56.375
438,0.728083,56.375
439,0.72975,55.746
440,0.731433,55.139
441,0.733083,54.557
442,0.734783,54.557
443,0.736417,53.989
444,0.738083,53.436
445,0.73975,52.892
446,0.741417,52.892
447,0.743083,52.357
448,0.74475,51.834
449,0.746417,51.834
450,0.7480830000000001,51.317
451,0.74975,50.814
452,0.751417,50.33
453,0.7530829999999999,50.33
454,0.75475,49.857
455,0.756417,49.396
456,0.758083,48.947
457,0.759733,48.947
458,0.7614,48.496
459,0.7630670000000001,48.058
460,0.76475,47.635
461,0.7664,47.635
462,0.7680670000000001,47.223
463,0.769733,46.825
464,0.7714,46.825
465,0.7730669999999999,46.432
466,0.774733,46.053
467,0.7764,45.682
468,0.778067,45.682
469,0.779733,45.316
470,0.781467,44.96
471,0.783067,44.609
472,0.784733,44.609
473,0.7864,44.268
474,0.788067,43.938
475,0.789733,43.621
476,0.7914,43.621
477,0.793067,43.313
478,0.794733,43.004
479,0.7964,43.004
480,0.798133,42.702
481,0.799733,42.403
482,0.8014,42.11
483,0.803067,42.11
484,0.804733,41.826
485,0.8064,41.553
486,0.808067,41.278
487,0.809767,41.278
488,0.8114,41.01
489,0.813067,40.756
490,0.8148,40.506
491,0.8164,40.506
492,0.818067,40.267
493,0.819733,40.026
494,0.821383,39.793
495,0.8230499999999999,39.793
496,0.824717,39.566
497,0.826383,39.34
498,0.82805,39.34
499,0.829717,39.127
500,0.831383,38.904
501,0.83305,38.689
502,0.834717,38.689
503,0.836383,38.478
504,0.83805,38.276
505,0.839717,38.095
506,0.841383,38.095
507,0.84305,37.913
508,0.8447170000000001,37.744
509,0.846383,37.576
510,0.84805,37.576
511,0.8497169999999999,37.399
512,0.851383,37.227
513,0.85305,37.227
514,0.8547169999999999,37.054
515,0.856383,36.88
516,0.85805,36.715
517,0.859717,36.715
518,0.861383,36.564
519,0.86305,36.413
520,0.864717,36.264
521,0.866383,36.264
522,0.86805,36.123
523,0.869717,35.98
524,0.871383,35.837
525,0.87305,35.837
526,0.874717,35.7
527,0.8764,35.561
528,0.878067,35.427
529,0.879717,35.427
530,0.881367,35.305
531,0.883033,35.189
532,0.8847,35.189
533,0.886367,35.072
534,0.888033,34.95
535,0.8897,34.832
536,0.891367,34.832
537,0.893033,34.719
538,0.8947000000000001,34.614
539,0.896367,34.512
540,0.898033,34.512
541,0.899783,34.4
542,0.901367,34.283
543,0.903033,34.168
544,0.904683,34.168
545,0.90635,34.057
546,0.908017,33.959
547,0.909683,33.959
548,0.91135,33.862
549,0.913017,33.772
550,0.914683,33.685
551,0.9164,33.685
552,0.918017,33.605
553,0.919683,33.521
554,0.92135,33.432
555,0.923017,33.432
556,0.924683,33.342
557,0.92635,33.251
558,0.928017,33.172
559,0.929683,33.172
560,0.93135,33.099
561,0.933133,33.032
562,0.934683,33.032
563,0.93635,32.964
564,0.938017,32.889
565,0.939683,32.813
566,0.941333,32.813
567,0.9429999999999999,32.74
568,0.944667,32.669
569,0.946333,32.602
570,0.948,32.602
571,0.949667,32.54
572,0.951333,32.476
573,0.953,32.415
574,0.954667,32.415
575,0.956333,32.349
576,0.958,32.281
577,0.959667,32.209
578,0.961333,32.209
579,0.963,32.139
580,0.9646670000000001,32.081
581,0.966333,32.081
582,0.968,32.029
583,0.9696669999999999,31.977
584,0.971333,31.926
585,0.973,31.926
586,0.974667,31.871
587,0.976333,31.815
588,0.978,31.769
589,0.979667,31.769
590,0.981333,31.717
591,0.983,31.667
592,0.984667,31.62
593,0.986333,31.62
594,0.988,31.571
595,0.989667,31.524
596,0.991333,31.524
597,0.993,31.475
598,0.994667,31.43
599,0.996333,31.383
600,0.998,31.383
601,0.99965,31.341
602,1.001317,31.304
603,1.002983,31.263
604,1.00465,31.263
605,1.006317,31.226
606,1.007983,31.185
607,1.00965,31.143
608,1.011317,31.143
609,1.012983,31.109
610,1.01465,31.07
611,1.016317,31.035
612,1.017983,31.035
613,1.01965,31.003
614,1.021317,30.966
615,1.022983,30.966
616,1.024683,30.932
617,1.02635,30.899
618,1.027983,30.868
619,1.02965,30.868
620,1.031317,30.842
621,1.032983,30.813
622,1.034683,30.79
623,1.036317,30.79
624,1.037983,30.763
625,1.03965,30.729
626,1.041317,30.705
627,1.042983,30.705
628,1.04465,30.671
629,1.046317,30.645
630,1.047983,30.645
631,1.04965,30.614
632,1.051433,30.586
633,1.052983,30.565
634,1.05465,30.565
635,1.056317,30.531
636,1.057983,30.504
637,1.059633,30.473
638,1.0613,30.473
639,1.062967,30.449
640,1.064633,30.425
641,1.0663,30.4
642,1.067967,30.4
643,1.069633,30.372
644,1.0713,30.342
645,1.072967,30.324
646,1.074633,30.324
647,1.0763,30.31
648,1.077967,30.288
649,1.079633,30.288
650,1.0813,30.262
651,1.082967,30.235
652,1.084633,30.206
653,1.0863,30.206
654,1.087967,30.181
655,1.089633,30.159
656,1.0913,30.134
657,1.092967,30.134
658,1.094633,30.112
659,1.096333,30.099
660,1.097967,30.085
661,1.099683,30.085
662,1.1013,30.073
663,1.102967,30.058
664,1.104633,30.058
665,1.1063,30.038
666,1.107967,30.017
667,1.109633,30.002
668,1.1113,30.002
669,1.112967,29.99
670,1.114633,29.972
671,1.1163,29.954
672,1.117967,29.954
673,1.119617,29.93
674,1.121283,29.906
675,1.12295,29.896
676,1.124617,29.896
677,1.126283,29.881
678,1.12795,29.864
679,1.129617,29.847
680,1.131283,29.847
681,1.13295,29.829
682,1.134617,29.817
683,1.136333,29.817
684,1.13795,29.808
685,1.139617,29.794
686,1.141283,29.781
687,1.14295,29.781
688,1.144617,29.766
689,1.146283,29.747
690,1.14795,29.735
691,1.149617,29.735
692,1.151283,29.727
693,1.15295,29.71
694,1.154617,29.696
695,1.156283,29.696
696,1.15795,29.683
697,1.159617,29.666
698,1.161283,29.666
699,1.16295,29.653
700,1.164617,29.638
701,1.166283,29.625
702,1.16795,29.625
703,1.169733,29.61
704,1.171283,29.604
705,1.17295,29.594
706,1.174617,29.594
707,1.1763,29.582
708,1.178,29.566
709,1.1796,29.553
710,1.181267,29.553
711,1.182933,29.544
712,1.1846,29.533
713,1.186267,29.533
714,1.187933,29.526
715,1.1896,29.517
716,1.191267,29.502
717,1.192933,29.502
718,1.1946,29.488
719,1.19625,29.475
720,1.197917,29.459
721,1.199583,29.459
722,1.20125,29.45
723,1.202917,29.448
724,1.204583,29.441
725,1.20625,29.441
726,1.207917,29.438
727,1.209583,29.436
728,1.21125,29.424
729,1.212917,29.424
730,1.214583,29.415
731,1.21625,29.406
732,1.217917,29.406
733,1.219583,29.397
734,1.22125,29.387
735,1.222917,29.378
736,1.224583,29.378
737,1.22625,29.361
738,1.227917,29.342
739,1.229583,29.334
740,1.23125,29.334
741,1.232917,29.325
742,1.234583,29.321
743,1.23625,29.315
744,1.237917,29.315
745,1.239567,29.299
746,1.241267,29.286
747,1.24295,29.275
748,1.244567,29.275
749,1.24625,29.264
750,1.247933,29.261
751,1.249567,29.261
752,1.251233,29.258
753,1.2529,29.254
754,1.254617,29.259
755,1.256233,29.259
756,1.2579,29.256
757,1.259567,29.249
758,1.261233,29.242
759,1.2629,29.242
760,1.264567,29.23
761,1.266233,29.224
762,1.2679,29.217
763,1.269567,29.217
764,1.271233,29.21
765,1.2729,29.205
766,1.274567,29.205
767,1.276233,29.195
768,1.2779,29.184
769,1.279567,29.176
770,1.281233,29.176
771,1.2829,29.161
772,1.284567,29.156
773,1.286233,29.15
774,1.287967,29.15
775,1.289567,29.142
776,1.291233,29.143
777,1.2929,29.144
778,1.294567,29.144
779,1.296233,29.142
780,1.2979,29.142
781,1.29955,29.142
782,1.301217,29.144
783,1.302883,29.131
784,1.30455,29.123
785,1.306217,29.123
786,1.307883,29.118
787,1.30955,29.107
788,1.311217,29.101
789,1.312883,29.101
790,1.31455,29.097
791,1.316233,29.087
792,1.31795,29.082
793,1.31955,29.082
794,1.321217,29.075
795,1.322883,29.073
796,1.32455,29.069
797,1.326217,29.069
798,1.327883,29.067
799,1.32955,29.067
800,1.331217,29.067
801,1.332883,29.06
802,1.33455,29.05
803,1.336267,29.047
804,1.337883,29.047
805,1.33955,29.039
806,1.341217,29.032
807,1.342883,29.032
808,1.344567,29.032
809,1.346217,29.025
810,1.347883,29.021
811,1.34955,29.014
812,1.351217,29.014
813,1.352883,29.008
814,1.35455,28.998
815,1.356217,28.998
816,1.357883,28.996
817,1.35955,28.998
818,1.3612,29.001
819,1.362867,29.001
820,1.364533,29.005
821,1.3662,29.001
822,1.367867,28.995
823,1.369533,28.995
824,1.3712,28.986
825,1.372917,28.973
826,1.374533,28.962
827,1.3762,28.962
828,1.377867,28.953
829,1.379533,28.945
830,1.3812,28.945
831,1.382867,28.935
832,1.384533,28.934
833,1.386233,28.932
834,1.387867,28.932
835,1.389533,28.923
836,1.3912,28.919
837,1.392867,28.913
838,1.394533,28.913
839,1.3962,28.905
840,1.397867,28.906
841,1.399533,28.906
842,1.4012,28.906
843,1.402867,28.905
844,1.404533,28.899
845,1.4063,28.899
846,1.407867,28.899
847,1.409533,28.899
848,1.4112,28.895
849,1.412867,28.895
850,1.414533,28.901
851,1.4162,28.894
852,1.41785,28.896
853,1.419517,28.896
854,1.421183,28.895
855,1.42285,28.889
856,1.424517,28.893
857,1.426183,28.893
858,1.427867,28.884
859,1.42955,28.884
860,1.431183,28.889
861,1.43285,28.889
862,1.434517,28.885
863,1.436183,28.885
864,1.43785,28.885
865,1.439517,28.883
866,1.441183,28.881
867,1.44285,28.872
868,1.444517,28.872
869,1.446183,28.872
870,1.44785,28.868
871,1.449517,28.864
872,1.451183,28.864
873,1.45285,28.866
874,1.454517,28.865
875,1.456183,28.862
876,1.45785,28.862
877,1.459517,28.855
878,1.4612,28.847
879,1.46285,28.843
880,1.464517,28.843
881,1.466183,28.836
882,1.46785,28.835
883,1.469517,28.835
884,1.471183,28.836
885,1.47285,28.833
886,1.474517,28.832
887,1.476183,28.832
888,1.47785,28.829
889,1.4795,28.83
890,1.481167,28.83
891,1.482833,28.83
892,1.4845,28.823
893,1.486167,28.817
894,1.487817,28.807
895,1.489483,28.807
896,1.491183,28.798
897,1.492817,28.803
898,1.494483,28.803
899,1.49615,28.8
900,1.497817,28.807
901,1.499483,28.804
902,1.50115,28.804
903,1.502817,28.804
904,1.504483,28.81
905,1.506167,28.807
906,1.507867,28.807
907,1.509483,28.808
908,1.51115,28.799
909,1.512817,28.79
910,1.514483,28.79
911,1.51615,28.785
912,1.517817,28.786
913,1.5195,28.789
914,1.52115,28.789
915,1.522817,28.792
916,1.524567,28.788
917,1.52615,28.788
918,1.527817,28.778
919,1.529483,28.77
920,1.53115,28.763
921,1.532817,28.763
922,1.534483,28.758
923,1.53615,28.756
924,1.5378,28.749
925,1.5395,28.749
926,1.541133,28.741
927,1.5428,28.734
928,1.544467,28.736
929,1.546133,28.736
930,1.5478,28.736
931,1.549467,28.747
932,1.551133,28.747
933,1.5528,28.752
934,1.554467,28.749
935,1.556133,28.748
936,1.5578,28.748
937,1.559467,28.744
938,1.561133,28.743
939,1.5628,28.739
940,1.564467,28.739
941,1.566133,28.742
942,1.5678,28.738
943,1.569467,28.738
944,1.571133,28.738
945,1.5728,28.743
946,1.574467,28.737
947,1.576133,28.737
948,1.5778,28.729
949,1.579467,28.728
950,1.581133,28.723
951,1.5828,28.723
952,1.584467,28.72
953,1.586133,28.721
954,1.5878,28.711
955,1.589467,28.711
956,1.591167,28.7
957,1.5928,28.696
958,1.594467,28.695
959,1.596133,28.695
960,1.5978,28.695
961,1.59945,28.699
962,1.601117,28.703
963,1.6028,28.703
964,1.6045,28.698
965,1.606117,28.701
966,1.607783,28.701
967,1.60945,28.702
968,1.611117,28.699
969,1.612783,28.699
970,1.61445,28.699
971,1.616117,28.695
972,1.617783,28.689
973,1.61945,28.687
974,1.621117,28.687
975,1.622783,28.692
976,1.62445,28.696
977,1.626167,28.696
978,1.627783,28.696
979,1.62945,28.695
980,1.631117,28.689
981,1.632783,28.689
982,1.63445,28.673
983,1.636117,28.669
984,1.637783,28.666
985,1.63945,28.666
986,1.641117,28.656
987,1.642867,28.654
988,1.64445,28.652
989,1.646117,28.652
990,1.647783,28.644
991,1.64945,28.648
992,1.651117,28.652
993,1.652783,28.652
994,1.65445,28.655
995,1.656117,28.661
996,1.657767,28.663
997,1.65955,28.663
998,1.6611,28.668
999,1.662767,28.669
1000,1.664433,28.669
1001,1.6661,28.67
1002,1.667767,28.672
1003,1.669433,28.663
1004,1.6711,28.663
1005,1.672767,28.652
