"ID","sea_time","fid_signal"
1,0,139.318
2,0.001667,139.445
3,0.003333,139.445
4,0.004983,139.199
5,0.00665,139.11
6,0.008317,139.154
7,0.009983000000000001,139.154
8,0.01165,138.864
9,0.0133,138.737
10,0.014967,138.901
11,0.016633,138.901
12,0.0183,139.05
13,0.019967,139.162
14,0.021717,139.318
15,0.0233,139.318
16,0.024967,139.177
17,0.026633,138.812
18,0.0283,138.812
19,0.029967,138.581
20,0.031633,138.342
21,0.0333,138.476
22,0.034967,138.476
23,0.036633,138.856
24,0.0383,139.259
25,0.039967,139.758
26,0.041633,139.758
27,0.0433,139.907
28,0.044967,139.944
29,0.046633,140.004
30,0.0483,140.004
31,0.049967,140.019
32,0.051633,139.907
33,0.053333,139.907
34,0.054967,140.049
35,0.056633,139.728
36,0.0583,139.594
37,0.059967,139.594
38,0.061633,139.52
39,0.0633,139.177
40,0.064967,139.162
41,0.066617,139.162
42,0.068283,139.259
43,0.06995,139.631
44,0.071617,139.557
45,0.0733,139.557
46,0.07495,139.654
47,0.076617,139.259
48,0.07828300000000001,139.259
49,0.07994999999999999,138.782
50,0.081617,138.819
51,0.083283,138.953
52,0.08495,138.953
53,0.08666699999999999,139.11
54,0.088283,139.102
55,0.08995,139.281
56,0.091617,139.281
57,0.093283,139.296
58,0.09495000000000001,139.385
59,0.09661699999999999,139.467
60,0.098283,139.467
61,0.09995,139.184
62,0.101617,139.222
63,0.103283,139.177
64,0.10495,139.177
65,0.106667,138.924
66,0.108283,139.073
67,0.10995,139.073
68,0.111617,138.901
69,0.113283,138.886
70,0.11495,139.028
71,0.116617,139.028
72,0.118283,138.961
73,0.11995,138.968
74,0.121617,138.752
75,0.123267,138.752
76,0.124933,138.752
77,0.1266,139.169
78,0.128267,139.467
79,0.129933,139.467
80,0.1316,139.646
81,0.133267,139.728
82,0.134933,139.728
83,0.1366,139.43
84,0.138267,139.147
85,0.139967,139.207
86,0.1416,139.207
87,0.143267,139.266
88,0.144933,139.281
89,0.1466,139.222
90,0.148267,139.222
91,0.149933,139.199
92,0.1516,138.737
93,0.153267,138.663
94,0.154933,138.663
95,0.1566,138.551
96,0.158267,138.514
97,0.159933,138.514
98,0.1616,138.626
99,0.163267,138.685
100,0.16495,138.7
101,0.1666,138.7
102,0.168267,138.7
103,0.169933,139.244
104,0.1716,138.961
105,0.173267,138.961
106,0.174933,139.043
107,0.1766,139.065
108,0.178267,139.102
109,0.179933,139.102
110,0.1816,139.512
111,0.183267,139.259
112,0.184933,139.207
113,0.186583,139.207
114,0.18825,138.916
115,0.189917,138.752
116,0.191583,138.752
117,0.19325,138.946
118,0.194917,138.961
119,0.196583,139.244
120,0.19825,139.244
121,0.199917,139.445
122,0.201583,139.706
123,0.20325,139.706
124,0.204917,139.706
125,0.206583,139.549
126,0.20825,139.475
127,0.209917,139.251
128,0.211583,139.251
129,0.21325,139.244
130,0.214917,138.916
131,0.216583,138.916
132,0.21825,138.685
133,0.219917,138.707
134,0.221583,138.573
135,0.22325,138.573
136,0.22495,138.707
137,0.226583,138.819
138,0.22825,138.7
139,0.229917,138.7
140,0.231583,139.132
141,0.23325,139.52
142,0.234917,139.631
143,0.236617,139.631
144,0.23825,139.825
145,0.239917,139.78
146,0.241583,139.616
147,0.24325,139.616
148,0.2449,139.505
149,0.246567,139.728
150,0.248233,139.728
151,0.2499,139.482
152,0.251567,139.348
153,0.253233,139.542
154,0.2549,139.542
155,0.256567,139.184
156,0.25835,139.125
157,0.2599,139.087
158,0.261567,139.087
159,0.263233,139.065
160,0.2649,139.475
161,0.266567,139.751
162,0.268233,139.751
163,0.2699,140.026
164,0.271567,139.87
165,0.273233,139.87
166,0.2749,139.818
167,0.276567,139.84
168,0.278233,139.579
169,0.2799,139.579
170,0.281567,139.676
171,0.283233,139.631
172,0.2849,139.825
173,0.286567,139.825
174,0.288233,140.429
175,0.2899,141.211
176,0.291567,141.695
177,0.293233,141.695
178,0.2949,141.852
179,0.296567,142.261
180,0.298233,142.433
181,0.2999,142.433
182,0.301567,143.223
183,0.303233,144.161
184,0.304867,144.161
185,0.306567,145.286
186,0.30825,146.724
187,0.309933,147.872
188,0.311533,147.872
189,0.3132,149.325
190,0.314867,150.502
191,0.316533,152.178
192,0.3182,152.178
193,0.319867,154.883
194,0.321533,158.176
195,0.3232,161.923
196,0.324867,161.923
197,0.326533,165.813
198,0.3282,169.635
199,0.329867,169.635
200,0.331533,173.748
201,0.3332,178.494
202,0.334867,183.381
203,0.336533,183.381
204,0.3382,188.477
205,0.339867,193.566
206,0.341533,198.312
207,0.34325,198.312
208,0.344867,203.319
209,0.346533,207.67
210,0.3482,211.693
211,0.349867,211.693
212,0.351533,215.583
213,0.3532,218.391
214,0.354867,218.391
215,0.356533,220.716
216,0.3582,222.668
217,0.359867,223.92
218,0.361533,223.92
219,0.3632,225.522
220,0.36485,227.571
221,0.366517,229.97
222,0.368183,229.97
223,0.36985,233.807
224,0.371517,239.998
225,0.373183,249.103
226,0.37485,249.103
227,0.376633,262.849
228,0.378183,282.295
229,0.37985,308.476
230,0.381517,308.476
231,0.383183,342.95
232,0.384883,386.32
233,0.386517,386.32
234,0.388183,438.951
235,0.38985,500.657
236,0.391517,570.513
237,0.393183,570.513
238,0.39485,647.8579999999999
239,0.396517,731.103
240,0.398183,817.992
241,0.39985,817.992
242,0.401517,906.7430000000001
243,0.403183,995.122
244,0.40485,1081.362
245,0.406517,1081.362
246,0.408183,1163.825
247,0.40985,1241.654
248,0.411517,1241.654
249,0.413183,1313.15
250,0.41485,1378.305
251,0.416517,1436.822
252,0.418183,1436.822
253,0.41985,1488.633
254,0.421517,1534.38
255,0.423183,1573.153
256,0.424833,1573.153
257,0.4265,1605.488
258,0.428167,1631.431
259,0.429833,1651.369
260,0.4315,1651.369
261,0.433167,1666.345
262,0.434833,1676.515
263,0.4365,1682.378
264,0.438167,1682.378
265,0.439833,1684.047
266,0.4415,1681.961
267,0.443167,1681.961
268,0.444833,1676.649
269,0.4465,1668.796
270,0.448167,1658.574
271,0.449867,1658.574
272,0.4515,1645.818
273,0.453167,1630.88
274,0.454833,1613.773
275,0.4565,1613.773
276,0.458167,1594.61
277,0.459867,1573.868
278,0.4615,1552.06
279,0.463167,1552.06
280,0.464833,1529.075
281,0.4665,1505.226
282,0.468167,1505.226
283,0.469833,1480.915
284,0.4715,1455.828
285,0.473167,1429.997
286,0.474833,1429.997
287,0.4765,1403.958
288,0.478233,1377.56
289,0.479833,1351.193
290,0.4815,1351.193
291,0.483167,1324.527
292,0.484833,1297.802
293,0.486483,1271.009
294,0.48815,1271.009
295,0.489817,1244.195
296,0.491483,1217.946
297,0.49315,1191.914
298,0.494917,1191.914
299,0.496483,1166.269
300,0.49815,1140.915
301,0.499817,1140.915
302,0.501483,1115.911
303,0.50315,1090.959
304,0.504817,1066.327
305,0.506483,1066.327
306,0.50815,1042.321
307,0.509817,1019.038
308,0.5116000000000001,996.284
309,0.51315,996.284
310,0.514817,974.104
311,0.516483,952.177
312,0.51815,930.205
313,0.519817,930.205
314,0.521483,909.038
315,0.52315,888.407
316,0.524817,888.407
317,0.526483,868.2089999999999
318,0.52815,849.135
319,0.529833,830.509
320,0.531483,830.509
321,0.53315,812.255
322,0.534817,794.388
323,0.536483,776.783
324,0.53815,776.783
325,0.539817,759.2140000000001
326,0.541483,742.3680000000001
327,0.54315,726.052
328,0.5448,726.052
329,0.546467,710.383
330,0.548133,695.46
331,0.5498,695.46
332,0.551467,680.715
333,0.553133,666.3049999999999
334,0.554817,651.963
335,0.556467,651.963
336,0.558133,638.016
337,0.5598,624.4109999999999
338,0.561467,611.2380000000001
339,0.563133,611.2380000000001
340,0.5648,598.364
341,0.5664670000000001,585.951
342,0.568133,573.918
343,0.5698,573.918
344,0.5714669999999999,562.4
345,0.573133,551.164
346,0.5748,540.093
347,0.576467,540.093
348,0.578133,529.692
349,0.5798,519.216
350,0.581467,519.216
351,0.583133,509.232
352,0.5848,499.763
353,0.586467,490.233
354,0.588133,490.233
355,0.5898,481.233
356,0.591467,472.411
357,0.593133,463.679
358,0.5948,463.679
359,0.59655,455.111
360,0.598117,446.737
361,0.599783,438.534
362,0.601467,438.534
363,0.603117,430.644
364,0.6047670000000001,423.208
365,0.606433,423.208
366,0.6081,415.869
367,0.6097669999999999,408.866
368,0.611433,401.661
369,0.6132,401.661
370,0.614767,394.672
371,0.616433,388.049
372,0.6181,381.5
373,0.619767,381.5
374,0.621433,375.479
375,0.6231,369.638
376,0.624767,363.596
377,0.626433,363.596
378,0.6281,357.844
379,0.629867,352.308
380,0.631433,346.594
381,0.6331,346.594
382,0.634767,341.356
383,0.636433,336.312
384,0.6381,336.312
385,0.639767,331.163
386,0.641433,326.179
387,0.643117,321.575
388,0.644767,321.575
389,0.646433,317.201
390,0.6481,313.118
391,0.649767,309.154
392,0.651433,309.154
393,0.6531,304.937
394,0.654767,300.705
395,0.656433,296.392
396,0.6581,296.392
397,0.659767,292.636
398,0.661433,289.023
399,0.663083,289.023
400,0.66475,285.126
401,0.666417,281.714
402,0.668083,278.041
403,0.66975,278.041
404,0.671417,274.45
405,0.673083,271.462
406,0.674783,268.035
407,0.676417,268.035
408,0.678083,264.764
409,0.67975,261.754
410,0.6814170000000001,258.55
411,0.683083,258.55
412,0.68475,255.905
413,0.6864170000000001,253.215
414,0.688083,250.421
415,0.68975,250.421
416,0.6914169999999999,247.985
417,0.693083,245.295
418,0.69475,245.295
419,0.696417,242.628
420,0.698083,240.304
421,0.69975,237.793
422,0.701417,237.793
423,0.703083,235.386
424,0.704767,233.144
425,0.706417,230.893
426,0.708083,230.893
427,0.70975,228.785
428,0.711417,226.751
429,0.713083,224.672
430,0.7147829999999999,224.672
431,0.716417,222.452
432,0.718083,220.329
433,0.71975,220.329
434,0.721417,218.771
435,0.723083,217.095
436,0.724783,215.56
437,0.7264,215.56
438,0.728067,214.13
439,0.729733,212.155
440,0.73145,210.389
441,0.733067,210.389
442,0.734733,208.981
443,0.7364000000000001,207.014
444,0.738067,205.383
445,0.739733,205.383
446,0.7413999999999999,203.975
447,0.743067,202.276
448,0.744733,202.276
449,0.7464,200.979
450,0.748183,199.869
451,0.749733,198.528
452,0.7514,198.528
453,0.753067,197.172
454,0.754733,195.958
455,0.7564,194.177
456,0.758067,194.177
457,0.759733,193.089
458,0.7614,192.165
459,0.7630670000000001,190.884
460,0.764733,190.884
461,0.7664,190.139
462,0.7680670000000001,188.79
463,0.769733,187.747
464,0.7714,187.747
465,0.7730669999999999,186.652
466,0.774733,185.683
467,0.7764,185.683
468,0.778067,184.856
469,0.779733,183.858
470,0.7814,182.979
471,0.783067,182.979
472,0.784717,181.869
473,0.7863830000000001,180.721
474,0.78805,179.864
475,0.789717,179.864
476,0.7913829999999999,178.933
477,0.79305,178.397
478,0.794717,177.942
479,0.796383,177.942
480,0.79805,177.093
481,0.799717,176.497
482,0.801383,176.497
483,0.80305,175.633
484,0.804717,174.887
485,0.806383,174.187
486,0.80805,174.187
487,0.809733,173.293
488,0.8114,172.57
489,0.8130500000000001,171.788
490,0.814717,171.788
491,0.816383,170.909
492,0.8180500000000001,170.432
493,0.819717,169.963
494,0.821383,169.963
495,0.8230499999999999,169.434
496,0.824717,168.86
497,0.826383,167.891
498,0.82805,167.891
499,0.829717,166.774
500,0.831383,166.088
501,0.833067,166.088
502,0.834717,165.53
503,0.836383,165.366
504,0.83805,165.179
505,0.839717,165.179
506,0.841383,164.658
507,0.84305,164.278
508,0.8447,163.458
509,0.846367,163.458
510,0.848033,163.175
511,0.8497,162.78
512,0.851367,162.318
513,0.853033,162.318
514,0.8547,162.184
515,0.856367,161.581
516,0.858033,161.581
517,0.8597,161.104
518,0.861367,160.769
519,0.8630330000000001,160.381
520,0.8647,160.381
521,0.866467,160.277
522,0.8680330000000001,160.15
523,0.8697,159.584
524,0.871367,159.584
525,0.8730329999999999,159.435
526,0.8747,158.809
527,0.876367,158.183
528,0.878033,158.183
529,0.8797,157.759
530,0.881367,157.23
531,0.883033,157.073
532,0.8847,157.073
533,0.88635,156.783
534,0.88805,156.656
535,0.8897,156.656
536,0.89135,156.395
537,0.8930169999999999,156.105
538,0.894683,155.985
539,0.89635,155.985
540,0.898017,155.732
541,0.899683,155.278
542,0.90135,155.099
543,0.903,155.099
544,0.904667,154.942
545,0.9063330000000001,154.682
546,0.908,154.391
547,0.909667,154.391
548,0.9113329999999999,153.646
549,0.913,153.05
550,0.914667,153.05
551,0.916333,152.908
552,0.918,152.834
553,0.919667,153.05
554,0.921333,153.05
555,0.923,153.08
556,0.924667,152.737
557,0.926333,152.834
558,0.928,152.834
559,0.929667,152.364
560,0.931333,152.141
561,0.9330000000000001,152.096
562,0.934667,152.096
563,0.936333,151.575
564,0.9379999999999999,151.47
565,0.939667,151.47
566,0.941333,151.105
567,0.9429999999999999,150.569
568,0.944667,150.569
569,0.946333,150.569
570,0.948,150.517
571,0.949667,150.479
572,0.951383,150.308
573,0.953,150.308
574,0.954667,149.928
575,0.956333,149.578
576,0.958,149.399
577,0.959667,149.399
578,0.961333,149.317
579,0.963,149.153
580,0.96465,149.19
581,0.966317,149.19
582,0.967983,148.81
583,0.96965,148.639
584,0.971317,148.639
585,0.972983,148.334
586,0.97465,148.401
587,0.976317,148.49
588,0.977983,148.49
589,0.97965,148.512
590,0.981317,148.825
591,0.9829830000000001,148.252
592,0.98475,148.252
593,0.986317,148.244
594,0.9879829999999999,148.103
595,0.98965,147.983
596,0.991317,147.983
597,0.9929829999999999,147.812
598,0.99465,147.611
599,0.996317,147.611
600,0.997983,147.633
601,0.99965,147.469
602,1.001317,147.521
603,1.002983,147.521
604,1.00465,147.32
605,1.006317,147.045
606,1.007983,146.821
607,1.00965,146.821
608,1.011317,147.015
609,1.012983,146.955
610,1.01465,147.097
611,1.016317,147.097
612,1.017983,147
613,1.01965,146.65
614,1.021317,146.493
615,1.022967,146.493
616,1.024633,145.979
617,1.0263,145.875
618,1.027967,145.875
619,1.029633,145.853
620,1.0313,145.704
621,1.032967,145.681
622,1.0347,145.681
623,1.0363,145.89
624,1.037967,145.48
625,1.039633,145.532
626,1.0413,145.532
627,1.042967,145.562
628,1.044633,145.115
629,1.0463,145.532
630,1.047967,145.532
631,1.04965,145.786
632,1.0513,145.748
633,1.052967,145.748
634,1.054633,146.009
635,1.0563,145.875
636,1.057967,145.637
637,1.059633,145.637
638,1.0613,145.763
639,1.062967,145.659
640,1.064633,145.733
641,1.0663,145.733
642,1.067967,145.741
643,1.069683,145.733
644,1.0713,145.51
645,1.072967,145.51
646,1.074633,144.973
647,1.0763,144.668
648,1.077967,144.452
649,1.079633,144.452
650,1.0813,144.549
651,1.082967,144.549
652,1.084617,144.549
653,1.086283,144.698
654,1.08795,144.571
655,1.089617,144.362
656,1.091283,144.362
657,1.09295,144.474
658,1.094617,144.31
659,1.096283,144.325
660,1.09795,144.325
661,1.099617,144.444
662,1.101283,144.318
663,1.102983,143.945
664,1.104617,143.945
665,1.106283,143.826
666,1.107967,143.588
667,1.109617,143.588
668,1.111283,143.804
669,1.11295,144.042
670,1.114617,144.146
671,1.116283,144.146
672,1.11795,144.325
673,1.119617,144.079
674,1.121283,143.96
675,1.12295,143.96
676,1.124617,143.729
677,1.126283,143.565
678,1.12795,143.431
679,1.129617,143.431
680,1.131283,143.327
681,1.13295,143.208
682,1.134617,143.141
683,1.136283,143.141
684,1.137967,143.044
685,1.13965,143.237
686,1.141283,143.237
687,1.14295,143.58
688,1.1446,143.677
689,1.146267,144.005
690,1.147933,144.005
691,1.1496,143.841
692,1.151267,143.632
693,1.152933,143.439
694,1.1546,143.439
695,1.156267,143.193
696,1.157933,143.215
697,1.1596,143.096
698,1.161267,143.096
699,1.162933,143.029
700,1.1646,142.954
701,1.166267,142.954
702,1.167933,142.835
703,1.169617,142.753
704,1.171267,142.485
705,1.172933,142.485
706,1.1746,142.485
707,1.176267,142.775
708,1.177917,142.872
709,1.179583,142.872
710,1.18125,142.813
711,1.182917,142.753
712,1.184583,142.88
713,1.18625,142.88
714,1.188017,142.872
715,1.189583,143.118
716,1.19125,143.118
717,1.192917,143.118
718,1.194583,142.716
719,1.19625,142.775
720,1.197917,142.775
721,1.199583,142.954
722,1.20125,142.969
723,1.202917,142.761
724,1.204567,142.761
725,1.206233,142.53
726,1.2079,142.291
727,1.209567,142.165
728,1.211233,142.165
729,1.2129,142.194
730,1.214567,142.097
731,1.216233,142.172
732,1.2179,142.172
733,1.219567,142.306
734,1.221333,142.284
735,1.2229,142.284
736,1.224567,142.395
737,1.226233,142.5
738,1.2279,142.679
739,1.229567,142.679
740,1.231267,142.902
741,1.2329,142.977
742,1.234567,142.857
743,1.236233,142.857
744,1.2379,142.753
745,1.239567,142.612
746,1.241233,142.686
747,1.2429,142.686
748,1.244567,142.537
749,1.246233,142.328
750,1.247933,142.328
751,1.249567,142.343
752,1.251233,142.016
753,1.2529,142.105
754,1.254567,142.105
755,1.256233,142.194
756,1.2579,142.232
757,1.259567,142.306
758,1.261233,142.306
759,1.2629,142.224
760,1.26455,142.284
761,1.266217,142.224
762,1.267883,142.224
763,1.26955,142.507
764,1.271217,142.641
765,1.272883,142.537
766,1.27455,142.537
767,1.276217,142.328
768,1.277883,141.978
769,1.27955,141.978
770,1.281217,142.053
771,1.2829,141.904
772,1.28455,142.083
773,1.286217,142.083
774,1.287883,142.105
775,1.28955,141.546
776,1.291217,141.531
777,1.292883,141.531
778,1.29455,141.367
779,1.296217,141.546
780,1.297883,142.045
781,1.29955,142.045
782,1.301217,142.254
783,1.302883,142.254
784,1.30455,142.254
785,1.306267,142.172
786,1.307883,142.239
787,1.30955,142.157
788,1.311217,142.157
789,1.312883,142.232
790,1.31455,142.358
791,1.316217,141.904
792,1.317883,141.904
793,1.31955,141.829
794,1.321233,141.583
795,1.32295,141.33
796,1.324533,141.33
797,1.3262,141.479
798,1.327867,141.524
799,1.329533,141.524
800,1.3312,141.546
801,1.332867,141.449
802,1.334533,141.576
803,1.3362,141.576
804,1.337867,141.412
805,1.339633,141.636
806,1.3412,141.665
807,1.342867,141.665
808,1.344533,141.479
809,1.3462,141.434
810,1.347867,141.218
811,1.349533,141.218
812,1.3512,141.226
813,1.352867,141.077
814,1.354533,141.323
815,1.3562,141.323
816,1.357867,141.27
817,1.359533,141.121
818,1.3612,141.121
819,1.362867,141.069
820,1.364533,140.972
821,1.3662,141.196
822,1.367867,141.196
823,1.369533,141.561
824,1.3712,141.777
825,1.372867,141.524
826,1.374533,141.524
827,1.3762,141.457
828,1.377867,141.107
829,1.379533,141.01
830,1.381183,141.01
831,1.38285,141.077
832,1.384517,141.054
833,1.386183,141.054
834,1.38785,141.144
835,1.389517,141.114
836,1.391183,141.01
837,1.39285,141.01
838,1.394533,140.89
839,1.39625,140.831
840,1.39785,140.749
841,1.399517,140.749
842,1.401183,140.794
843,1.40285,140.749
844,1.404517,140.838
845,1.406183,140.838
846,1.40785,140.861
847,1.409517,141.36
848,1.411183,141.412
849,1.41285,141.412
850,1.414517,141.412
851,1.416183,141.3
852,1.41785,141.3
853,1.419517,141.144
854,1.421183,141.181
855,1.42285,141.114
856,1.424517,141.114
857,1.426183,141.546
858,1.42785,141.256
859,1.429517,141.405
860,1.431183,141.405
861,1.43285,141.68
862,1.434517,141.442
863,1.436183,141.203
864,1.43785,141.203
865,1.439517,141.054
866,1.44125,140.682
867,1.44285,140.682
868,1.4445,140.66
869,1.446167,141.166
870,1.447833,141.315
871,1.4495,141.315
872,1.451167,141.405
873,1.452833,141.3
874,1.4545,141.144
875,1.456167,141.144
876,1.457933,140.935
877,1.4595,141.002
878,1.461167,141.047
879,1.462833,141.047
880,1.4645,140.846
881,1.466167,140.846
882,1.467833,140.913
883,1.469517,140.913
884,1.47115,141.025
885,1.472817,141.077
886,1.4746,141.077
887,1.47615,141.151
888,1.477817,141.151
889,1.479483,141.002
890,1.48115,141.002
891,1.482817,141.047
892,1.484483,140.928
893,1.48615,140.667
894,1.487817,140.667
895,1.489483,140.607
896,1.49115,140.51
897,1.492817,140.66
898,1.494483,140.66
899,1.49615,140.928
900,1.497817,141.375
901,1.499483,141.375
902,1.50115,141.717
903,1.5028,141.688
904,1.504467,141.688
905,1.506133,141.688
906,1.5078,141.241
907,1.509467,140.89
908,1.511133,140.89
909,1.5128,140.89
910,1.514467,140.563
911,1.516133,140.347
912,1.5178,140.339
913,1.519467,140.339
914,1.521133,140.317
915,1.5228,140.563
916,1.524467,140.563
917,1.526133,140.876
918,1.5278,140.965
919,1.529467,141.136
920,1.531133,141.136
921,1.5328,141.278
922,1.534467,141.412
923,1.536167,141.397
924,1.5378,141.397
925,1.539517,141.345
926,1.541133,140.965
927,1.5428,140.838
928,1.544467,140.838
929,1.546133,140.838
930,1.5478,140.712
931,1.549467,140.771
932,1.551133,140.771
933,1.5528,140.861
934,1.554467,140.794
935,1.556133,140.794
936,1.5578,140.928
937,1.5595,141.077
938,1.561133,140.756
939,1.562783,140.756
940,1.56445,140.786
941,1.566117,140.615
942,1.567783,140.481
943,1.56945,140.481
944,1.571117,140.473
945,1.572783,140.391
946,1.57445,140.265
947,1.57615,140.265
948,1.577783,140.399
949,1.57945,140.496
950,1.581117,140.496
951,1.582783,140.131
952,1.58445,140.056
953,1.586117,139.959
954,1.587783,139.959
955,1.58945,140.093
956,1.591117,140.51
957,1.5929,140.652
958,1.59445,140.652
959,1.596117,140.503
960,1.597783,140.384
