"ID","sea_time","fid_signal"
1,0,138.976
2,0.001667,139.274
3,0.003317,139.274
4,0.004983,139.296
5,0.00665,139.11
6,0.008317,139.371
7,0.009983000000000001,139.371
8,0.01165,139.005
9,0.013317,138.968
10,0.014983,138.648
11,0.016683,138.648
12,0.018317,138.707
13,0.019983,138.73
14,0.02175,138.693
15,0.023317,138.693
16,0.024983,139.125
17,0.02665,138.953
18,0.028317,139.095
19,0.029983,139.095
20,0.03165,139.132
21,0.0333,139.445
22,0.034967,139.445
23,0.036633,139.698
24,0.038317,139.602
25,0.039967,139.564
26,0.041633,139.564
27,0.0433,139.058
28,0.044967,138.983
29,0.046633,139.028
30,0.0483,139.028
31,0.049967,139.222
32,0.051633,139.274
33,0.0533,139.117
34,0.054967,139.117
35,0.056633,139.177
36,0.0583,139.132
37,0.059967,139.132
38,0.061617,139.214
39,0.06328300000000001,139.102
40,0.06494999999999999,139.266
41,0.066617,139.266
42,0.068283,139.281
43,0.06995,139.52
44,0.071617,139.698
45,0.073283,139.698
46,0.07495,139.467
47,0.076617,139.371
48,0.07828300000000001,139.236
49,0.07994999999999999,139.236
50,0.081617,139.244
51,0.083283,139.639
52,0.08495,139.639
53,0.086617,139.721
54,0.088283,139.49
55,0.08995,139.289
56,0.091617,139.289
57,0.093283,139.013
58,0.09495000000000001,138.529
59,0.09661699999999999,138.581
60,0.098283,138.581
61,0.1,138.7
62,0.101617,138.521
63,0.103283,138.804
64,0.104967,138.804
65,0.10665,138.737
66,0.108283,139.005
67,0.10995,139.363
68,0.111617,139.363
69,0.113283,139.557
70,0.11495,139.728
71,0.116617,139.728
72,0.118283,139.542
73,0.11995,139.505
74,0.121617,139.281
75,0.123267,139.281
76,0.124933,139.423
77,0.1266,139.4
78,0.128267,139.154
79,0.129933,139.154
80,0.1316,139.512
81,0.133267,139.251
82,0.134933,139.378
83,0.1366,139.378
84,0.138267,139.326
85,0.140033,139.035
86,0.1416,139.035
87,0.143267,139.385
88,0.144933,139.125
89,0.1466,138.856
90,0.148267,138.856
91,0.149933,138.745
92,0.1516,138.469
93,0.153267,138.67
94,0.154933,138.67
95,0.1566,138.693
96,0.158267,138.864
97,0.159933,138.789
98,0.1616,138.789
99,0.163267,138.789
100,0.164933,139.326
101,0.1666,139.564
102,0.168267,139.564
103,0.169933,139.885
104,0.1716,139.885
105,0.173267,139.885
106,0.174933,139.646
107,0.1766,139.385
108,0.178267,139.11
109,0.179933,139.11
110,0.1816,139.05
111,0.18325,138.991
112,0.184917,138.842
113,0.186583,138.842
114,0.18825,138.924
115,0.189917,138.856
116,0.191583,139.11
117,0.19325,139.11
118,0.194917,139.11
119,0.196583,139.073
120,0.19825,139.073
121,0.199917,139.087
122,0.201583,138.588
123,0.20325,138.819
124,0.204917,138.819
125,0.206583,139.147
126,0.20825,139.49
127,0.209917,140.66
128,0.211583,140.66
129,0.21325,141.658
130,0.214917,143.722
131,0.2166,147.916
132,0.21825,147.916
133,0.219917,154.294
134,0.221583,164.71
135,0.22325,179.246
136,0.224967,179.246
137,0.226583,198.767
138,0.22825,224.389
139,0.229917,224.389
140,0.231583,256.412
141,0.23325,294.738
142,0.234917,339.016
143,0.236583,339.016
144,0.23825,388.317
145,0.239917,441.879
146,0.241567,498.72
147,0.243233,498.72
148,0.2449,557.765
149,0.246567,618.152
150,0.248233,678.9640000000001
151,0.2499,678.9640000000001
152,0.2516,739.954
153,0.253233,801.154
154,0.2549,801.154
155,0.256567,862.0170000000001
156,0.258333,922.278
157,0.2599,982.434
158,0.261567,982.434
159,0.263233,1042.426
160,0.2649,1102.589
161,0.266567,1163.49
162,0.268233,1163.49
163,0.2699,1224.995
164,0.271567,1287.825
165,0.273233,1352.347
166,0.275,1352.347
167,0.276567,1418.315
168,0.278233,1486.369
169,0.2799,1486.369
170,0.281567,1556.486
171,0.283233,1628.965
172,0.2849,1704.38
173,0.286567,1704.38
174,0.288233,1782.812
175,0.2899,1864.687
176,0.291567,1950.011
177,0.293233,1950.011
178,0.2949,2039.075
179,0.296567,2132.513
180,0.298233,2230.339
181,0.2999,2230.339
182,0.30155,2333.12
183,0.303217,2441.026
184,0.304883,2554.178
185,0.30655,2554.178
186,0.308217,2672.806
187,0.309883,2797.842
188,0.31155,2797.842
189,0.313217,2929.695
190,0.314883,3069.855
191,0.31655,3220.677
192,0.318217,3220.677
193,0.319883,3385.611
194,0.32155,3571.786
195,0.323217,3788.702
196,0.324867,3788.702
197,0.326533,4049.107
198,0.3282,4368.461
199,0.329867,4759.893
200,0.331533,4759.893
201,0.3332,5231.291
202,0.3349,5779.482
203,0.336533,5779.482
204,0.3382,6387.04
205,0.339867,7022.09
206,0.341533,7639.833
207,0.3432,7639.833
208,0.344867,8190.498
209,0.346533,8625.284
210,0.3482,8905.648999999999
211,0.349867,8905.648999999999
212,0.351533,9007.99
213,0.3532,8926.584999999999
214,0.354867,8672.728999999999
215,0.356533,8672.728999999999
216,0.3582,8271.456
217,0.359983,7755.809
218,0.361533,7161.982
219,0.363183,7161.982
220,0.36485,6525.613
221,0.366517,5876.616
222,0.368183,5876.616
223,0.36985,5239.934
224,0.371517,4633.799
225,0.373183,4070.036
226,0.37485,4070.036
227,0.376567,3556.333
228,0.378183,3095.515
229,0.37985,2687.328
230,0.381517,2687.328
231,0.383183,2329.946
232,0.38485,2019.048
233,0.386517,1750.477
234,0.388183,1750.477
235,0.38985,1519.769
236,0.391533,1321.748
237,0.3933,1152.314
238,0.39485,1152.314
239,0.396517,1008.168
240,0.398183,884.9349999999999
241,0.39985,884.9349999999999
242,0.401517,780.299
243,0.403233,691.168
244,0.40485,614.971
245,0.406517,614.971
246,0.408183,550.359
247,0.40985,495.151
248,0.411517,448.219
249,0.413183,448.219
250,0.41485,407.718
251,0.416517,373.147
252,0.418183,373.147
253,0.419833,343.516
254,0.4215,318.095
255,0.4232,296.764
256,0.424883,296.764
257,0.4265,278.331
258,0.428167,262.462
259,0.429833,248.775
260,0.4315,248.775
261,0.433167,236.668
262,0.434833,226.445
263,0.4365,217.661
264,0.438167,217.661
265,0.439833,210.017
266,0.4415,203.803
267,0.443167,198.156
268,0.444833,198.156
269,0.4465,193.089
270,0.448167,189.014
271,0.449833,189.014
272,0.4515,185.095
273,0.453167,181.407
274,0.454833,178.091
275,0.4565,178.091
276,0.458167,174.925
277,0.459833,172.161
278,0.4615,169.896
279,0.463167,169.896
280,0.464833,168.167
281,0.4665,166.439
282,0.468167,164.956
283,0.469833,164.956
284,0.471533,164.054
285,0.473167,162.795
286,0.474833,162.795
287,0.4765,161.804
288,0.478183,160.642
289,0.479833,159.115
290,0.4815,159.115
291,0.48315,158.124
292,0.484817,157.401
293,0.486483,156.701
294,0.48815,156.701
295,0.489817,156.358
296,0.491483,155.836
297,0.49315,155.061
298,0.494833,155.061
299,0.496483,154.622
300,0.49815,154.354
301,0.499817,154.003
302,0.501483,154.003
303,0.50315,153.616
304,0.504817,153.169
305,0.506483,153.169
306,0.50815,152.446
307,0.509817,152.2
308,0.511583,151.835
309,0.51315,151.835
310,0.514817,151.426
311,0.516517,151.053
312,0.51815,150.643
313,0.519817,150.643
314,0.521483,150.74
315,0.52315,150.926
316,0.524817,150.934
317,0.526483,150.934
318,0.52815,150.591
319,0.529817,149.921
320,0.531483,149.921
321,0.53315,149.615
322,0.534817,149.116
323,0.536483,148.706
324,0.53815,148.706
325,0.539817,148.341
326,0.541467,147.663
327,0.543133,147.551
328,0.5448,147.551
329,0.546467,147.432
330,0.548167,147.372
331,0.5498,147.529
332,0.551467,147.529
333,0.553133,147.529
334,0.5548,147.484
335,0.556467,147.715
336,0.558133,147.715
337,0.5598,147.626
338,0.561467,147.618
339,0.563133,147.618
340,0.5648,147.775
341,0.5664670000000001,147.574
342,0.568133,147.164
343,0.5698,147.164
344,0.5714669999999999,146.888
345,0.573133,146.62
346,0.5748,146.508
347,0.576467,146.508
348,0.578133,146.538
349,0.5798,146.143
350,0.581467,145.845
351,0.583133,145.845
352,0.5848,145.793
353,0.586467,145.45
354,0.588133,145.45
355,0.5898,145.48
356,0.591467,145.353
357,0.593167,145.078
358,0.5948,145.078
359,0.596467,145.331
360,0.598133,145.398
361,0.5998,145.629
362,0.601467,145.629
363,0.603117,145.927
364,0.604783,145.666
365,0.60645,145.376
366,0.608117,145.376
367,0.609783,145.018
368,0.61145,144.705
369,0.61315,144.742
370,0.614783,144.742
371,0.616433,144.795
372,0.618117,145.026
373,0.619767,145.026
374,0.621433,144.847
375,0.6231,144.78
376,0.624767,144.891
377,0.626433,144.891
378,0.6281,144.705
379,0.629883,144.541
380,0.631433,144.4
381,0.6331,144.4
382,0.634767,143.93
383,0.636433,143.558
384,0.6381,143.543
385,0.639767,143.543
386,0.641433,143.662
387,0.6431,143.938
388,0.644767,143.938
389,0.646433,144.176
390,0.6481,144.02
391,0.649767,144.005
392,0.651433,144.005
393,0.6531,143.856
394,0.654767,143.826
395,0.656433,143.833
396,0.6581,143.833
397,0.659767,143.602
398,0.661417,143.379
399,0.663083,143.208
400,0.66475,143.208
401,0.666417,143.245
402,0.668083,143.252
403,0.66975,143.252
404,0.671417,143.304
405,0.673083,143.468
406,0.67475,143.386
407,0.676417,143.386
408,0.678083,143.521
409,0.67975,143.386
410,0.6814170000000001,142.813
411,0.683117,142.813
412,0.68475,142.85
413,0.6864170000000001,142.559
414,0.6881,142.619
415,0.68975,142.619
416,0.6914169999999999,142.954
417,0.693083,142.917
418,0.69475,142.887
419,0.696417,142.887
420,0.698083,143.059
421,0.69975,143.111
422,0.701417,143.111
423,0.703083,142.843
424,0.70475,142.761
425,0.706417,142.515
426,0.708083,142.515
427,0.70975,142.5
428,0.711417,142.455
429,0.713083,142.567
430,0.714817,142.567
431,0.716417,142.686
432,0.718083,142.388
433,0.719733,142.641
434,0.7214,142.641
435,0.723067,142.515
436,0.724733,142.314
437,0.7264,142.314
438,0.728067,142.232
439,0.729733,142.209
440,0.7314000000000001,142.016
441,0.733067,142.016
442,0.734733,141.881
443,0.7364000000000001,141.986
444,0.738067,141.583
445,0.739733,141.583
446,0.7413999999999999,141.591
447,0.743067,141.494
448,0.744733,141.449
449,0.7464,141.449
450,0.74815,141.598
451,0.749733,141.606
452,0.7514,141.993
453,0.753067,141.993
454,0.754733,142.03
455,0.7564,142.09
456,0.758067,142.09
457,0.759733,141.956
458,0.7614,141.792
459,0.7630670000000001,141.703
460,0.764733,141.703
461,0.766433,141.852
462,0.7680670000000001,142.097
463,0.769733,141.986
464,0.7714,141.986
465,0.7730669999999999,141.911
466,0.774733,141.546
467,0.7764,141.732
468,0.778067,141.732
469,0.779733,141.65
470,0.781383,141.799
471,0.78305,141.799
472,0.784717,141.941
473,0.7863830000000001,141.807
474,0.78805,141.911
475,0.789717,141.911
476,0.7913829999999999,141.732
477,0.79305,141.688
478,0.794733,141.554
479,0.796383,141.554
480,0.79805,141.487
481,0.799717,141.844
482,0.801383,141.807
483,0.80305,141.807
484,0.804717,141.762
485,0.806383,142.068
486,0.80805,141.673
487,0.809717,141.673
488,0.811383,141.658
489,0.8130500000000001,141.852
490,0.814717,141.852
491,0.816383,141.464
492,0.8180500000000001,141.636
493,0.819717,141.785
494,0.821383,141.785
495,0.8230499999999999,141.39
496,0.824717,141.405
497,0.826383,141.174
498,0.82805,141.174
499,0.829717,140.935
500,0.831383,140.883
501,0.833133,140.89
502,0.834717,140.89
503,0.836417,141.054
504,0.83805,141.166
505,0.839717,141.166
506,0.841367,141.211
507,0.843033,141.494
508,0.8447,141.524
509,0.846367,141.524
510,0.848033,141.539
511,0.8497,141.807
512,0.851367,141.524
513,0.853033,141.524
514,0.8547,141.695
515,0.856367,141.792
516,0.858033,141.598
517,0.8597,141.598
518,0.861367,141.703
519,0.8630330000000001,141.308
520,0.8647,141.308
521,0.866483,141.345
522,0.8680330000000001,141.412
523,0.8697,141.211
524,0.871367,141.211
525,0.8730329999999999,141.166
526,0.8747,140.861
527,0.876367,141.189
528,0.878033,141.189
529,0.8797,141.196
530,0.881367,141.256
531,0.883033,141.598
532,0.8847,141.598
533,0.886367,141.36
534,0.888033,141.196
535,0.8897,141.509
536,0.891367,141.509
537,0.893033,141.494
538,0.8947000000000001,141.315
539,0.896367,141.315
540,0.898033,141.405
541,0.8997000000000001,140.846
542,0.901367,140.361
543,0.903017,140.361
544,0.904683,140.354
545,0.90635,140.339
546,0.908,140.704
547,0.909717,140.704
548,0.9113329999999999,140.905
549,0.913,141.047
550,0.914667,141.367
551,0.916333,141.367
552,0.918,141.487
553,0.919667,141.732
554,0.921333,141.732
555,0.923,141.606
556,0.9247,141.494
557,0.926333,141.151
558,0.928,141.151
559,0.929667,140.637
560,0.931333,140.347
561,0.9330000000000001,139.929
562,0.934667,139.929
563,0.936333,139.818
564,0.9379999999999999,140.011
565,0.939667,140.175
566,0.941333,140.175
567,0.9429999999999999,140.51
568,0.944667,140.63
569,0.946333,140.66
570,0.948,140.66
571,0.949667,140.883
572,0.951383,140.734
573,0.953,140.734
574,0.954667,140.771
575,0.956333,140.563
576,0.958,140.391
577,0.959667,140.391
578,0.961317,140.458
579,0.962983,140.801
580,0.96465,141.084
581,0.966317,141.084
582,0.967983,141.218
583,0.9696669999999999,141.241
584,0.971317,140.95
585,0.972983,140.95
586,0.97465,140.876
587,0.976317,140.54
588,0.977983,140.54
589,0.97965,140.28
590,0.981317,139.974
591,0.9829830000000001,140.026
592,0.984717,140.026
593,0.986317,140.168
594,0.9879829999999999,140.563
595,0.98965,140.92
596,0.991317,140.92
597,0.9929829999999999,140.697
598,0.99465,140.749
599,0.996317,140.503
600,0.997983,140.503
601,0.99965,140.563
602,1.001317,140.995
603,1.002983,140.98
604,1.00465,140.98
605,1.006317,141.285
606,1.007983,141.092
607,1.00965,141.092
608,1.011317,140.652
609,1.013017,140.533
610,1.01465,140.458
611,1.016317,140.458
612,1.017983,140.488
613,1.01965,140.674
614,1.0213,140.771
615,1.022967,140.771
616,1.024633,140.451
617,1.0263,140.332
618,1.027967,140.421
619,1.029633,140.421
620,1.0313,140.429
621,1.032967,140.801
622,1.034633,140.801
623,1.0363,140.898
624,1.037967,140.719
625,1.039633,140.697
626,1.0413,140.697
627,1.042967,140.421
628,1.044633,140.294
629,1.0463,140.25
630,1.047967,140.25
631,1.049633,140.496
632,1.0513,140.645
633,1.052967,141.062
634,1.054633,141.062
635,1.0563,141.338
636,1.057967,141.285
637,1.059633,141.285
638,1.0613,141.323
639,1.062967,141.032
640,1.064633,140.883
641,1.0663,140.883
642,1.067967,140.622
643,1.069667,140.533
644,1.0713,140.853
645,1.072967,140.853
646,1.074633,140.868
647,1.0763,140.853
648,1.077967,140.719
649,1.079633,140.719
650,1.081283,140.309
651,1.08295,139.885
652,1.084617,139.683
653,1.08635,139.683
654,1.08795,139.616
655,1.089617,139.728
656,1.091283,139.728
657,1.09295,140.056
658,1.09465,140.533
659,1.096283,140.615
660,1.09795,140.615
661,1.099617,140.704
662,1.101283,140.607
663,1.103033,140.324
664,1.104617,140.324
665,1.106283,140.317
666,1.10795,140.011
667,1.109617,140.131
668,1.111283,140.131
669,1.11295,140.227
670,1.114617,140.086
671,1.116283,140.086
672,1.11795,140.421
673,1.119733,140.391
674,1.121283,140.324
675,1.12295,140.324
676,1.124617,140.548
677,1.126283,140.287
678,1.12795,140.287
679,1.129617,140.287
680,1.1313,140.205
681,1.13295,140.123
682,1.134617,140.198
683,1.136283,140.198
684,1.13795,140.131
685,1.139617,140.324
686,1.141267,140.399
687,1.142933,140.399
688,1.1446,140.153
689,1.146267,140.198
690,1.147933,140.198
691,1.1496,139.922
692,1.151267,139.847
693,1.152933,139.914
694,1.1546,139.914
695,1.156267,139.855
696,1.157933,140.19
697,1.1596,140.071
698,1.161267,140.071
699,1.162933,140.369
700,1.1646,140.406
701,1.166267,140.399
702,1.167933,140.399
703,1.1696,140.272
704,1.171267,140.086
705,1.172933,140.086
706,1.1746,139.959
707,1.176267,139.81
708,1.177983,140.16
709,1.1796,140.16
710,1.181267,140.153
711,1.182933,140.183
712,1.1846,140.175
713,1.186267,140.175
714,1.187933,139.862
715,1.1896,139.885
716,1.191267,139.698
717,1.192933,139.698
718,1.1946,139.594
719,1.196267,139.944
720,1.197933,139.996
721,1.199567,139.996
722,1.201233,140.525
723,1.2029,140.585
724,1.204683,140.585
725,1.206233,140.361
726,1.2079,140.466
727,1.209567,140.361
728,1.211233,140.361
729,1.2129,140.302
730,1.214567,140.347
731,1.216233,140.354
732,1.2179,140.354
733,1.219567,140.19
734,1.2213,140.227
735,1.2229,140.093
736,1.224567,140.093
737,1.226233,139.974
738,1.2279,139.832
739,1.229567,139.832
740,1.231233,139.892
741,1.2329,139.847
742,1.234567,139.847
743,1.236233,139.847
744,1.238,140.078
745,1.239567,140.004
746,1.241233,140.026
747,1.2429,140.026
748,1.244567,139.907
749,1.246233,139.661
750,1.2479,139.631
751,1.249567,139.631
752,1.251233,139.907
753,1.2529,140.063
754,1.254567,140.063
755,1.256233,140.056
756,1.2579,140.011
757,1.259567,139.9
758,1.261217,139.9
759,1.262883,139.982
760,1.26455,140.302
761,1.266217,140.317
762,1.267883,140.317
763,1.26955,140.034
764,1.271233,139.706
765,1.2729,139.415
766,1.27455,139.415
767,1.276217,139.423
768,1.277883,139.832
769,1.27955,139.803
770,1.281217,139.803
771,1.282883,139.937
772,1.28455,139.855
773,1.286217,139.855
774,1.287883,139.691
775,1.28955,140.086
776,1.291217,140.287
777,1.292883,140.287
778,1.29455,140.585
779,1.296217,140.458
780,1.297883,140.309
781,1.29955,140.309
782,1.301217,140.317
783,1.302883,140.16
784,1.30455,140.198
785,1.306217,140.198
786,1.307883,140.153
787,1.30955,140.004
788,1.311217,140.004
789,1.312883,140.063
790,1.31455,140.086
791,1.316217,140.369
792,1.317883,140.369
793,1.319533,140.131
794,1.3212,139.914
795,1.322917,139.9
796,1.324533,139.9
797,1.3262,139.542
798,1.327867,139.594
799,1.329533,139.669
800,1.3312,139.669
801,1.332867,139.847
802,1.334533,139.929
803,1.3362,139.87
804,1.337867,139.87
805,1.339583,139.803
806,1.341217,139.825
807,1.342867,139.825
808,1.344533,139.907
809,1.3462,140.242
810,1.347867,140.496
811,1.349533,140.496
812,1.3512,140.391
813,1.352867,140.324
814,1.354533,140.004
815,1.356317,140.004
816,1.357867,139.78
817,1.359533,139.944
818,1.3612,139.818
819,1.362867,139.818
820,1.364533,139.996
821,1.3662,140.131
822,1.367867,140.131
823,1.369533,139.959
824,1.3712,140.153
825,1.372867,140.25
826,1.374533,140.25
827,1.3762,140.451
828,1.377867,140.585
829,1.379517,140.548
830,1.381183,140.548
831,1.38285,140.429
832,1.384517,140.063
833,1.386183,139.691
834,1.38785,139.691
835,1.389517,139.423
836,1.391183,139.162
837,1.39285,139.356
838,1.394517,139.356
839,1.396183,139.587
840,1.39785,139.639
841,1.399517,139.639
842,1.401183,139.646
843,1.40285,139.847
844,1.404517,139.967
845,1.406183,139.967
846,1.407867,139.929
847,1.409517,140.227
848,1.411183,140.034
849,1.41285,140.034
850,1.414517,140.093
851,1.416183,140.086
852,1.41785,139.982
853,1.419517,139.982
854,1.421183,139.669
855,1.42285,139.602
856,1.42455,139.602
857,1.4262,139.728
858,1.42785,139.676
859,1.429517,139.736
860,1.431183,139.736
861,1.43285,139.788
862,1.434517,139.765
863,1.436183,140.011
864,1.43785,140.011
865,1.4395,140.309
866,1.441167,140.25
867,1.442833,140.063
868,1.4445,140.063
869,1.446167,140.011
870,1.447833,140.235
871,1.4495,140.235
872,1.451167,140.168
873,1.452833,140.414
874,1.4545,140.168
875,1.456167,140.168
876,1.457833,139.706
877,1.4595,139.602
878,1.461167,139.438
879,1.462833,139.438
880,1.4645,139.482
881,1.466167,139.512
882,1.467833,139.445
883,1.4695,139.445
884,1.471167,139.646
885,1.472833,139.743
886,1.474617,139.974
887,1.476167,139.974
888,1.477833,140.212
889,1.4795,139.818
890,1.481167,139.818
891,1.482833,139.669
892,1.4845,139.698
893,1.486167,139.549
894,1.487833,139.549
895,1.489483,140.116
896,1.49115,140.533
897,1.492817,140.369
898,1.494483,140.369
899,1.49615,140.674
900,1.497817,140.66
901,1.499467,140.57
902,1.501133,140.57
903,1.5028,140.645
904,1.504467,140.063
905,1.506133,140.063
906,1.5078,139.765
907,1.509467,139.758
908,1.511133,139.885
909,1.5128,139.885
910,1.514467,140.294
911,1.516133,140.101
912,1.517833,139.832
913,1.519467,139.832
914,1.521133,139.497
915,1.5228,139.222
916,1.524467,139.341
917,1.526133,139.341
918,1.5278,139.371
919,1.529467,139.609
920,1.531133,139.996
921,1.5328,139.996
922,1.534467,140.19
923,1.536133,140.302
924,1.5378,140.302
925,1.539467,140.145
926,1.541133,139.967
927,1.5428,139.892
928,1.544467,139.892
929,1.546133,139.989
930,1.5478,139.892
931,1.549467,139.736
932,1.551133,139.736
933,1.5528,139.713
934,1.5545,139.371
935,1.556133,139.408
936,1.5578,139.408
937,1.559517,139.475
938,1.561117,139.594
939,1.562783,139.594
940,1.56445,139.609
941,1.566117,139.847
942,1.567783,139.751
943,1.56945,139.751
944,1.571117,139.602
945,1.572783,139.497
946,1.57445,139.274
947,1.576117,139.274
948,1.577783,139.579
949,1.57945,139.892
950,1.581117,140.205
951,1.582783,140.205
952,1.58445,140.384
953,1.586117,140.183
954,1.587783,139.855
955,1.58945,139.855
956,1.591117,139.646
957,1.592833,139.542
958,1.59445,139.542
