"ID","sea_time","fid_signal"
1,0,1163.11
2,0.001667,1162.216
3,0.003333,1162.589
4,0.004983,1163.632
5,0.006633,1163.632
6,0.008317,1159.534
7,0.009983000000000001,1160.577
8,0.011633,1161.024
9,0.0133,1161.024
10,0.014967,1160.353
11,0.016633,1161.993
12,0.0183,1161.993
13,0.02,1161.173
14,0.021633,1164.004
15,0.02335,1165.047
16,0.024967,1165.047
17,0.026633,1168.847
18,0.0283,1170.635
19,0.029967,1170.635
20,0.031633,1170.635
21,0.0333,1169.741
22,0.034967,1166.016
23,0.036633,1164.079
24,0.038333,1164.079
25,0.039967,1162.589
26,0.041633,1167.059
27,0.0433,1167.059
28,0.044967,1167.729
29,0.046633,1168.847
30,0.0483,1167.804
31,0.049967,1167.804
32,0.051633,1163.408
33,0.0533,1164.973
34,0.054967,1163.483
35,0.05675,1163.483
36,0.0583,1163.557
37,0.059967,1164.377
38,0.061633,1164.824
39,0.0633,1164.824
40,0.064967,1166.016
41,0.066633,1169.518
42,0.0683,1171.604
43,0.069967,1171.604
44,0.071617,1172.721
45,0.073283,1175.702
46,0.07495,1175.702
47,0.076617,1171.976
48,0.07828300000000001,1168.698
49,0.07994999999999999,1166.09
50,0.081617,1166.09
51,0.083283,1165.047
52,0.08495,1164.973
53,0.086617,1167.804
54,0.088283,1167.804
55,0.08995,1166.165
56,0.091617,1164.079
57,0.093317,1167.804
58,0.09495000000000001,1167.804
59,0.09661699999999999,1166.91
60,0.098283,1167.506
61,0.09995,1167.506
62,0.101617,1166.984
63,0.103283,1164.377
64,0.10495,1162.812
65,0.106617,1162.812
66,0.108283,1161.993
67,0.10995,1163.334
68,0.111617,1162.812
69,0.113283,1162.812
70,0.11495,1166.165
71,0.116617,1167.58
72,0.118283,1166.91
73,0.119983,1166.91
74,0.121617,1168.4
75,0.123283,1166.314
76,0.12495,1165.792
77,0.126617,1165.792
78,0.128283,1164.228
79,0.12995,1164.377
80,0.1316,1164.377
81,0.133267,1162.589
82,0.134933,1160.279
83,0.1366,1160.949
84,0.138267,1160.949
85,0.139933,1159.236
86,0.141667,1159.236
87,0.143267,1161.247
88,0.144933,1161.247
89,0.1466,1159.906
90,0.148267,1161.173
91,0.149933,1163.483
92,0.151617,1163.483
93,0.153267,1164.302
94,0.154933,1166.239
95,0.1566,1166.239
96,0.158267,1164.675
97,0.159933,1160.651
98,0.1616,1159.981
99,0.163267,1159.981
100,0.164933,1158.64
101,0.166633,1159.534
102,0.168267,1163.259
103,0.169933,1163.259
104,0.1716,1167.282
105,0.173267,1169.816
106,0.175017,1172.125
107,0.1766,1172.125
108,0.178267,1174.882
109,0.179933,1171.306
110,0.1816,1171.306
111,0.183267,1172.2
112,0.184933,1170.039
113,0.1866,1166.239
114,0.188267,1166.239
115,0.189917,1169.592
116,0.191583,1168.847
117,0.19325,1168.624
118,0.194917,1168.624
119,0.196583,1168.4
120,0.19825,1167.357
121,0.199917,1163.11
122,0.201583,1163.11
123,0.20325,1160.204
124,0.204917,1160.428
125,0.206583,1157.299
126,0.20825,1157.299
127,0.209917,1161.024
128,0.211583,1164.675
129,0.21325,1164.675
130,0.214933,1166.835
131,0.216583,1174.435
132,0.21825,1182.035
133,0.219917,1182.035
134,0.221583,1191.944
135,0.22325,1209.825
136,0.224917,1229.495
137,0.226583,1229.495
138,0.22825,1253.56
139,0.229917,1289.472
140,0.231583,1331.493
141,0.23325,1331.493
142,0.234917,1379.922
143,0.236583,1440.57
144,0.23825,1440.57
145,0.23995,1500.323
146,0.241583,1562.983
147,0.24325,1631.23
148,0.244917,1631.23
149,0.246583,1698.285
150,0.24825,1768.395
151,0.249917,1837.388
152,0.251567,1837.388
153,0.253233,1906.678
154,0.2549,1973.584
155,0.256567,2043.471
156,0.258233,2043.471
157,0.2599,2114.251
158,0.261567,2184.883
159,0.263233,2255.663
160,0.2649,2255.663
161,0.266567,2323.538
162,0.268233,2390.966
163,0.2699,2390.966
164,0.271567,2461.299
165,0.273233,2536.029
166,0.2749,2614.334
167,0.276633,2614.334
168,0.278233,2695.546
169,0.2799,2775.714
170,0.281567,2858.639
171,0.283233,2858.639
172,0.2849,2942.011
173,0.286567,3026.798
174,0.288233,3116.354
175,0.2899,3116.354
176,0.291567,3209.04
177,0.293283,3309.026
178,0.294883,3309.026
179,0.29655,3415.272
180,0.298217,3526.285
181,0.299917,3642.738
182,0.30155,3642.738
183,0.303217,3763.437
184,0.304883,3894.642
185,0.30655,4031.956
186,0.308217,4031.956
187,0.309867,4176.572
188,0.311533,4332.662
189,0.3132,4494.041
190,0.314867,4494.041
191,0.31655,4665.852
192,0.31825,4858.002
193,0.319867,5076.453
194,0.321533,5076.453
195,0.3232,5338.341
196,0.324867,5666.464
197,0.32655,5666.464
198,0.3282,6083.026
199,0.329867,6610.751
200,0.331533,7268.265
201,0.3332,7268.265
202,0.334867,8054.525
203,0.336533,8948.967000000001
204,0.3382,9909.718999999999
205,0.339867,9909.718999999999
206,0.341533,10868.534
207,0.3432,11744.648
208,0.344867,12462.959
209,0.346533,12462.959
210,0.3482,12961.402
211,0.349867,13198.703
212,0.351533,13198.703
213,0.3532,13164.654
214,0.354867,12876.689
215,0.356533,12363.866
216,0.3582,12363.866
217,0.359867,11681.542
218,0.361533,10882.914
219,0.3632,10011.718
220,0.364867,10011.718
221,0.366533,9122.789000000001
222,0.3682,8245.036
223,0.36985,7410.422
224,0.371517,7410.422
225,0.373183,6633.177
226,0.374867,5922.616
227,0.376567,5285.591
228,0.37825,5285.591
229,0.37985,4719.421
230,0.381517,4226.491
231,0.383183,4226.491
232,0.38485,3792.792
233,0.386517,3416.166
234,0.388183,3090.948
235,0.38985,3090.948
236,0.391517,2812.594
237,0.393183,2579.466
238,0.394917,2380.013
239,0.396517,2380.013
240,0.398183,2208.576
241,0.39985,2059.862
242,0.401517,1933.351
243,0.403183,1933.351
244,0.40485,1826.212
245,0.406517,1736.283
246,0.408183,1736.283
247,0.40985,1663.938
248,0.411583,1596.361
249,0.413183,1541.078
250,0.41485,1541.078
251,0.416517,1493.618
252,0.418183,1445.934
253,0.41985,1410.693
254,0.421517,1410.693
255,0.423183,1377.761
256,0.42485,1352.28
257,0.426517,1333.132
258,0.428183,1333.132
259,0.42985,1316.592
260,0.4315,1301.467
261,0.433167,1301.467
262,0.434833,1284.406
263,0.4365,1273.602
264,0.438167,1261.607
265,0.439833,1261.607
266,0.4415,1251.25
267,0.443167,1242.682
268,0.444833,1232.55
269,0.4465,1232.55
270,0.448167,1225.919
271,0.449833,1219.809
272,0.451533,1219.958
273,0.453167,1219.958
274,0.454833,1218.095
275,0.4565,1217.276
276,0.458167,1216.009
277,0.459833,1216.009
278,0.4615,1209.751
279,0.463167,1204.312
280,0.464833,1204.312
281,0.4665,1196.191
282,0.468167,1194.626
283,0.469833,1193.359
284,0.4715,1193.359
285,0.473167,1193.359
286,0.474833,1194.701
287,0.4765,1194.328
288,0.478167,1194.328
289,0.479833,1193.062
290,0.4815,1193.732
291,0.483167,1192.465
292,0.484833,1192.465
293,0.4865,1189.858
294,0.488167,1190.752
295,0.489817,1190.752
296,0.491483,1190.901
297,0.49315,1193.21
298,0.494817,1192.167
299,0.496483,1192.167
300,0.49815,1189.411
301,0.499817,1187.921
302,0.501483,1184.046
303,0.50315,1184.046
304,0.504817,1184.94
305,0.506483,1186.356
306,0.50815,1183.748
307,0.509817,1183.748
308,0.511483,1185.015
309,0.5132,1184.94
310,0.514817,1183.227
311,0.516483,1183.227
312,0.51815,1183.897
313,0.519817,1181.588
314,0.521483,1181.588
315,0.523183,1179.576
316,0.524817,1176.372
317,0.526533,1173.988
318,0.52815,1173.988
319,0.529833,1171.38
320,0.531483,1170.933
321,0.53315,1174.882
322,0.534817,1174.882
323,0.536483,1176.223
324,0.53815,1175.925
325,0.539817,1175.329
326,0.541483,1175.329
327,0.54315,1173.69
328,0.544817,1173.392
329,0.5466,1179.576
330,0.54815,1179.576
331,0.5498,1179.203
332,0.551467,1181.439
333,0.553133,1181.439
334,0.554817,1182.184
335,0.556467,1177.341
336,0.558133,1178.831
337,0.5598,1178.831
338,0.561467,1177.266
339,0.563133,1176.745
340,0.5648,1175.329
341,0.5664670000000001,1175.329
342,0.568133,1173.019
343,0.5698,1169.89
344,0.5714669999999999,1170.784
345,0.573133,1170.784
346,0.5748,1175.478
347,0.576467,1176.894
348,0.578133,1176.894
349,0.5798,1179.129
350,0.581467,1178.235
351,0.583133,1177.937
352,0.5848,1177.937
353,0.58645,1178.682
354,0.588117,1179.799
355,0.5897829999999999,1179.948
356,0.59145,1179.948
357,0.593117,1176.298
358,0.594783,1173.913
359,0.59645,1171.008
360,0.598117,1171.008
361,0.599817,1171.455
362,0.60145,1173.839
363,0.603133,1173.839
364,0.604783,1173.168
365,0.60645,1171.529
366,0.608117,1170.486
367,0.6097669999999999,1170.486
368,0.611433,1166.984
369,0.6131,1170.337
370,0.614767,1170.859
371,0.616433,1170.859
372,0.6181,1166.761
373,0.619767,1168.027
374,0.621433,1168.326
375,0.6231,1168.326
376,0.624767,1173.392
377,0.626433,1178.682
378,0.6281,1178.682
379,0.629767,1178.458
380,0.631433,1177.415
381,0.6331,1172.87
382,0.634767,1172.87
383,0.636433,1170.486
384,0.6381,1171.082
385,0.639767,1169.741
386,0.641433,1169.741
387,0.6431,1172.051
388,0.644767,1172.572
389,0.646433,1172.125
390,0.6481,1172.125
391,0.649767,1175.478
392,0.651433,1173.243
393,0.6531,1171.455
394,0.654767,1171.455
395,0.656433,1169.443
396,0.6581,1166.388
397,0.659767,1166.388
398,0.661433,1166.761
399,0.6631,1170.933
400,0.664883,1175.925
401,0.6664330000000001,1175.925
402,0.668083,1175.553
403,0.66975,1175.329
404,0.671417,1173.466
405,0.673083,1173.466
406,0.67475,1169.294
407,0.676417,1167.879
408,0.678083,1168.549
409,0.679817,1168.549
410,0.6814170000000001,1168.102
411,0.683083,1170.114
412,0.68475,1170.114
413,0.6864170000000001,1171.38
414,0.688083,1172.349
415,0.68975,1170.635
416,0.6914169999999999,1170.635
417,0.693083,1170.635
418,0.69475,1168.847
419,0.69645,1164.973
420,0.698083,1164.973
421,0.69975,1164.004
422,0.701417,1163.855
423,0.703083,1166.165
424,0.70475,1166.165
425,0.706417,1167.804
426,0.708083,1170.561
427,0.70975,1172.125
428,0.711417,1172.125
429,0.713083,1171.157
430,0.71475,1172.87
431,0.716417,1172.87
432,0.718083,1170.486
433,0.71975,1169.965
434,0.721417,1172.051
435,0.723083,1172.051
436,0.72475,1172.647
437,0.726417,1174.957
438,0.728083,1172.647
439,0.72975,1172.647
440,0.7314000000000001,1169.443
441,0.733067,1168.698
442,0.734733,1167.879
443,0.7364000000000001,1167.879
444,0.738067,1168.326
445,0.739733,1168.027
446,0.7413999999999999,1168.027
447,0.743067,1166.016
448,0.744767,1167.58
449,0.7464,1166.761
450,0.748067,1166.761
451,0.7498,1168.027
452,0.7514,1168.475
453,0.753067,1165.494
454,0.754733,1165.494
455,0.7564,1169.071
456,0.758067,1169.369
457,0.759733,1168.996
458,0.7614,1168.996
459,0.7630670000000001,1170.561
460,0.764733,1166.686
461,0.7664,1166.314
462,0.7680670000000001,1166.314
463,0.769733,1166.165
464,0.7714,1165.122
465,0.7730669999999999,1165.122
466,0.774733,1165.122
467,0.7764,1164.228
468,0.778067,1164.153
469,0.779733,1164.153
470,0.7814,1163.855
471,0.783183,1167.357
472,0.784733,1167.58
473,0.7864,1167.58
474,0.788067,1168.027
475,0.789717,1170.933
476,0.7913829999999999,1169.667
477,0.79305,1169.667
478,0.794717,1174.36
479,0.796383,1176.223
480,0.79805,1176.223
481,0.799717,1173.615
482,0.801383,1171.008
483,0.80305,1163.781
484,0.804717,1163.781
485,0.806383,1161.024
486,0.80805,1159.757
487,0.809717,1160.353
488,0.811383,1160.353
489,0.8130500000000001,1163.11
490,0.814717,1165.867
491,0.816383,1168.4
492,0.8180500000000001,1168.4
493,0.819717,1170.263
494,0.821383,1170.039
495,0.823083,1168.102
496,0.824717,1168.102
497,0.826383,1168.102
498,0.82805,1166.537
499,0.829717,1166.537
500,0.831383,1165.643
501,0.83305,1165.047
502,0.834717,1164.079
503,0.836383,1164.079
504,0.83805,1164.451
505,0.839717,1168.177
506,0.841383,1169.89
507,0.84305,1169.89
508,0.8447170000000001,1169.22
509,0.846383,1170.486
510,0.84805,1170.71
511,0.8497,1170.71
512,0.851367,1169.294
513,0.853033,1168.773
514,0.8547,1168.773
515,0.856367,1166.239
516,0.858033,1163.855
517,0.859733,1165.494
518,0.861367,1165.494
519,0.8630330000000001,1167.804
520,0.8647,1171.902
521,0.866367,1171.902
522,0.8681,1171.902
523,0.8697,1170.933
524,0.871367,1171.231
525,0.8730329999999999,1166.239
526,0.8747,1166.239
527,0.876367,1165.494
528,0.878017,1166.612
529,0.879683,1166.612
530,0.88135,1167.357
531,0.8830170000000001,1171.678
532,0.884683,1171.827
533,0.88635,1171.827
534,0.8880169999999999,1170.859
535,0.889683,1170.263
536,0.89135,1168.177
537,0.8930169999999999,1168.177
538,0.894717,1166.761
539,0.89635,1166.537
540,0.898017,1163.557
541,0.899683,1163.557
542,0.901467,1163.93
543,0.903017,1168.102
544,0.904683,1169.22
545,0.90635,1169.22
546,0.908017,1169.89
547,0.909667,1169.518
548,0.9113329999999999,1169.518
549,0.913,1165.718
550,0.914667,1160.726
551,0.916333,1159.906
552,0.918,1159.906
553,0.919667,1162.887
554,0.921333,1163.483
555,0.923,1166.463
556,0.924667,1166.463
557,0.926333,1169.518
558,0.928,1168.251
559,0.929667,1172.051
560,0.931333,1172.051
561,0.9330000000000001,1174.807
562,0.934667,1174.286
563,0.936333,1174.286
564,0.9379999999999999,1174.584
565,0.939667,1170.114
566,0.941333,1166.165
567,0.9429999999999999,1166.165
568,0.944667,1165.718
569,0.94635,1166.612
570,0.948,1171.678
571,0.949667,1171.678
572,0.951333,1175.925
573,0.953,1177.564
574,0.954667,1174.957
575,0.956333,1174.957
576,0.958017,1169.816
577,0.959667,1166.761
578,0.961333,1166.761
579,0.963,1163.11
580,0.9646670000000001,1164.377
581,0.966333,1167.208
582,0.968017,1167.208
583,0.96965,1168.102
584,0.971317,1170.859
585,0.972983,1171.38
586,0.97465,1171.38
587,0.976317,1170.784
588,0.977983,1171.306
589,0.97965,1168.996
590,0.981317,1168.996
591,0.9829830000000001,1164.898
592,0.98465,1162.514
593,0.986367,1162.291
594,0.9879829999999999,1162.291
595,0.98965,1165.345
596,0.991317,1166.314
597,0.9929829999999999,1166.314
598,0.99465,1165.494
599,0.996317,1164.302
600,0.997983,1157.895
601,0.99965,1157.895
602,1.001317,1157.075
603,1.00305,1157.746
604,1.00465,1157.895
605,1.006317,1157.895
606,1.007983,1161.695
607,1.00965,1161.322
608,1.011317,1162.514
609,1.012983,1162.514
610,1.01465,1162.291
611,1.016317,1161.844
612,1.017983,1161.844
613,1.019733,1166.835
614,1.021317,1170.561
615,1.022983,1171.604
616,1.02465,1171.604
617,1.026317,1170.635
618,1.027983,1166.686
619,1.029633,1164.079
620,1.0313,1164.079
621,1.032967,1164.6
622,1.034633,1168.847
623,1.0363,1168.251
624,1.037967,1168.251
625,1.039633,1167.729
626,1.041333,1167.879
627,1.042967,1164.973
628,1.04465,1164.973
629,1.0463,1164.749
630,1.047967,1166.612
631,1.049633,1166.612
632,1.0513,1165.196
633,1.052967,1164.153
634,1.054633,1164.675
635,1.0563,1164.675
636,1.057967,1162.514
637,1.059633,1161.247
638,1.0613,1161.546
639,1.062967,1161.546
640,1.064633,1162.44
641,1.0663,1164.824
642,1.067967,1166.984
643,1.069633,1166.984
644,1.0713,1167.357
645,1.072967,1166.388
646,1.074633,1166.388
647,1.0763,1163.334
648,1.077967,1163.11
649,1.079633,1165.196
650,1.0813,1165.196
651,1.082967,1167.208
652,1.084633,1166.612
653,1.0863,1165.196
654,1.08795,1165.196
655,1.089617,1164.526
656,1.091283,1165.643
657,1.09295,1166.984
658,1.094617,1166.984
659,1.096283,1168.4
660,1.09795,1169.145
661,1.099617,1169.667
662,1.101283,1169.667
663,1.10295,1172.125
664,1.104667,1174.063
665,1.106283,1174.063
666,1.107967,1170.71
667,1.109617,1167.208
668,1.111283,1164.302
669,1.11295,1164.302
670,1.114617,1161.322
671,1.116283,1164.079
672,1.11795,1168.251
673,1.119617,1168.251
674,1.1214,1169.071
675,1.12295,1169.369
676,1.124617,1164.377
677,1.126283,1164.377
678,1.12795,1161.024
679,1.129617,1163.036
680,1.131283,1163.036
681,1.13295,1166.388
682,1.134617,1171.753
683,1.136283,1175.106
684,1.138033,1175.106
685,1.139617,1175.329
686,1.141283,1172.498
687,1.14295,1171.008
688,1.144617,1171.008
689,1.146283,1163.93
690,1.147933,1159.683
691,1.1496,1158.267
692,1.151267,1158.267
693,1.152933,1157.597
694,1.154667,1163.259
695,1.156267,1167.208
696,1.157933,1167.208
697,1.1596,1170.263
698,1.161267,1171.902
699,1.162933,1171.902
700,1.1646,1169.145
701,1.166267,1165.718
702,1.167933,1166.612
703,1.169583,1166.612
704,1.17125,1164.824
705,1.172917,1165.345
706,1.174583,1166.09
707,1.17625,1166.09
708,1.177917,1162.887
709,1.179583,1162.663
710,1.18125,1165.047
711,1.182917,1165.047
712,1.184583,1167.282
713,1.1863,1169.22
714,1.187917,1169.22
715,1.189583,1171.008
716,1.19125,1167.953
717,1.192917,1167.879
718,1.194583,1167.879
719,1.19625,1166.984
720,1.197917,1167.133
721,1.199583,1170.188
722,1.20125,1170.188
723,1.202917,1167.655
724,1.204617,1168.326
725,1.20625,1165.941
726,1.207917,1165.941
727,1.209567,1166.612
728,1.211233,1168.996
729,1.2129,1168.996
730,1.214567,1166.09
731,1.216233,1168.326
732,1.2179,1164.526
733,1.219567,1164.526
734,1.221233,1163.781
735,1.222917,1164.898
736,1.224567,1163.259
737,1.226233,1163.259
738,1.2279,1165.122
739,1.229567,1165.271
740,1.231233,1168.996
741,1.2329,1168.996
742,1.234567,1168.996
743,1.236233,1170.039
744,1.2379,1168.4
745,1.239583,1168.4
746,1.241233,1167.506
747,1.2429,1168.027
748,1.244567,1168.027
749,1.246233,1168.698
750,1.2479,1172.572
751,1.249567,1173.243
752,1.251233,1173.243
753,1.2529,1172.051
754,1.254567,1167.432
755,1.25635,1165.122
756,1.2579,1165.122
757,1.259567,1164.6
758,1.261233,1164.675
759,1.2629,1168.027
760,1.264567,1168.027
761,1.266233,1167.133
762,1.267883,1164.675
763,1.26955,1164.675
764,1.271217,1164.898
765,1.273,1161.769
766,1.27455,1161.62
767,1.276217,1161.62
768,1.277883,1159.459
769,1.27955,1161.769
770,1.281217,1168.251
771,1.282883,1168.251
772,1.28455,1167.133
773,1.286217,1168.773
774,1.287883,1168.996
775,1.28955,1168.996
776,1.291217,1163.557
777,1.292883,1165.196
778,1.29455,1165.718
779,1.296217,1165.718
780,1.2979,1162.738
781,1.29955,1163.11
782,1.301217,1163.11
783,1.302883,1163.706
784,1.30455,1162.812
785,1.306217,1167.282
786,1.307883,1167.282
787,1.30955,1168.847
788,1.311217,1171.827
789,1.312883,1172.274
790,1.31455,1172.274
791,1.316217,1171.976
792,1.317883,1168.922
793,1.31955,1163.557
794,1.321217,1163.557
795,1.322883,1165.345
796,1.32455,1162.887
797,1.326217,1162.887
798,1.327917,1168.102
799,1.329533,1170.933
800,1.3312,1169.741
801,1.332867,1169.741
802,1.334533,1167.133
803,1.3362,1164.6
804,1.337867,1163.334
805,1.339533,1163.334
806,1.3412,1162.812
807,1.342867,1163.706
808,1.344533,1161.322
809,1.3462,1161.322
810,1.347867,1163.11
811,1.349533,1163.632
812,1.3512,1165.643
813,1.352867,1165.643
814,1.354533,1166.09
815,1.3562,1166.388
816,1.3579,1166.388
817,1.359533,1167.655
818,1.361217,1169.294
819,1.362867,1172.796
820,1.364533,1172.796
821,1.3662,1169.592
822,1.367867,1167.804
823,1.369533,1168.549
824,1.3712,1168.549
825,1.372867,1165.42
826,1.374583,1168.4
827,1.3762,1168.475
828,1.377867,1168.475
829,1.379533,1165.643
830,1.381217,1166.09
831,1.3829,1166.09
832,1.384533,1162.738
833,1.3862,1161.695
834,1.38785,1161.844
835,1.389517,1161.844
836,1.3913,1162.365
837,1.39285,1164.898
838,1.394517,1167.655
839,1.396183,1167.655
840,1.39785,1170.263
841,1.399517,1170.412
842,1.401183,1168.102
843,1.40285,1168.102
844,1.404567,1165.271
845,1.406183,1161.695
846,1.40785,1161.695
847,1.409517,1160.055
848,1.411183,1158.863
849,1.41285,1160.204
850,1.414517,1160.204
851,1.416183,1161.322
852,1.41785,1163.259
853,1.419517,1164.749
854,1.421183,1164.749
855,1.42285,1163.259
856,1.424517,1163.185
857,1.426183,1162.738
858,1.42785,1162.738
859,1.429517,1165.643
860,1.431183,1170.933
861,1.43285,1173.988
862,1.434517,1173.988
863,1.436183,1174.286
864,1.43785,1171.604
865,1.439517,1171.604
866,1.441183,1167.953
867,1.44285,1165.867
868,1.444517,1164.675
869,1.446183,1164.675
870,1.447833,1164.973
871,1.4495,1164.004
872,1.451167,1161.099
873,1.452833,1161.099
874,1.4545,1162.887
875,1.456167,1162.812
876,1.457833,1161.62
877,1.4595,1161.62
878,1.46115,1162.44
879,1.46285,1161.396
880,1.464483,1161.396
881,1.46615,1162.067
882,1.467833,1165.122
883,1.469483,1167.506
884,1.47115,1167.506
885,1.472817,1166.984
886,1.474483,1165.122
887,1.47615,1164.153
888,1.477817,1164.153
889,1.479483,1162.663
890,1.48115,1162.961
891,1.482817,1164.898
892,1.484483,1164.898
893,1.48615,1166.537
894,1.487817,1168.624
895,1.489483,1167.282
896,1.49115,1167.282
897,1.492817,1165.718
898,1.494483,1163.11
899,1.49615,1163.11
900,1.497817,1162.514
901,1.499483,1165.047
902,1.50115,1167.208
903,1.502817,1167.208
904,1.504483,1167.357
905,1.50615,1164.228
906,1.5078,1165.271
907,1.509583,1165.271
908,1.511133,1164.749
909,1.5128,1166.016
910,1.514467,1167.953
911,1.516133,1167.953
912,1.5178,1165.867
913,1.519467,1162.887
914,1.521133,1162.887
915,1.5228,1160.875
916,1.524467,1159.608
917,1.526133,1161.396
918,1.5278,1161.396
