"ID","sea_time","fid_signal"
1,0,1165.569
2,0.001667,1166.835
3,0.003333,1168.326
4,0.005,1170.188
5,0.006667,1170.188
6,0.008333,1172.498
7,0.01,1172.647
8,0.011667,1172.647
9,0.013333,1171.157
10,0.015,1171.902
11,0.016667,1169.22
12,0.018333,1169.22
13,0.02,1165.569
14,0.0217,1168.027
15,0.023333,1166.686
16,0.025,1166.686
17,0.026667,1166.239
18,0.028367,1169.443
19,0.03,1166.761
20,0.031667,1166.761
21,0.033333,1168.475
22,0.035033,1168.475
23,0.036667,1168.475
24,0.038333,1166.09
25,0.04,1165.122
26,0.041667,1162.067
27,0.043333,1162.067
28,0.04505,1161.769
29,0.046667,1164.079
30,0.048333,1166.761
31,0.05,1166.761
32,0.051667,1168.624
33,0.053333,1167.953
34,0.055,1167.804
35,0.056667,1167.804
36,0.058333,1165.196
37,0.06,1163.706
38,0.061767,1163.632
39,0.063317,1163.632
40,0.064983,1160.428
41,0.06665,1163.036
42,0.068317,1163.036
43,0.069983,1164.377
44,0.07165000000000001,1166.165
45,0.07331699999999999,1168.177
46,0.07498299999999999,1168.177
47,0.07665,1164.377
48,0.078417,1162.738
49,0.079983,1162.589
50,0.08165,1162.589
51,0.083317,1162.067
52,0.084983,1162.365
53,0.08665,1164.6
54,0.08831700000000001,1164.6
55,0.08998299999999999,1167.208
56,0.09165,1169.592
57,0.093317,1169.592
58,0.094983,1170.039
59,0.09665,1169.518
60,0.098317,1166.761
61,0.1,1166.761
62,0.10165,1164.824
63,0.103317,1165.42
64,0.104983,1164.079
65,0.10665,1164.079
66,0.108317,1166.239
67,0.109983,1166.388
68,0.11165,1170.337
69,0.113317,1170.337
70,0.114983,1169.145
71,0.11665,1166.09
72,0.118317,1165.196
73,0.119967,1165.196
74,0.121667,1164.451
75,0.1233,1165.047
76,0.124967,1165.047
77,0.126633,1164.749
78,0.1283,1167.133
79,0.129967,1163.11
80,0.131633,1163.11
81,0.1333,1163.036
82,0.134967,1166.835
83,0.136633,1168.027
84,0.1383,1168.027
85,0.139967,1171.753
86,0.141633,1171.976
87,0.1433,1170.188
88,0.144967,1170.188
89,0.146633,1169.443
90,0.1483,1166.016
91,0.149967,1166.016
92,0.151633,1168.549
93,0.1533,1167.655
94,0.154967,1165.271
95,0.156633,1165.271
96,0.1583,1165.42
97,0.159967,1164.898
98,0.161633,1165.643
99,0.163367,1165.643
100,0.164967,1166.165
101,0.166633,1166.91
102,0.1683,1165.643
103,0.17,1165.643
104,0.171633,1166.761
105,0.1733,1166.686
106,0.174967,1168.027
107,0.176633,1168.027
108,0.1783,1170.784
109,0.180033,1168.102
110,0.181617,1168.102
111,0.183283,1169.145
112,0.18495,1166.612
113,0.186617,1165.196
114,0.188283,1165.196
115,0.18995,1166.537
116,0.191617,1166.612
117,0.193283,1168.698
118,0.19495,1168.698
119,0.196717,1170.561
120,0.198283,1174.137
121,0.19995,1174.957
122,0.201617,1174.957
123,0.203283,1173.168
124,0.204933,1172.423
125,0.2066,1172.423
126,0.208267,1168.102
127,0.209933,1164.973
128,0.2116,1165.271
129,0.213267,1165.271
130,0.214933,1164.675
131,0.216617,1164.675
132,0.218267,1166.537
133,0.219933,1166.537
134,0.2216,1167.506
135,0.223267,1167.953
136,0.224933,1171.902
137,0.2266,1171.902
138,0.228267,1175.031
139,0.229933,1181.29
140,0.2316,1181.29
141,0.233267,1188.666
142,0.234933,1195.297
143,0.2366,1209.751
144,0.238267,1209.751
145,0.239917,1223.981
146,0.241583,1240.82
147,0.24325,1260.34
148,0.244933,1260.34
149,0.246633,1278.222
150,0.24825,1300.797
151,0.249917,1326.427
152,0.251583,1326.427
153,0.25325,1355.261
154,0.254917,1385.882
155,0.256583,1418.069
156,0.25825,1418.069
157,0.259917,1451.224
158,0.261583,1483.262
159,0.26325,1483.262
160,0.264933,1513.362
161,0.266583,1545.325
162,0.26825,1575.351
163,0.269917,1575.351
164,0.271583,1610.741
165,0.27325,1644.79
166,0.274917,1677.275
167,0.276583,1677.275
168,0.27825,1714.23
169,0.279917,1747.012
170,0.281667,1785.159
171,0.28325,1785.159
172,0.284917,1822.487
173,0.286583,1856.908
174,0.28825,1856.908
175,0.289917,1896.396
176,0.291583,1933.947
177,0.29325,1973.957
178,0.294917,1973.957
179,0.296583,2015.829
180,0.298317,2055.243
181,0.299917,2100.542
182,0.301567,2100.542
183,0.303233,2144.65
184,0.3049,2193.525
185,0.306567,2244.785
186,0.308233,2244.785
187,0.3099,2295.896
188,0.311567,2352.074
189,0.313233,2409.145
190,0.315017,2409.145
191,0.316567,2471.358
192,0.318233,2537.519
193,0.319917,2537.519
194,0.321567,2609.566
195,0.323233,2696.067
196,0.3249,2809.54
197,0.326567,2809.54
198,0.328233,2970.621
199,0.3299,3215.149
200,0.331567,3586.411
201,0.333233,3586.411
202,0.3349,4142.076
203,0.336567,4935.786
204,0.338233,6008.074
205,0.3399,6008.074
206,0.341567,7368.55
207,0.343233,8992.105
208,0.3449,8992.105
209,0.346567,10806.471
210,0.348233,12706.295
211,0.3499,14561.266
212,0.351567,14561.266
213,0.353233,16226.023
214,0.3549,17585.605
215,0.356567,18547.625
216,0.358233,18547.625
217,0.359883,19070.654
218,0.36155,19155.891
219,0.363217,18844.381
220,0.364883,18844.381
221,0.36655,18203.035
222,0.368217,17308.295
223,0.369883,16248.301
224,0.37155,16248.301
225,0.373217,15090.406
226,0.374883,13897.792
227,0.37655,13897.792
228,0.378217,12717.992
229,0.379883,11579.692
230,0.381567,10502.562
231,0.383217,10502.562
232,0.384917,9501.726000000001
233,0.38655,8585.155000000001
234,0.388217,7750.839
235,0.389883,7750.839
236,0.39155,7004.067
237,0.393217,6331.652
238,0.394883,5728.006
239,0.396567,5728.006
240,0.398217,5195.066
241,0.399917,4719.868
242,0.40155,4719.868
243,0.403217,4304.722
244,0.404883,3936.514
245,0.40655,3609.508
246,0.408217,3609.508
247,0.409883,3322.214
248,0.41155,3066.659
249,0.413217,2845.675
250,0.414883,2845.675
251,0.41655,2650.395
252,0.418217,2478.361
253,0.419867,2330.542
254,0.421533,2330.542
255,0.4232,2198.07
256,0.424867,2082.959
257,0.426533,2082.959
258,0.4282,1982.152
259,0.429867,1892.149
260,0.431533,1814.887
261,0.4332,1814.887
262,0.434867,1746.863
263,0.436533,1686.215
264,0.4382,1631.379
265,0.439867,1631.379
266,0.441533,1583.174
267,0.4432,1541.078
268,0.444867,1502.633
269,0.446533,1502.633
270,0.4482,1472.309
271,0.449867,1445.115
272,0.451533,1419.187
273,0.4532,1419.187
274,0.454867,1399.07
275,0.456533,1380.444
276,0.4582,1380.444
277,0.459883,1360.998
278,0.461533,1346.171
279,0.463233,1333.803
280,0.464867,1333.803
281,0.466533,1319.349
282,0.4682,1307.651
283,0.469867,1296.699
284,0.471533,1296.699
285,0.4732,1286.417
286,0.474867,1274.869
287,0.476533,1265.332
288,0.478183,1265.332
289,0.47985,1258.18
290,0.481517,1250.878
291,0.483183,1250.878
292,0.48485,1249.686
293,0.486517,1246.259
294,0.488183,1241.565
295,0.48985,1241.565
296,0.491517,1238.063
297,0.493183,1230.24
298,0.494833,1229.569
299,0.4965,1229.569
300,0.498167,1228.005
301,0.499833,1227.781
302,0.5014999999999999,1226.962
303,0.503167,1226.962
304,0.504833,1222.938
305,0.5065,1221.523
306,0.508167,1216.829
307,0.509833,1216.829
308,0.5115,1215.711
309,0.513167,1214.668
310,0.514833,1214.668
311,0.5165,1209.974
312,0.518167,1208.186
313,0.519833,1204.833
314,0.5215,1204.833
315,0.523167,1202.673
316,0.524833,1201.928
317,0.5265,1200.289
318,0.5281670000000001,1200.289
319,0.529833,1199.99
320,0.5315,1198.649
321,0.5332,1198.798
322,0.534833,1198.798
323,0.5365,1198.128
324,0.538167,1199.618
325,0.539817,1199.618
326,0.541483,1200.438
327,0.54315,1199.618
328,0.544817,1199.916
329,0.5464830000000001,1199.916
330,0.54815,1196.191
331,0.549817,1192.242
332,0.551583,1190.901
333,0.55315,1190.901
334,0.554817,1190.752
335,0.5564829999999999,1193.509
336,0.55815,1196.563
337,0.559817,1196.563
338,0.561483,1196.712
339,0.56315,1197.83
340,0.564817,1195.818
341,0.566483,1195.818
342,0.56815,1194.254
343,0.569817,1194.85
344,0.5715,1194.85
345,0.57315,1190.975
346,0.574817,1192.391
347,0.576483,1189.932
348,0.5781500000000001,1189.932
349,0.579817,1187.176
350,0.581483,1189.783
351,0.5831499999999999,1188.815
352,0.584817,1188.815
353,0.586483,1188.07
354,0.58815,1187.846
355,0.589817,1183.823
356,0.591483,1183.823
357,0.59315,1184.493
358,0.594817,1185.983
359,0.596483,1185.983
360,0.59815,1188.293
361,0.5998,1188.74
362,0.601467,1188.368
363,0.603133,1188.368
364,0.604833,1191.273
365,0.6065,1190.752
366,0.608133,1190.454
367,0.6098,1190.454
368,0.611467,1187.548
369,0.613133,1185.238
370,0.6148,1185.76
371,0.616467,1185.76
372,0.618133,1186.207
373,0.6198,1184.791
374,0.621467,1184.791
375,0.623133,1184.046
376,0.6248,1181.811
377,0.626467,1181.588
378,0.6281330000000001,1181.588
379,0.6298,1183.376
380,0.631467,1182.109
381,0.6331329999999999,1181.513
382,0.6348,1181.513
383,0.636517,1183.078
384,0.638133,1182.854
385,0.6398,1182.631
386,0.641467,1182.631
387,0.643133,1184.344
388,0.6448,1180.172
389,0.646467,1178.607
390,0.648133,1178.607
391,0.6498,1180.097
392,0.651467,1177.49
393,0.653133,1177.49
394,0.6548,1178.458
395,0.656467,1176.968
396,0.658133,1175.702
397,0.659783,1175.702
398,0.66145,1177.639
399,0.663117,1178.831
400,0.664783,1178.011
401,0.66645,1178.011
402,0.668117,1177.788
403,0.6699000000000001,1176.521
404,0.67145,1176.968
405,0.673117,1176.968
406,0.674783,1178.533
407,0.67645,1180.619
408,0.678117,1180.619
409,0.679783,1180.023
410,0.68145,1178.533
411,0.683117,1178.905
412,0.684783,1178.905
413,0.68645,1175.106
414,0.688117,1174.807
415,0.689783,1176.074
416,0.69145,1176.074
417,0.693117,1177.937
418,0.694783,1182.556
419,0.69645,1183.748
420,0.698117,1183.748
421,0.699783,1182.333
422,0.70145,1181.737
423,0.703117,1178.458
424,0.704783,1178.458
425,0.70645,1178.458
426,0.708117,1181.588
427,0.7097830000000001,1181.588
428,0.71145,1180.097
429,0.713117,1179.203
430,0.7147829999999999,1178.086
431,0.71645,1178.086
432,0.718117,1174.659
433,0.719767,1174.36
434,0.721433,1174.36
435,0.7231,1174.36
436,0.7247670000000001,1175.553
437,0.726433,1176.67
438,0.7281,1176.67
439,0.7297670000000001,1176.67
440,0.731433,1174.659
441,0.7331,1170.337
442,0.7347669999999999,1170.337
443,0.736433,1167.879
444,0.7381,1169.816
445,0.739767,1172.274
446,0.741433,1172.274
447,0.743117,1175.925
448,0.744767,1176.223
449,0.746433,1177.341
450,0.7481,1177.341
451,0.749767,1177.415
452,0.751433,1176.745
453,0.7531,1181.066
454,0.754817,1181.066
455,0.756433,1178.16
456,0.7581,1178.682
457,0.759767,1177.043
458,0.761433,1177.043
459,0.7631,1174.659
460,0.764767,1173.839
461,0.766433,1173.839
462,0.7681,1174.063
463,0.769767,1175.553
464,0.771517,1175.329
465,0.7731,1175.329
466,0.774767,1174.733
467,0.776433,1172.945
468,0.778083,1173.466
469,0.7797500000000001,1173.466
470,0.781417,1174.212
471,0.783083,1174.882
472,0.7847499999999999,1173.243
473,0.7864,1173.243
474,0.78815,1173.019
475,0.789733,1170.561
476,0.7914,1170.561
477,0.793067,1168.475
478,0.794733,1167.506
479,0.7964,1165.643
480,0.798067,1165.643
481,0.799733,1168.177
482,0.8014,1169.741
483,0.803067,1171.529
484,0.804733,1171.529
485,0.8064,1169.592
486,0.808067,1166.239
487,0.809733,1168.475
488,0.8114,1168.475
489,0.813067,1170.337
490,0.814733,1171.231
491,0.8164,1171.231
492,0.818067,1172.945
493,0.819733,1169.22
494,0.8214,1169.443
495,0.823067,1169.443
496,0.824733,1168.624
497,0.8264,1167.506
498,0.828067,1169.145
499,0.8297330000000001,1169.145
500,0.8314,1168.475
501,0.833067,1169.22
502,0.8347329999999999,1172.498
503,0.8364,1172.498
504,0.838067,1173.615
505,0.839717,1174.212
506,0.841383,1174.957
507,0.84305,1174.957
508,0.8447170000000001,1170.635
509,0.846383,1168.475
510,0.84805,1168.475
511,0.8497169999999999,1167.506
512,0.851383,1169.22
513,0.85305,1173.615
514,0.8547169999999999,1173.615
515,0.856383,1174.733
516,0.85805,1173.541
517,0.859717,1173.69
518,0.861383,1173.69
519,0.86305,1169.965
520,0.864717,1169.89
521,0.866383,1173.615
522,0.86805,1173.615
523,0.869717,1175.404
524,0.871383,1180.619
525,0.87305,1180.619
526,0.874717,1182.929
527,0.876383,1180.693
528,0.87805,1180.023
529,0.879717,1180.023
530,0.881383,1175.478
531,0.88305,1175.255
532,0.884717,1172.721
533,0.8864,1172.721
534,0.88805,1167.282
535,0.889783,1168.922
536,0.891417,1168.847
537,0.89305,1168.847
538,0.894717,1171.902
539,0.896383,1174.137
540,0.89805,1170.039
541,0.8997000000000001,1170.039
542,0.901367,1166.686
543,0.903033,1164.004
544,0.9046999999999999,1164.004
545,0.906467,1166.463
546,0.908033,1167.506
547,0.9097,1167.432
548,0.911367,1167.432
549,0.913033,1170.188
550,0.9147,1171.38
551,0.916367,1175.702
552,0.918033,1175.702
553,0.9197,1180.992
554,0.921367,1181.737
555,0.923067,1179.65
556,0.9247,1179.65
557,0.9263670000000001,1178.16
558,0.928033,1171.753
559,0.9297,1171.753
560,0.9313669999999999,1169.965
561,0.933033,1170.635
562,0.9347,1169.965
563,0.9363669999999999,1169.965
564,0.938033,1174.137
565,0.9397,1172.349
566,0.941367,1170.263
567,0.943033,1170.263
568,0.9447,1172.051
569,0.946367,1174.286
570,0.948033,1175.702
571,0.9497,1175.702
572,0.951367,1177.192
573,0.953033,1176.447
574,0.9547,1174.51
575,0.956367,1174.51
576,0.958033,1172.498
577,0.9597329999999999,1168.922
578,0.96135,1168.922
579,0.963017,1165.867
580,0.964683,1162.067
581,0.96635,1165.569
582,0.968017,1165.569
583,0.969683,1167.58
584,0.97135,1168.326
585,0.973017,1169.071
586,0.9747,1169.071
587,0.9763500000000001,1166.686
588,0.978017,1167.133
589,0.979683,1165.941
590,0.9813499999999999,1165.941
591,0.983017,1164.6
592,0.984683,1166.314
593,0.9863499999999999,1166.314
594,0.988017,1169.667
595,0.989683,1169.518
596,0.99135,1171.008
597,0.993017,1171.008
598,0.994683,1167.953
599,0.99635,1165.569
600,0.998017,1168.624
601,0.999683,1168.624
602,1.00135,1171.976
603,1.003017,1176.894
604,1.004683,1175.478
605,1.00635,1175.478
606,1.0081,1173.765
607,1.009683,1170.71
608,1.01135,1170.71
609,1.013017,1167.506
610,1.014683,1168.624
611,1.01635,1171.604
612,1.018017,1171.604
613,1.019667,1170.784
614,1.021333,1173.094
615,1.023,1172.051
616,1.024783,1172.051
617,1.026333,1171.827
618,1.028,1173.765
619,1.029667,1170.933
620,1.031333,1170.933
621,1.033,1172.051
622,1.034683,1168.847
623,1.036333,1168.847
624,1.038,1168.847
625,1.039667,1171.38
626,1.041433,1169.667
627,1.043,1169.667
628,1.044667,1170.263
629,1.046333,1170.337
630,1.048,1170.412
631,1.049667,1170.412
632,1.051333,1170.337
633,1.053,1172.349
634,1.054667,1170.933
635,1.056333,1170.933
636,1.058,1169.965
637,1.059667,1173.094
638,1.061333,1172.721
639,1.063,1172.721
640,1.0647,1172.349
641,1.066333,1172.2
642,1.068,1172.2
643,1.069667,1168.549
644,1.071333,1168.698
645,1.073,1170.486
646,1.074667,1170.486
647,1.076333,1170.188
648,1.077983,1172.647
649,1.079633,1173.317
650,1.0813,1173.317
651,1.082967,1175.031
652,1.084633,1173.913
653,1.0863,1172.274
654,1.087967,1172.274
655,1.089633,1173.243
656,1.0913,1172.572
657,1.092967,1171.082
658,1.094633,1171.082
659,1.0963,1171.306
660,1.097967,1166.91
661,1.099633,1166.91
662,1.101333,1166.314
663,1.102967,1169.89
664,1.104633,1169.816
665,1.1063,1169.816
666,1.107967,1171.976
667,1.109633,1171.306
668,1.1113,1171.902
669,1.112967,1171.902
670,1.114633,1172.945
671,1.1163,1173.839
672,1.117967,1172.498
673,1.119633,1172.498
674,1.1213,1173.466
675,1.122967,1171.827
676,1.124633,1171.827
677,1.12635,1168.922
678,1.127967,1169.518
679,1.129633,1167.357
680,1.1313,1167.357
681,1.132967,1167.953
682,1.134633,1168.326
683,1.1363,1165.792
684,1.137967,1165.792
685,1.139617,1163.632
686,1.141283,1164.302
687,1.143033,1165.643
688,1.144617,1165.643
689,1.146283,1168.773
690,1.14795,1170.337
691,1.149633,1167.655
692,1.1513,1167.655
693,1.15295,1165.718
694,1.154617,1165.42
695,1.156283,1165.42
696,1.15795,1167.133
697,1.159733,1171.902
698,1.161283,1175.18
699,1.16295,1175.18
700,1.164617,1176.372
701,1.166283,1173.466
702,1.16795,1172.2
703,1.169617,1172.2
704,1.171283,1168.4
705,1.17295,1167.506
706,1.174617,1170.635
707,1.176283,1170.635
708,1.17795,1171.604
709,1.179633,1175.553
710,1.181283,1175.553
711,1.18295,1173.243
712,1.184617,1172.647
713,1.186283,1172.721
714,1.18795,1172.721
715,1.189617,1171.902
716,1.191283,1174.807
717,1.19295,1172.2
718,1.194617,1172.2
719,1.196283,1170.114
720,1.197933,1169.965
721,1.1996,1169.22
722,1.201267,1169.22
723,1.202933,1170.114
724,1.2046,1172.87
725,1.206267,1172.87
726,1.207933,1171.38
727,1.2096,1171.306
728,1.211267,1171.976
729,1.212933,1171.976
730,1.2146,1168.027
731,1.216267,1167.282
732,1.217933,1168.996
733,1.2196,1168.996
734,1.221267,1169.443
735,1.222933,1169.071
736,1.2246,1171.678
737,1.226267,1171.678
738,1.227933,1167.432
739,1.2296,1167.506
740,1.231267,1172.721
741,1.232933,1172.721
742,1.2346,1175.478
743,1.236267,1180.768
744,1.237933,1180.768
745,1.2396,1180.693
746,1.241267,1180.396
747,1.242933,1176.447
748,1.2446,1176.447
749,1.246267,1173.913
750,1.247933,1172.349
751,1.2496,1170.561
752,1.251267,1170.561
753,1.252933,1172.647
754,1.254633,1173.765
755,1.25625,1175.851
756,1.257917,1175.851
757,1.259583,1172.498
758,1.261267,1168.475
759,1.262917,1168.475
760,1.264583,1168.326
761,1.26625,1164.898
762,1.267917,1167.208
763,1.269583,1167.208
764,1.27125,1168.4
765,1.272917,1165.494
766,1.274583,1167.58
767,1.27625,1167.58
768,1.278017,1170.039
769,1.279583,1169.443
770,1.28125,1171.008
771,1.282917,1171.008
772,1.284583,1169.89
773,1.28625,1168.027
774,1.287917,1167.282
775,1.289583,1167.282
776,1.29125,1166.91
777,1.292917,1167.506
778,1.294583,1167.506
779,1.29625,1166.016
780,1.297917,1164.898
781,1.299583,1164.675
782,1.30125,1164.675
783,1.302917,1166.612
784,1.304583,1167.953
785,1.30625,1171.902
786,1.307917,1171.902
787,1.309583,1174.137
788,1.31125,1171.231
789,1.312917,1168.624
790,1.314583,1168.624
791,1.31625,1166.537
792,1.31795,1167.357
793,1.319567,1167.357
794,1.321233,1171.604
795,1.3229,1172.498
796,1.324567,1171.753
797,1.326283,1171.753
798,1.3279,1170.114
799,1.329567,1166.91
800,1.331233,1168.177
801,1.3329,1168.177
802,1.334567,1168.847
803,1.336233,1168.922
804,1.3379,1168.922
805,1.339567,1168.922
806,1.341233,1167.133
807,1.3429,1170.337
808,1.344567,1170.561
809,1.346233,1170.561
810,1.3479,1173.541
811,1.349567,1173.019
812,1.351233,1173.019
813,1.3529,1169.369
814,1.354567,1169.667
815,1.356233,1166.388
816,1.3579,1166.388
817,1.359567,1169.22
818,1.361233,1173.392
819,1.362967,1170.263
820,1.364567,1170.263
821,1.366233,1171.455
822,1.3679,1171.38
823,1.36955,1167.953
824,1.371217,1167.953
825,1.372883,1171.306
826,1.37455,1170.784
827,1.376217,1170.784
828,1.377867,1169.071
829,1.379567,1166.239
830,1.3812,1163.334
831,1.382867,1163.334
832,1.384533,1161.62
833,1.3862,1161.546
834,1.387867,1163.408
835,1.389533,1163.408
836,1.3912,1165.941
837,1.392867,1170.188
838,1.394533,1171.38
839,1.3963,1171.38
840,1.397867,1171.38
841,1.399533,1169.071
842,1.4012,1169.071
843,1.402867,1166.537
844,1.404533,1166.09
845,1.4062,1167.655
846,1.407867,1167.655
847,1.409533,1168.996
848,1.4112,1168.475
849,1.412867,1170.263
850,1.414533,1170.263
851,1.4162,1170.859
852,1.417867,1171.157
853,1.419533,1171.529
854,1.4212,1171.529
855,1.422867,1169.816
856,1.424533,1169.294
857,1.4262,1167.059
858,1.427867,1167.059
859,1.429533,1167.729
860,1.4312,1166.314
861,1.432867,1166.314
862,1.434533,1163.557
863,1.436183,1164.824
864,1.43785,1163.706
865,1.439517,1163.706
866,1.441183,1163.557
867,1.44285,1163.93
868,1.444517,1161.546
869,1.446183,1161.546
870,1.44785,1161.918
871,1.449517,1162.142
872,1.451183,1163.185
873,1.45285,1163.185
874,1.454517,1165.643
875,1.456183,1164.749
876,1.45785,1164.749
877,1.459517,1167.953
878,1.461217,1170.486
879,1.46285,1173.317
880,1.464517,1173.317
881,1.466183,1174.733
882,1.46785,1174.137
883,1.469517,1172.721
884,1.471217,1172.721
885,1.47285,1170.412
886,1.474517,1170.412
887,1.476183,1168.624
888,1.47785,1168.624
889,1.479517,1169.592
890,1.481233,1168.698
891,1.48285,1169.965
892,1.484517,1169.965
893,1.486183,1169.667
894,1.48785,1169.294
895,1.489517,1169.294
896,1.491183,1167.953
897,1.49285,1166.165
898,1.494517,1167.879
899,1.496183,1167.879
900,1.497833,1165.494
901,1.4995,1167.133
902,1.501167,1165.718
903,1.502833,1165.718
904,1.5045,1166.016
905,1.506167,1168.326
906,1.507833,1170.263
907,1.5095,1170.263
908,1.511167,1174.063
909,1.512833,1172.647
910,1.5146,1174.286
911,1.516167,1174.286
912,1.517833,1171.604
913,1.5195,1168.177
914,1.521167,1168.177
915,1.522833,1171.455
916,1.5245,1169.145
917,1.526167,1168.251
918,1.527833,1168.251
919,1.5295,1168.922
920,1.531167,1164.451
921,1.532833,1162.663
