"ID","sea_time","fid_signal"
1,0,1166.984
2,0.001667,1166.165
3,0.003333,1167.804
4,0.005,1166.09
5,0.006667,1166.09
6,0.008333,1167.879
7,0.01,1170.635
8,0.011667,1169.518
9,0.013333,1169.518
10,0.015,1167.729
11,0.0167,1167.655
12,0.018333,1165.345
13,0.02,1165.345
14,0.021667,1163.557
15,0.023333,1165.196
16,0.024983,1163.706
17,0.02665,1163.706
18,0.028317,1163.93
19,0.029983,1165.494
20,0.03165,1165.494
21,0.033333,1165.42
22,0.035033,1164.675
23,0.03665,1165.941
24,0.038317,1165.941
25,0.039983,1167.655
26,0.04165,1171.976
27,0.043317,1171.455
28,0.044983,1171.455
29,0.04665,1171.008
30,0.048317,1167.729
31,0.049983,1164.526
32,0.05165,1164.526
33,0.053317,1165.718
34,0.054983,1165.867
35,0.05665,1165.867
36,0.058317,1169.741
37,0.059983,1170.486
38,0.06165,1168.698
39,0.063317,1168.698
40,0.064983,1170.114
41,0.06665,1167.879
42,0.068317,1168.922
43,0.069983,1168.922
44,0.07165000000000001,1172.945
45,0.07331699999999999,1173.168
46,0.07498299999999999,1172.423
47,0.07665,1172.423
48,0.078317,1169.741
49,0.08003300000000001,1166.016
50,0.08165,1166.016
51,0.0833,1161.099
52,0.084967,1163.259
53,0.086633,1167.059
54,0.0883,1167.059
55,0.08996700000000001,1166.612
56,0.09163300000000001,1168.4
57,0.09329999999999999,1167.208
58,0.094967,1167.208
59,0.09675,1162.812
60,0.0983,1164.451
61,0.099967,1166.388
62,0.10165,1166.388
63,0.1033,1164.6
64,0.104967,1165.196
65,0.106633,1164.824
66,0.1083,1164.824
67,0.109983,1162.738
68,0.111633,1162.738
69,0.113417,1165.42
70,0.114967,1165.42
71,0.116633,1168.251
72,0.1183,1168.326
73,0.119967,1168.326
74,0.121633,1168.698
75,0.1233,1166.612
76,0.124967,1164.973
77,0.126633,1164.973
78,0.1283,1164.153
79,0.129967,1163.706
80,0.131633,1162.812
81,0.1333,1162.812
82,0.134967,1164.749
83,0.136633,1167.58
84,0.1383,1167.58
85,0.139967,1168.996
86,0.141633,1172.87
87,0.143283,1170.263
88,0.14495,1170.263
89,0.146617,1169.965
90,0.148283,1167.879
91,0.14995,1165.42
92,0.151617,1165.42
93,0.153283,1165.42
94,0.15495,1162.961
95,0.156617,1164.526
96,0.158283,1164.526
97,0.15995,1164.153
98,0.161617,1166.686
99,0.163283,1170.039
100,0.16495,1170.039
101,0.166617,1172.2
102,0.168283,1174.212
103,0.16995,1174.212
104,0.171617,1172.423
105,0.173283,1173.765
106,0.174967,1171.976
107,0.176617,1171.976
108,0.178317,1170.635
109,0.17995,1168.847
110,0.181633,1165.718
111,0.183283,1165.718
112,0.18495,1165.643
113,0.186617,1167.208
114,0.188283,1167.655
115,0.18995,1167.655
116,0.191617,1167.357
117,0.193283,1166.537
118,0.19495,1166.537
119,0.196617,1163.483
120,0.1983,1162.589
121,0.19995,1162.887
122,0.201617,1162.887
123,0.203283,1163.781
124,0.204933,1163.334
125,0.2066,1163.334
126,0.208267,1163.334
127,0.209933,1159.534
128,0.2116,1158.64
129,0.213267,1160.502
130,0.214933,1160.502
131,0.2166,1162.067
132,0.218267,1166.91
133,0.219933,1166.165
134,0.2216,1166.165
135,0.223267,1168.773
136,0.224933,1171.008
137,0.2266,1171.008
138,0.228267,1172.721
139,0.229933,1178.011
140,0.2317,1181.364
141,0.233267,1181.364
142,0.234917,1187.324
143,0.236583,1199.543
144,0.23825,1214.37
145,0.239917,1214.37
146,0.241583,1230.761
147,0.24325,1251.25
148,0.244917,1270.697
149,0.246583,1270.697
150,0.24825,1296.103
151,0.249917,1322.851
152,0.251583,1322.851
153,0.25325,1350.12
154,0.25495,1380.444
155,0.2566,1410.469
156,0.25825,1410.469
157,0.259917,1441.24
158,0.261583,1476.854
159,0.26325,1509.488
160,0.2649,1509.488
161,0.266567,1543.686
162,0.268233,1579.002
163,0.2699,1614.168
164,0.271567,1614.168
165,0.273233,1647.472
166,0.2749,1679.435
167,0.276567,1679.435
168,0.278233,1714.602
169,0.2799,1745.671
170,0.281567,1781.061
171,0.283233,1781.061
172,0.2849,1818.165
173,0.286567,1856.238
174,0.288233,1896.918
175,0.2899,1896.918
176,0.291567,1938.567
177,0.293233,1981.035
178,0.2949,2023.205
179,0.296567,2023.205
180,0.298233,2064.258
181,0.2999,2110.898
182,0.301567,2157.763
183,0.303233,2157.763
184,0.3049,2206.937
185,0.306567,2261.177
186,0.308233,2261.177
187,0.3099,2313.703
188,0.311567,2368.167
189,0.313233,2425.76
190,0.3149,2425.76
191,0.316567,2485.141
192,0.318233,2551.153
193,0.3199,2626.926
194,0.321567,2626.926
195,0.32325,2719.536
196,0.324917,2845.675
197,0.326633,3032.982
198,0.328217,3032.982
199,0.329883,3328.696
200,0.33155,3795.177
201,0.33325,4518.479
202,0.334883,4518.479
203,0.33655,5582.497
204,0.338217,7054.433
205,0.339883,7054.433
206,0.34155,8971.616
207,0.343217,11309.386
208,0.344883,13976.768
209,0.34655,13976.768
210,0.348217,16826.094
211,0.35,19660.965
212,0.35155,22262.484
213,0.353233,22262.484
214,0.354883,24427.549
215,0.35655,25999.1
216,0.358217,26878.268
217,0.359883,26878.268
218,0.36155,27060.137
219,0.363217,26611.016
220,0.364883,26611.016
221,0.36655,25633.201
222,0.368217,24266.02
223,0.369883,22641.941
224,0.37155,22641.941
225,0.373217,20880.625
226,0.374883,19083.023
227,0.37655,17325.506
228,0.378217,17325.506
229,0.379883,15651.956
230,0.38155,14091.581
231,0.3832,12662.634
232,0.384867,12662.634
233,0.386533,11358.708
234,0.3882,10190.308
235,0.389867,10190.308
236,0.391533,9143.725
237,0.3932,8207.857
238,0.394867,7379.577
239,0.396533,7379.577
240,0.398217,6646.514
241,0.39995,6000.847
242,0.401533,5431.473
243,0.4032,5431.473
244,0.404867,4933.104
245,0.406533,4488.23
246,0.4082,4095.361
247,0.409867,4095.361
248,0.411533,3750.995
249,0.4132,3448.278
250,0.414867,3183.857
251,0.416533,3183.857
252,0.4182,2951.92
253,0.419867,2752.021
254,0.421533,2752.021
255,0.4232,2576.336
256,0.424867,2420.396
257,0.426533,2281.666
258,0.4282,2281.666
259,0.429867,2158.806
260,0.431533,2050.027
261,0.4332,1954.66
262,0.434917,1954.66
263,0.436533,1871.809
264,0.4382,1797.602
265,0.439867,1731.589
266,0.441533,1731.589
267,0.443183,1676.902
268,0.44485,1627.952
269,0.446517,1627.952
270,0.448183,1584.813
271,0.44985,1548.901
272,0.451517,1513.064
273,0.453183,1513.064
274,0.45485,1479.76
275,0.456517,1450.032
276,0.458183,1426.786
277,0.45985,1426.786
278,0.461517,1407.489
279,0.463183,1391.992
280,0.46485,1378.953
281,0.466517,1378.953
282,0.46825,1363.158
283,0.469883,1345.575
284,0.471517,1330.823
285,0.473183,1330.823
286,0.474867,1316.592
287,0.476517,1302.287
288,0.478183,1302.287
289,0.47985,1294.538
290,0.481517,1287.237
291,0.483183,1276.359
292,0.48485,1276.359
293,0.486517,1271.144
294,0.488183,1264.587
295,0.48985,1259.521
296,0.491533,1259.521
297,0.493183,1258.701
298,0.49485,1254.38
299,0.496517,1252.741
300,0.498183,1252.741
301,0.49985,1248.196
302,0.5014999999999999,1244.545
303,0.503167,1244.545
304,0.504833,1239.33
305,0.5065,1234.71
306,0.508167,1231.059
307,0.509833,1231.059
308,0.5115,1225.993
309,0.513167,1224.875
310,0.514833,1221.746
311,0.5165,1221.746
312,0.518167,1219.213
313,0.519833,1220.778
314,0.5215,1219.213
315,0.523167,1219.213
316,0.524817,1218.319
317,0.526483,1218.915
318,0.52815,1218.915
319,0.529817,1216.531
320,0.531483,1212.806
321,0.53315,1210.123
322,0.534817,1210.123
323,0.536483,1206.174
324,0.53815,1205.28
325,0.539817,1207.888
326,0.541483,1207.888
327,0.54315,1205.876
328,0.544817,1206.174
329,0.5464830000000001,1206.622
330,0.54815,1206.622
331,0.549817,1203.939
332,0.5514829999999999,1204.833
333,0.5532,1204.312
334,0.554817,1204.312
335,0.5564829999999999,1202.896
336,0.55815,1202.002
337,0.559817,1202.002
338,0.561483,1199.693
339,0.563133,1197.383
340,0.5648,1192.167
341,0.5664670000000001,1192.167
342,0.568133,1191.646
343,0.5698,1196.265
344,0.5714669999999999,1200.289
345,0.573133,1200.289
346,0.5748,1201.779
347,0.576467,1202.747
348,0.578133,1200.14
349,0.5798,1200.14
350,0.581467,1199.469
351,0.583133,1202.077
352,0.5848,1202.077
353,0.586483,1201.928
354,0.588133,1202.449
355,0.5898,1200.065
356,0.591467,1200.065
357,0.593133,1196.861
358,0.5948,1193.062
359,0.596467,1188.964
360,0.598133,1188.964
361,0.5998,1190.454
362,0.601467,1190.826
363,0.603133,1190.081
364,0.6048,1190.081
365,0.606467,1189.634
366,0.608133,1186.579
367,0.6098,1184.195
368,0.611467,1184.195
369,0.613133,1181.886
370,0.6148,1183.674
371,0.616467,1183.674
372,0.618133,1184.195
373,0.6198,1186.43
374,0.621467,1190.454
375,0.623117,1190.454
376,0.624783,1192.093
377,0.62645,1192.54
378,0.628117,1193.062
379,0.629783,1193.062
380,0.63145,1192.018
381,0.633117,1188.666
382,0.634783,1186.803
383,0.63645,1186.803
384,0.638117,1186.058
385,0.639783,1184.94
386,0.64145,1184.94
387,0.643117,1182.705
388,0.644783,1184.493
389,0.64645,1183.823
390,0.6481170000000001,1183.823
391,0.649783,1188.368
392,0.65145,1193.359
393,0.6531169999999999,1190.752
394,0.654783,1190.752
395,0.65645,1189.262
396,0.658117,1183.972
397,0.659783,1183.599
398,0.66145,1183.599
399,0.663117,1186.877
400,0.664783,1187.399
401,0.666467,1188.666
402,0.668117,1188.666
403,0.669783,1183.972
404,0.6715,1179.799
405,0.673117,1179.799
406,0.674783,1178.235
407,0.67645,1178.235
408,0.678117,1179.725
409,0.679783,1179.725
410,0.68145,1180.693
411,0.683133,1183.078
412,0.684817,1183.748
413,0.686517,1183.748
414,0.6881,1185.685
415,0.689767,1186.952
416,0.691433,1183.376
417,0.6931,1183.376
418,0.694767,1183.301
419,0.696433,1181.215
420,0.6981000000000001,1181.215
421,0.699767,1179.054
422,0.701433,1183.301
423,0.7030999999999999,1183.748
424,0.7049,1183.748
425,0.706433,1183.972
426,0.7081,1185.536
427,0.709767,1182.854
428,0.711433,1182.854
429,0.7131,1178.384
430,0.714767,1178.905
431,0.716433,1177.937
432,0.7181,1177.937
433,0.719767,1177.415
434,0.721433,1178.309
435,0.7231,1178.309
436,0.7247670000000001,1176.521
437,0.726433,1175.702
438,0.7281,1175.031
439,0.7297670000000001,1175.031
440,0.731433,1176.968
441,0.7331,1176.745
442,0.7347669999999999,1177.415
443,0.736433,1177.415
444,0.7381,1179.427
445,0.739767,1179.576
446,0.741433,1179.427
447,0.743083,1179.427
448,0.74475,1180.545
449,0.746417,1180.917
450,0.7480830000000001,1181.439
451,0.74975,1181.439
452,0.751417,1182.929
453,0.7530829999999999,1180.246
454,0.75475,1180.246
455,0.756417,1177.937
456,0.7581,1176.968
457,0.7598,1178.607
458,0.761417,1178.607
459,0.763083,1181.513
460,0.76475,1183.227
461,0.766417,1182.035
462,0.768083,1182.035
463,0.76975,1181.215
464,0.771417,1181.141
465,0.773083,1180.545
466,0.77475,1180.545
467,0.776417,1180.843
468,0.778083,1177.117
469,0.7797500000000001,1177.117
470,0.781417,1172.125
471,0.783083,1169.667
472,0.7847499999999999,1172.051
473,0.786417,1172.051
474,0.788083,1173.317
475,0.78975,1177.266
476,0.791417,1175.925
477,0.793083,1175.925
478,0.79475,1173.466
479,0.796417,1176
480,0.798083,1174.212
481,0.79975,1174.212
482,0.801417,1174.882
483,0.803067,1172.274
484,0.804733,1168.027
485,0.8065,1168.027
486,0.808067,1165.792
487,0.809733,1168.4
488,0.8114,1168.4
489,0.813067,1170.561
490,0.814733,1172.349
491,0.816383,1176.149
492,0.8180500000000001,1176.149
493,0.819717,1176.745
494,0.821383,1176.894
495,0.8231000000000001,1176.819
496,0.824717,1176.819
497,0.826383,1175.627
498,0.82805,1175.106
499,0.8297330000000001,1173.019
500,0.831383,1173.019
501,0.83305,1171.008
502,0.834717,1170.71
503,0.836417,1170.71
504,0.83805,1170.039
505,0.839817,1173.765
506,0.8414,1175.404
507,0.84305,1175.404
508,0.8447170000000001,1176.968
509,0.846383,1177.415
510,0.84805,1175.18
511,0.8497169999999999,1175.18
512,0.851383,1176.074
513,0.85305,1177.639
514,0.8547169999999999,1177.192
515,0.856383,1177.192
516,0.85805,1177.192
517,0.859717,1175.702
518,0.861367,1175.702
519,0.8630330000000001,1174.063
520,0.8647,1174.882
521,0.866367,1175.404
522,0.8680330000000001,1175.404
523,0.8697,1173.466
524,0.871367,1170.039
525,0.8730329999999999,1166.686
526,0.8747,1166.686
527,0.876367,1165.42
528,0.878033,1166.09
529,0.8797,1170.039
530,0.881367,1170.039
531,0.883033,1172.349
532,0.8847,1175.776
533,0.886367,1177.266
534,0.888033,1177.266
535,0.8897,1176.149
536,0.891367,1178.682
537,0.893033,1178.682
538,0.8947000000000001,1177.49
539,0.8964,1178.235
540,0.898033,1178.682
541,0.8997000000000001,1178.682
542,0.901367,1174.957
543,0.903033,1174.584
544,0.9046999999999999,1175.627
545,0.9064,1175.627
546,0.908033,1172.647
547,0.9097,1175.925
548,0.911367,1172.498
549,0.913033,1172.498
550,0.9147,1171.455
551,0.916367,1170.933
552,0.918033,1170.933
553,0.9197,1167.655
554,0.921367,1168.773
555,0.923017,1166.612
556,0.924767,1166.612
557,0.92635,1170.263
558,0.928017,1170.039
559,0.929683,1169.592
560,0.93135,1169.592
561,0.933017,1171.902
562,0.934683,1168.027
563,0.93635,1165.196
564,0.938017,1165.196
565,0.939683,1165.569
566,0.941433,1164.153
567,0.943017,1166.761
568,0.9446830000000001,1166.761
569,0.94635,1168.326
570,0.948017,1167.879
571,0.9496830000000001,1167.879
572,0.95135,1168.624
573,0.953017,1166.612
574,0.9546829999999999,1170.337
575,0.95635,1170.337
576,0.958117,1173.765
577,0.959683,1175.404
578,0.96135,1177.788
579,0.963017,1177.788
580,0.964683,1175.255
581,0.96635,1171.976
582,0.968017,1170.486
583,0.969683,1170.486
584,0.97135,1169.518
585,0.973017,1168.027
586,0.9747,1168.027
587,0.9763500000000001,1168.4
588,0.978017,1170.337
589,0.979667,1169.816
590,0.981333,1169.816
591,0.983,1173.541
592,0.984667,1176.149
593,0.986333,1176.745
594,0.988,1176.745
595,0.989667,1175.776
596,0.991333,1172.945
597,0.993,1170.486
598,0.994667,1170.486
599,0.996333,1168.773
600,0.998,1171.157
601,0.9997,1172.87
602,1.001333,1172.87
603,1.003,1173.019
604,1.004667,1172.051
605,1.006333,1172.051
606,1.008,1171.529
607,1.009667,1172.498
608,1.011333,1173.913
609,1.013,1173.913
610,1.014667,1172.945
611,1.016333,1171.604
612,1.018,1171.306
613,1.019667,1171.306
614,1.021333,1172.498
615,1.023,1171.306
616,1.024667,1170.337
617,1.026333,1170.337
618,1.028,1168.177
619,1.029667,1165.494
620,1.031333,1165.494
621,1.033,1166.09
622,1.034667,1166.91
623,1.036333,1164.898
624,1.038,1164.898
625,1.039667,1163.185
626,1.041333,1162.44
627,1.0431,1164.153
628,1.04465,1164.153
629,1.046317,1167.432
630,1.047983,1169.741
631,1.04965,1170.635
632,1.051317,1170.635
633,1.052983,1170.933
634,1.05465,1168.922
635,1.056317,1171.678
636,1.057983,1171.678
637,1.05965,1173.243
638,1.061317,1172.87
639,1.062983,1172.87
640,1.06465,1176.596
641,1.066317,1174.659
642,1.067983,1174.137
643,1.069667,1174.137
644,1.071317,1173.243
645,1.072983,1170.784
646,1.07465,1170.337
647,1.076383,1170.337
648,1.077983,1168.027
649,1.07965,1166.984
650,1.081317,1165.792
651,1.082983,1165.792
652,1.08465,1164.675
653,1.086317,1166.09
654,1.088,1166.09
655,1.08965,1167.58
656,1.091317,1169.518
657,1.092983,1173.69
658,1.09465,1173.69
659,1.096317,1175.702
660,1.097983,1175.18
661,1.09965,1175.255
662,1.1013,1175.255
663,1.102967,1173.094
664,1.104633,1171.529
665,1.1063,1170.263
666,1.10795,1170.263
667,1.109617,1171.976
668,1.111283,1172.572
669,1.11295,1172.572
670,1.114617,1173.317
671,1.116333,1173.988
672,1.11795,1170.263
673,1.119617,1170.263
674,1.121283,1167.282
675,1.12295,1166.537
676,1.124617,1169.22
677,1.126283,1169.22
678,1.12795,1173.541
679,1.129617,1175.925
680,1.131283,1175.627
681,1.13295,1175.627
682,1.134617,1174.137
683,1.136283,1170.71
684,1.13795,1168.549
685,1.139617,1168.549
686,1.141283,1169.518
687,1.14295,1170.337
688,1.144617,1170.337
689,1.146283,1171.604
690,1.14795,1171.753
691,1.149617,1174.584
692,1.151283,1174.584
693,1.15295,1174.882
694,1.154617,1172.498
695,1.156283,1171.902
696,1.15795,1171.902
697,1.159617,1165.867
698,1.1613,1161.993
699,1.162933,1161.993
700,1.1646,1161.993
701,1.166267,1163.185
702,1.167933,1165.718
703,1.1696,1165.718
704,1.171283,1167.804
705,1.172967,1168.996
706,1.1746,1169.518
707,1.176267,1169.518
708,1.178017,1171.976
709,1.1796,1173.243
710,1.181267,1172.349
711,1.182933,1172.349
712,1.1846,1169.816
713,1.186267,1167.729
714,1.187933,1168.177
715,1.1896,1168.177
716,1.191283,1171.008
717,1.192967,1173.765
718,1.1947,1175.627
719,1.196267,1175.627
720,1.197933,1173.019
721,1.1996,1171.604
722,1.201267,1171.604
723,1.202933,1171.827
724,1.2046,1169.369
725,1.206267,1168.177
726,1.207933,1168.177
727,1.2096,1167.804
728,1.211267,1166.612
729,1.212933,1166.016
730,1.2146,1166.016
731,1.216267,1168.251
732,1.217933,1168.251
733,1.2196,1167.655
734,1.221267,1167.655
735,1.222917,1167.879
736,1.224583,1167.133
737,1.22625,1167.133
738,1.227917,1168.549
739,1.229583,1172.274
740,1.23125,1171.008
741,1.232917,1171.008
742,1.234583,1173.541
743,1.23625,1171.38
744,1.237917,1168.922
745,1.239583,1168.922
746,1.24125,1172.2
747,1.242917,1170.784
748,1.2446,1172.721
749,1.24625,1172.721
750,1.247917,1172.423
751,1.249583,1171.976
752,1.25125,1169.89
753,1.252917,1169.89
754,1.254583,1169.294
755,1.25625,1168.027
756,1.25795,1168.027
757,1.259583,1165.569
758,1.2613,1167.357
759,1.262917,1165.867
760,1.264583,1165.867
761,1.26625,1167.357
762,1.267917,1169.22
763,1.269583,1167.059
764,1.27125,1167.059
765,1.272917,1165.643
766,1.274583,1164.675
767,1.27625,1163.483
768,1.277917,1163.483
769,1.279633,1164.153
770,1.281233,1166.239
771,1.2829,1166.239
772,1.284567,1164.004
773,1.286233,1161.844
774,1.2879,1161.844
775,1.289567,1161.844
776,1.291233,1161.099
777,1.2929,1164.302
778,1.294567,1166.612
779,1.296233,1166.612
780,1.2979,1167.58
781,1.299567,1168.996
782,1.301233,1169.667
783,1.3029,1169.667
784,1.304567,1169.741
785,1.306233,1171.678
786,1.3079,1171.678
787,1.309567,1169.816
788,1.311233,1168.4
789,1.313,1170.039
790,1.314567,1170.039
791,1.316233,1167.953
792,1.3179,1171.529
793,1.319567,1172.125
794,1.321233,1172.125
795,1.3229,1170.039
796,1.324567,1168.698
797,1.326233,1164.228
798,1.3279,1164.228
799,1.329567,1160.502
800,1.331233,1161.695
801,1.3329,1163.557
802,1.334567,1163.557
803,1.33625,1164.824
804,1.3379,1168.251
805,1.3396,1168.251
806,1.341217,1169.965
807,1.342883,1170.784
808,1.34455,1173.392
809,1.346217,1173.392
810,1.347883,1175.255
811,1.34955,1172.274
812,1.351217,1169.592
813,1.352883,1169.592
814,1.35455,1170.486
815,1.356217,1168.549
816,1.357883,1170.263
817,1.35955,1170.263
818,1.361217,1173.466
819,1.362883,1170.412
820,1.36455,1170.412
821,1.366217,1168.177
822,1.367883,1165.718
823,1.36955,1162.365
824,1.371217,1162.365
825,1.372883,1164.228
826,1.37455,1167.133
827,1.376217,1167.133
828,1.377883,1167.133
829,1.37955,1167.282
830,1.381217,1167.432
831,1.382883,1166.239
832,1.38455,1166.239
833,1.386217,1169.518
834,1.387883,1172.647
835,1.38955,1173.168
836,1.391217,1173.168
837,1.392883,1174.733
838,1.39455,1175.702
839,1.396217,1175.702
840,1.397933,1172.2
841,1.399533,1169.145
842,1.401183,1168.177
843,1.40285,1168.177
844,1.404517,1165.122
845,1.406233,1165.867
846,1.4079,1167.282
847,1.409567,1167.282
848,1.411183,1166.314
849,1.41285,1167.804
850,1.414517,1166.388
851,1.416183,1166.388
852,1.41785,1164.824
853,1.419533,1166.388
854,1.421183,1166.388
855,1.42285,1166.686
856,1.424517,1170.337
857,1.426183,1171.827
858,1.42785,1171.827
859,1.429517,1171.753
860,1.4313,1173.243
861,1.43285,1172.349
862,1.434517,1172.349
863,1.436183,1172.572
864,1.43785,1170.188
865,1.439517,1168.847
866,1.441183,1168.847
867,1.44285,1167.432
868,1.444517,1164.675
869,1.446183,1165.569
870,1.44785,1165.569
871,1.449517,1164.079
872,1.451183,1165.792
873,1.45285,1165.792
874,1.454517,1167.282
875,1.456183,1166.835
876,1.45785,1165.941
877,1.459517,1165.941
878,1.461167,1164.6
879,1.462833,1165.643
880,1.4645,1169.741
881,1.466167,1169.741
882,1.467833,1172.647
883,1.4695,1176.223
884,1.471167,1174.957
885,1.472833,1174.957
886,1.4745,1172.274
887,1.476167,1168.922
888,1.47785,1168.922
889,1.479517,1166.612
890,1.481167,1169.443
891,1.482833,1171.157
892,1.4845,1171.157
893,1.486167,1171.231
894,1.487833,1168.922
895,1.4895,1163.781
896,1.491167,1163.781
897,1.492833,1161.396
898,1.4945,1165.196
899,1.496167,1165.867
900,1.497833,1165.867
901,1.4995,1167.357
902,1.501167,1168.475
903,1.502833,1168.475
904,1.5045,1164.451
905,1.506167,1164.153
906,1.507833,1167.58
907,1.5095,1167.58
908,1.511167,1167.133
909,1.512833,1168.4
910,1.5145,1170.039
911,1.516217,1170.039
912,1.517833,1170.114
913,1.519483,1169.369
914,1.52115,1169.667
915,1.522817,1169.667
916,1.524483,1168.847
917,1.52615,1163.557
918,1.527817,1162.365
919,1.529483,1162.365
