"ID","sea_time","fid_signal"
1,0,138.722
2,0.001667,138.633
3,0.003333,138.633
4,0.005,138.409
5,0.006667,138.335
6,0.008333,138.216
7,0.01,138.216
8,0.011667,138.164
9,0.013333,138.476
10,0.015,138.64
11,0.016667,138.64
12,0.018333,138.745
13,0.02,138.968
14,0.021667,138.804
15,0.023317,138.804
16,0.024983,138.976
17,0.02665,139.095
18,0.028333,139.199
19,0.030033,139.199
20,0.03165,139.423
21,0.033317,139.304
22,0.034983,139.304
23,0.03665,139.192
24,0.038333,139.356
25,0.039983,139.609
26,0.04165,139.609
27,0.043317,139.587
28,0.044983,139.438
29,0.04665,139.304
30,0.048317,139.304
31,0.049983,138.693
32,0.05165,138.633
33,0.053317,138.581
34,0.054983,138.581
35,0.05665,138.186
36,0.058317,138.633
37,0.059983,138.633
38,0.061667,138.752
39,0.063317,139.274
40,0.064983,139.557
41,0.06665,139.557
42,0.068317,139.378
43,0.069983,139.043
44,0.07165000000000001,138.402
45,0.07331699999999999,138.402
46,0.07496700000000001,138.506
47,0.07663300000000001,138.611
48,0.078333,139.087
49,0.079967,139.087
50,0.081633,139.333
51,0.083283,139.259
52,0.08495,139.14
53,0.086617,139.14
54,0.088283,138.991
55,0.08995,139.073
56,0.091617,139.073
57,0.093283,139.363
58,0.09505,139.855
59,0.09661699999999999,140.131
60,0.098283,140.131
61,0.09995,140.54
62,0.101617,140.458
63,0.1033,139.87
64,0.105,139.87
65,0.106617,139.326
66,0.108283,138.901
67,0.10995,138.745
68,0.111617,138.745
69,0.113283,139.028
70,0.11495,139.333
71,0.116617,139.333
72,0.1183,139.348
73,0.11995,139.363
74,0.121617,139.177
75,0.123283,139.177
76,0.12495,139.087
77,0.126633,139.169
78,0.128283,139.289
79,0.12995,139.289
80,0.131617,139.453
81,0.133283,139.549
82,0.13495,139.371
83,0.136617,139.371
84,0.138283,139.214
85,0.13995,139.266
86,0.141617,139.266
87,0.143267,138.842
88,0.144933,138.856
89,0.1466,138.529
90,0.148267,138.529
91,0.149933,138.29
92,0.1516,138.804
93,0.153267,139.02
94,0.154933,139.02
95,0.1566,139.304
96,0.158267,139.579
97,0.159933,139.385
98,0.1616,139.385
99,0.163267,139.236
100,0.164933,139.49
101,0.1666,139.259
102,0.168267,139.259
103,0.169933,139.132
104,0.1716,139.065
105,0.1733,139.065
106,0.174933,138.856
107,0.1766,138.953
108,0.178267,139.542
109,0.17995,139.542
110,0.1816,139.788
111,0.183267,139.803
112,0.184933,139.914
113,0.1866,139.914
114,0.188267,139.415
115,0.189933,139.222
116,0.1916,139.177
117,0.193267,139.177
118,0.194933,138.946
119,0.1966,138.991
120,0.198267,138.991
121,0.199933,138.991
122,0.201583,138.938
123,0.20325,139.095
124,0.204917,139.095
125,0.206583,139.415
126,0.20825,139.616
127,0.209917,139.803
128,0.211583,139.803
129,0.213367,139.847
130,0.214917,139.81
131,0.216583,139.84
132,0.21825,139.84
133,0.219917,140.101
134,0.221617,139.937
135,0.22325,139.616
136,0.224917,139.616
137,0.226583,139.43
138,0.22825,139.453
139,0.229917,139.453
140,0.231583,139.557
141,0.23325,139.527
142,0.234917,139.475
143,0.236583,139.475
144,0.23825,139.363
145,0.239917,139.259
146,0.241583,139.438
147,0.24325,139.438
148,0.244917,139.378
149,0.246583,139.14
150,0.24825,139.058
151,0.249933,139.058
152,0.251583,139.028
153,0.25325,139.102
154,0.254917,139.102
155,0.256583,139.266
156,0.25825,139.579
157,0.259917,139.765
158,0.261567,139.765
159,0.263233,140.034
160,0.2649,139.795
161,0.266567,139.654
162,0.268233,139.654
163,0.2699,139.579
164,0.271567,139.348
165,0.273233,139.683
166,0.2749,139.683
167,0.276567,139.706
168,0.278233,139.631
169,0.2799,140.049
170,0.281567,140.049
171,0.283233,140.287
172,0.2849,140.615
173,0.286567,140.615
174,0.288233,141.069
175,0.2899,141.278
176,0.291567,141.449
177,0.293233,141.449
178,0.2949,141.822
179,0.296567,142.246
180,0.2983,142.768
181,0.299933,142.768
182,0.301567,143.312
183,0.303233,144.02
184,0.3049,145.033
185,0.306567,145.033
186,0.308233,146.59
187,0.3099,148.296
188,0.311567,148.296
189,0.313233,150.092
190,0.314917,152.253
191,0.316567,154.428
192,0.318233,154.428
193,0.3199,157.282
194,0.321567,161.126
195,0.323217,165.336
196,0.324917,165.336
197,0.32655,169.814
198,0.328217,174.88
199,0.329883,180.118
200,0.331667,180.118
201,0.333217,185.966
202,0.334883,192.449
203,0.33655,199.176
204,0.338217,199.176
205,0.339883,206.15
206,0.34155,212.923
207,0.343217,212.923
208,0.344883,219.613
209,0.346567,225.924
210,0.348217,231.259
211,0.349883,231.259
212,0.35155,235.863
213,0.353217,239.559
214,0.354883,242.39
215,0.35655,242.39
216,0.358217,245.02
217,0.359883,246.942
218,0.36155,249.162
219,0.363217,249.162
220,0.364883,251.815
221,0.366533,256.054
222,0.3682,256.054
223,0.369867,263.564
224,0.371533,275.21
225,0.3732,294.194
226,0.374867,294.194
227,0.376533,322.394
228,0.3782,362.724
229,0.379867,418.007
230,0.381533,418.007
231,0.383183,489.421
232,0.38485,578.269
233,0.386517,684.76
234,0.388183,684.76
235,0.389867,807.457
236,0.39155,944.912
237,0.393183,944.912
238,0.394883,1093.872
239,0.396517,1250.997
240,0.398183,1412.943
241,0.39985,1412.943
242,0.401517,1575.47
243,0.403183,1735.732
244,0.40485,1890.6
245,0.406517,1890.6
246,0.408183,2037.302
247,0.40985,2174.243
248,0.411517,2299.927
249,0.413183,2299.927
250,0.41485,2412.885
251,0.416567,2512.977
252,0.418183,2600.052
253,0.41985,2600.052
254,0.421517,2674.259
255,0.423183,2735.682
256,0.42485,2735.682
257,0.426517,2784.744
258,0.428183,2822.25
259,0.42985,2848.797
260,0.431517,2848.797
261,0.433183,2865.121
262,0.43485,2872.43
263,0.436517,2870.701
264,0.438183,2870.701
265,0.43985,2860.844
266,0.4415,2844.207
267,0.443167,2820.529
268,0.444833,2820.529
269,0.4465,2791.159
270,0.448167,2756.849
271,0.44995,2717.897
272,0.4515,2717.897
273,0.453167,2675.325
274,0.454833,2629.153
275,0.4565,2629.153
276,0.458167,2580.121
277,0.459833,2528.615
278,0.4615,2475.351
279,0.463167,2475.351
280,0.464833,2420.671
281,0.466517,2364.963
282,0.468233,2308.883
283,0.469833,2308.883
284,0.4715,2252.273
285,0.473167,2196.103
286,0.474833,2139.933
287,0.4765,2139.933
288,0.478167,2083.875
289,0.479833,2028.845
290,0.4815,2028.845
291,0.483167,1974.083
292,0.484833,1920.41
293,0.4865,1867.913
294,0.488167,1867.913
295,0.489833,1815.952
296,0.4915,1765.765
297,0.493167,1716.264
298,0.494833,1716.264
299,0.4965,1668.043
300,0.498167,1621.38
301,0.499833,1575.843
302,0.501483,1575.843
303,0.50315,1531.944
304,0.504817,1489.14
305,0.506483,1489.14
306,0.50815,1447.685
307,0.509817,1407.355
308,0.511483,1368.299
309,0.51315,1368.299
310,0.514817,1330.13
311,0.516483,1293.547
312,0.51815,1258.314
313,0.519817,1258.314
314,0.5215,1223.877
315,0.52315,1190.841
316,0.524817,1158.491
317,0.526483,1158.491
318,0.52815,1127.176
319,0.529817,1097.59
320,0.5315,1068.92
321,0.53315,1068.92
322,0.534817,1040.995
323,0.536483,1013.935
324,0.53815,1013.935
325,0.539817,987.373
326,0.541483,962.049
327,0.54315,937.7380000000001
328,0.544833,937.7380000000001
329,0.5464830000000001,913.955
330,0.54815,891
331,0.549817,868.753
332,0.551567,868.753
333,0.55315,847.526
334,0.554817,827.313
335,0.5564829999999999,807.5309999999999
336,0.55815,807.5309999999999
337,0.559817,788.398
338,0.561483,769.638
339,0.563133,769.638
340,0.5648,751.4059999999999
341,0.5664670000000001,734.203
342,0.56825,717.409
343,0.5698,717.409
344,0.5714669999999999,700.869
345,0.573133,684.924
346,0.5748,669.576
347,0.576467,669.576
348,0.578133,654.645
349,0.5798,640.4
350,0.581467,626.437
351,0.583133,626.437
352,0.5848,612.788
353,0.586467,599.63
354,0.588133,599.63
355,0.5898,587.225
356,0.591467,575.1849999999999
357,0.593133,563.346
358,0.5948,563.346
359,0.596467,551.909
360,0.598133,540.473
361,0.5998,529.535
362,0.601467,529.535
363,0.603133,518.8440000000001
364,0.6048,508.845
365,0.6065,498.95
366,0.608133,498.95
367,0.6098,489.183
368,0.611467,480.078
369,0.613133,470.996
370,0.6148,470.996
371,0.616467,462.539
372,0.618133,454.381
373,0.6198,454.381
374,0.621467,446.245
375,0.623117,437.953
376,0.624783,430.055
377,0.62645,430.055
378,0.628117,422.508
379,0.629783,414.975
380,0.631467,407.927
381,0.63315,407.927
382,0.634783,400.648
383,0.63645,393.629
384,0.638117,387.11
385,0.639783,387.11
386,0.64145,380.68
387,0.643117,374.965
388,0.644783,374.965
389,0.64645,369.184
390,0.6481170000000001,363.454
391,0.649783,358.067
392,0.65145,358.067
393,0.653133,352.39
394,0.654783,347.152
395,0.65645,341.684
396,0.6581,341.684
397,0.659767,336.476
398,0.661433,331.447
399,0.6631,326.231
400,0.664767,326.231
401,0.6664330000000001,321.597
402,0.6681,317.208
403,0.669867,312.924
404,0.6714329999999999,312.924
405,0.6731,308.73
406,0.674783,304.96
407,0.676433,304.96
408,0.6781,300.81
409,0.679767,296.727
410,0.6814170000000001,293.344
411,0.683083,293.344
412,0.68475,289.373
413,0.686517,285.693
414,0.688083,282.563
415,0.68975,282.563
416,0.6914169999999999,279.114
417,0.693083,275.664
418,0.69475,272.498
419,0.696433,272.498
420,0.698083,269.309
421,0.69975,266.097
422,0.701417,266.097
423,0.703183,263.438
424,0.70475,260.696
425,0.706417,257.671
426,0.708083,257.671
427,0.70975,254.996
428,0.711417,252.172
429,0.713083,249.52
430,0.71475,249.52
431,0.716417,247.061
432,0.718083,244.282
433,0.71975,241.697
434,0.72145,241.697
435,0.723083,239.402
436,0.72475,237.152
437,0.726417,235.155
438,0.728083,235.155
439,0.72975,233.009
440,0.731417,230.573
441,0.733083,230.573
442,0.73475,228.569
443,0.736417,226.46
444,0.738067,224.799
445,0.73975,224.799
446,0.7413999999999999,223.249
447,0.743067,221.327
448,0.744733,219.449
449,0.7464,219.449
450,0.748067,217.654
451,0.749767,215.933
452,0.7514,214.07
453,0.753067,214.07
454,0.754733,212.498
455,0.7564,210.665
456,0.758067,210.665
457,0.759733,208.952
458,0.7614,207.536
459,0.7630670000000001,205.845
460,0.764733,205.845
461,0.7664,204.347
462,0.7680670000000001,203.073
463,0.769733,201.702
464,0.771417,201.702
465,0.7730669999999999,200.659
466,0.774733,199.631
467,0.7764,198.074
468,0.778067,198.074
469,0.779733,196.896
470,0.7814,195.757
471,0.783067,195.757
472,0.784733,194.43
473,0.7864,193.454
474,0.788117,192.434
475,0.789733,192.434
476,0.7914,191.517
477,0.793067,190.653
478,0.794733,189.506
479,0.7964,189.506
480,0.798067,188.328
481,0.799733,186.861
482,0.801383,185.877
483,0.80305,185.877
484,0.804783,185.229
485,0.806383,184.372
486,0.80805,183.538
487,0.809717,183.538
488,0.811383,182.584
489,0.8130500000000001,181.377
490,0.814717,181.377
491,0.816383,180.364
492,0.8180500000000001,179.775
493,0.819717,179.209
494,0.821483,179.209
495,0.8230499999999999,178.657
496,0.824733,178.374
497,0.826383,177.637
498,0.82805,177.637
499,0.829717,176.832
500,0.831383,176.154
501,0.83305,175.26
502,0.834717,175.26
503,0.836383,174.485
504,0.83805,173.889
505,0.839717,173.889
506,0.841383,173.114
507,0.84305,172.384
508,0.8447170000000001,171.855
509,0.846383,171.855
510,0.84805,171.363
511,0.8497169999999999,170.916
512,0.851383,170.38
513,0.85305,170.38
514,0.8547169999999999,169.963
515,0.856383,169.367
516,0.85805,169.009
517,0.859717,169.009
518,0.861367,168.495
519,0.8630330000000001,167.958
520,0.8647,167.318
521,0.866367,167.318
522,0.8680330000000001,166.409
523,0.8697,165.828
524,0.871367,165.828
525,0.8730329999999999,165.276
526,0.8747,164.74
527,0.876367,164.367
528,0.878033,164.367
529,0.8797,163.764
530,0.881367,163.205
531,0.883033,162.795
532,0.8847,162.795
533,0.8864,162.534
534,0.888033,162.318
535,0.8897,162.072
536,0.891367,162.072
537,0.893033,161.923
538,0.8947000000000001,161.693
539,0.896367,161.693
540,0.898033,161.305
541,0.8997000000000001,160.798
542,0.901367,160.247
543,0.903033,160.247
544,0.9046999999999999,160.038
545,0.906367,159.77
546,0.908033,159.405
547,0.9097,159.405
548,0.911367,158.891
549,0.913033,158.168
550,0.9147,157.893
551,0.916367,157.893
552,0.918033,158.034
553,0.919683,158.057
554,0.92135,158.146
555,0.923067,158.146
556,0.9247,158.183
557,0.92635,157.453
558,0.928017,157.453
559,0.929683,157.021
560,0.93135,156.47
561,0.933017,156.03
562,0.934683,156.03
563,0.93635,155.821
564,0.938017,155.509
565,0.9398,155.345
566,0.94135,155.345
567,0.943017,155.248
568,0.9446830000000001,155.181
569,0.94635,155.024
570,0.948017,155.024
571,0.949667,154.831
572,0.951333,154.234
573,0.953,154.234
574,0.954667,154.041
575,0.956333,153.974
576,0.958,153.668
577,0.959667,153.668
578,0.961333,153.475
579,0.963,153.124
580,0.9646670000000001,153.057
581,0.966333,153.057
582,0.968,152.908
583,0.9696669999999999,152.938
584,0.971333,152.878
585,0.973,152.878
586,0.974667,152.253
587,0.976333,152.171
588,0.978,152.171
589,0.97965,152.2
590,0.981317,151.955
591,0.9829830000000001,151.776
592,0.98465,151.776
593,0.986317,151.627
594,0.9879829999999999,151.21
595,0.98965,151.18
596,0.991317,151.18
597,0.9929829999999999,151.18
598,0.99465,151.187
599,0.996317,151.187
600,0.997983,151.187
601,0.99965,150.897
602,1.001317,150.949
603,1.002983,150.591
604,1.00465,150.591
605,1.006317,150.204
606,1.007983,150.166
607,1.00965,150.166
608,1.011317,149.995
609,1.012983,150.07
610,1.01465,150.122
611,1.016317,150.122
612,1.017983,149.839
613,1.01965,149.794
614,1.021317,149.734
615,1.022983,149.734
616,1.02465,149.69
617,1.026317,150.01
618,1.027983,149.906
619,1.02965,149.906
620,1.031317,149.406
621,1.033,149.131
622,1.034667,149.131
623,1.036317,148.885
624,1.037983,148.639
625,1.039633,148.803
626,1.041333,148.803
627,1.042967,148.773
628,1.044633,148.319
629,1.0463,148.095
630,1.047967,148.095
631,1.049633,147.797
632,1.0513,147.745
633,1.052967,147.961
634,1.054633,147.961
635,1.0563,148.028
636,1.057967,148.08
637,1.059633,147.648
638,1.0613,147.648
639,1.062967,147.387
640,1.064633,147.395
641,1.0663,147.395
642,1.067967,147.35
643,1.069633,147.663
644,1.0713,147.581
645,1.072967,147.581
646,1.074633,147.708
647,1.0763,147.767
648,1.077967,147.559
649,1.079633,147.559
650,1.0813,147.641
651,1.082967,147.171
652,1.084633,146.65
653,1.0863,146.65
654,1.087967,146.255
655,1.089633,146.389
656,1.0913,146.389
657,1.092967,146.709
658,1.094633,146.94
659,1.0963,147.216
660,1.09795,147.216
661,1.099633,146.881
662,1.101283,146.434
663,1.10295,146.262
664,1.104633,146.262
665,1.106333,146.314
666,1.10795,146.337
667,1.109617,146.583
668,1.111283,146.583
669,1.11295,146.538
670,1.114617,146.165
671,1.116283,146.136
672,1.11795,146.136
673,1.119617,145.741
674,1.121317,145.763
675,1.12295,145.763
676,1.124617,145.897
677,1.126283,145.815
678,1.12795,145.823
679,1.129617,145.823
680,1.131283,145.562
681,1.13295,145.666
682,1.134617,145.547
683,1.136283,145.547
684,1.13795,145.495
685,1.139617,145.465
686,1.141283,145.562
687,1.143,145.562
688,1.144617,145.786
689,1.146283,145.823
690,1.14795,145.823
691,1.149617,145.689
692,1.151283,145.353
693,1.15295,144.996
694,1.154617,144.996
695,1.156283,145.026
696,1.15795,145.212
697,1.1596,145.026
698,1.161267,145.026
699,1.162933,145.063
700,1.1646,145.063
701,1.166267,145.115
702,1.167933,145.115
703,1.1696,145.189
704,1.171267,145.353
705,1.172933,145.353
706,1.1746,145.13
707,1.176267,144.958
708,1.177933,145.167
709,1.1796,145.167
710,1.181267,145.055
711,1.182967,145.175
712,1.1846,145.1
713,1.186267,145.1
714,1.187933,144.891
715,1.1896,144.646
716,1.191267,144.377
717,1.192933,144.377
718,1.1946,144.385
719,1.196267,144.444
720,1.197933,144.601
721,1.1996,144.601
722,1.201267,144.683
723,1.202933,144.809
724,1.2046,144.809
725,1.206267,144.891
726,1.207933,144.891
727,1.209633,144.936
728,1.211267,144.936
729,1.212933,144.817
730,1.2146,144.377
731,1.216267,144.243
732,1.217933,144.243
733,1.219583,144.482
734,1.22125,144.236
735,1.222917,144.482
736,1.224583,144.482
737,1.22625,144.504
738,1.227917,144.139
739,1.229583,144.139
740,1.23125,144.31
741,1.232917,144.258
742,1.234583,144.102
743,1.23625,144.102
744,1.237917,144.184
745,1.239583,144.02
746,1.241233,143.729
747,1.2429,143.729
748,1.244567,143.997
749,1.246233,143.819
750,1.2479,143.744
751,1.249583,143.744
752,1.251233,143.655
753,1.2529,143.17
754,1.254567,143.364
755,1.256233,143.364
756,1.2579,143.409
757,1.259567,143.401
758,1.261283,143.401
759,1.2629,143.528
760,1.264567,143.312
761,1.266233,143.573
762,1.2679,143.573
763,1.269567,143.699
764,1.271233,143.826
765,1.2729,143.789
766,1.274567,143.789
767,1.276233,143.588
768,1.277883,143.535
769,1.279567,143.148
770,1.281217,143.148
771,1.282883,143.304
772,1.28455,143.513
773,1.286217,143.513
774,1.287883,143.789
775,1.28955,144.124
776,1.291217,143.722
777,1.292883,143.722
778,1.29465,143.208
779,1.296217,142.917
780,1.297883,142.686
781,1.29955,142.686
782,1.301217,142.969
783,1.3029,143.088
784,1.30455,142.91
785,1.306217,142.91
786,1.307883,142.843
787,1.30955,142.552
788,1.311217,142.708
789,1.312883,142.708
790,1.31455,142.902
791,1.316217,142.947
792,1.317883,142.947
793,1.31955,143.215
794,1.321217,143.141
795,1.322883,143.223
796,1.32455,143.223
797,1.326217,143.409
798,1.3279,143.155
799,1.32955,143.074
800,1.331217,143.074
801,1.332883,143.014
802,1.33455,142.731
803,1.336217,142.887
804,1.337883,142.887
805,1.339533,143.17
806,1.3412,142.775
807,1.342867,142.775
808,1.344533,142.962
809,1.3462,142.843
810,1.347867,142.53
811,1.349533,142.53
812,1.3512,142.768
813,1.352867,142.545
814,1.354533,142.589
815,1.3562,142.589
816,1.357867,142.679
817,1.359533,142.686
818,1.3612,142.746
819,1.362867,142.746
820,1.364533,142.694
821,1.3662,142.455
822,1.367867,142.455
823,1.369533,142.455
824,1.3712,142.552
825,1.372867,142.358
826,1.374533,142.358
827,1.3762,142.522
828,1.377867,142.448
829,1.379567,142.485
830,1.3812,142.485
831,1.382867,142.664
832,1.384533,142.686
833,1.3862,142.947
834,1.387867,142.947
835,1.389533,142.887
836,1.3912,142.939
837,1.392867,142.843
838,1.394533,142.843
839,1.3962,142.679
840,1.397867,142.679
841,1.399567,142.679
842,1.401183,142.537
843,1.40285,142.559
844,1.404517,142.448
845,1.406183,142.448
846,1.40785,142.626
847,1.409517,142.664
848,1.411183,142.552
849,1.412967,142.552
850,1.414517,142.395
851,1.416183,142.023
852,1.41785,142.291
853,1.419517,142.291
854,1.421183,142.373
855,1.42285,142.328
856,1.424517,142.328
857,1.426183,142.187
858,1.42785,142.12
859,1.429517,142.083
860,1.431183,142.083
861,1.43285,142.187
862,1.434517,142.5
863,1.436183,142.433
864,1.43785,142.433
865,1.439517,142.418
866,1.441183,142.388
867,1.44285,142.284
868,1.444517,142.284
869,1.446183,142.321
870,1.44785,142.291
871,1.449517,142.239
872,1.451183,142.239
873,1.45285,142.06
874,1.454517,141.606
875,1.456183,141.606
876,1.45785,141.449
877,1.4595,141.487
878,1.461167,141.881
879,1.462833,141.881
880,1.4645,142.284
881,1.466167,142.418
882,1.467833,142.694
883,1.4695,142.694
884,1.4712,142.455
885,1.4729,142.254
886,1.4745,142.321
887,1.476167,142.321
888,1.477833,142.008
889,1.4795,142.172
890,1.481167,142.172
891,1.482833,142.44
892,1.4845,142.433
893,1.486167,142.336
894,1.487833,142.336
895,1.4895,142.053
896,1.491167,141.755
897,1.492833,141.889
898,1.4945,141.889
899,1.496167,142.016
900,1.497833,142.328
901,1.4995,142.589
902,1.501167,142.589
903,1.502833,142.552
904,1.5045,143.036
905,1.506167,142.902
906,1.507833,142.902
907,1.5095,142.634
908,1.511167,142.284
909,1.512833,142.284
910,1.514583,141.829
911,1.516167,141.628
912,1.517833,141.487
913,1.519483,141.487
914,1.52115,141.665
915,1.522817,141.852
916,1.524483,141.77
917,1.52615,141.77
918,1.527817,141.829
919,1.529483,141.665
920,1.531233,141.449
921,1.5328,141.449
922,1.534467,141.382
923,1.536133,141.449
924,1.5378,141.449
925,1.539467,141.472
926,1.541133,141.375
927,1.5428,141.807
928,1.544467,141.807
929,1.546133,141.777
930,1.547833,141.889
931,1.549467,141.919
932,1.551133,141.919
933,1.5528,141.673
934,1.554467,141.77
935,1.556133,141.807
936,1.5578,141.807
937,1.559467,141.859
938,1.561133,141.874
939,1.5628,141.874
940,1.564467,141.636
941,1.566133,141.524
942,1.5678,141.546
943,1.569467,141.546
944,1.571133,141.434
945,1.5728,141.464
946,1.574467,141.315
947,1.576133,141.315
948,1.5778,141.256
949,1.57945,141.107
950,1.581117,141.397
951,1.582783,141.397
952,1.58445,141.785
953,1.586117,141.658
954,1.587783,141.703
955,1.58945,141.703
956,1.591117,141.345
957,1.592783,140.958
958,1.59445,140.958
959,1.596117,141.315
