"ID","sea_time","fid_signal"
1,0,1160.279
2,0.001667,1162.812
3,0.003333,1165.42
4,0.005067,1165.867
5,0.006667,1165.867
6,0.008333,1169.145
7,0.01,1168.475
8,0.011667,1164.6
9,0.013333,1164.6
10,0.015,1166.388
11,0.016667,1163.781
12,0.018333,1163.781
13,0.02,1163.93
14,0.021767,1165.494
15,0.023333,1163.855
16,0.025,1163.855
17,0.026667,1165.643
18,0.028333,1164.6
19,0.03,1165.345
20,0.03165,1165.345
21,0.033317,1165.047
22,0.034983,1165.569
23,0.03665,1163.855
24,0.038317,1163.855
25,0.039983,1164.377
26,0.04165,1167.059
27,0.043317,1167.059
28,0.044983,1165.792
29,0.04665,1168.027
30,0.048317,1168.102
31,0.049983,1168.102
32,0.05165,1164.898
33,0.053317,1167.58
34,0.054983,1170.114
35,0.05665,1170.114
36,0.058317,1168.027
37,0.059983,1168.847
38,0.06165,1165.569
39,0.063317,1165.569
40,0.064983,1162.291
41,0.06668300000000001,1162.738
42,0.06834999999999999,1163.855
43,0.069983,1163.855
44,0.07165000000000001,1165.047
45,0.07331699999999999,1166.91
46,0.07498299999999999,1166.91
47,0.07665,1166.984
48,0.078317,1166.612
49,0.079983,1165.792
50,0.08165,1165.792
51,0.083317,1163.781
52,0.084983,1162.887
53,0.08665,1161.546
54,0.08831700000000001,1161.546
55,0.08998299999999999,1162.142
56,0.09165,1164.228
57,0.09329999999999999,1165.42
58,0.094967,1165.42
59,0.096633,1167.059
60,0.0983,1168.549
61,0.099967,1168.549
62,0.101633,1168.624
63,0.1033,1168.698
64,0.104967,1169.667
65,0.106633,1169.667
66,0.1083,1169.518
67,0.109967,1169.369
68,0.111633,1169.443
69,0.1133,1169.443
70,0.114967,1167.655
71,0.116633,1168.4
72,0.1183,1168.177
73,0.119967,1168.177
74,0.12165,1168.177
75,0.123367,1167.357
76,0.124967,1164.6
77,0.126633,1164.6
78,0.1283,1162.589
79,0.129967,1161.844
80,0.131633,1161.844
81,0.1333,1164.228
82,0.134967,1167.357
83,0.136633,1167.879
84,0.1383,1167.879
85,0.139983,1167.879
86,0.141633,1165.271
87,0.1433,1162.663
88,0.144967,1162.663
89,0.146633,1161.396
90,0.1483,1162.291
91,0.149967,1164.228
92,0.151633,1164.228
93,0.153283,1166.612
94,0.15495,1167.655
95,0.156733,1166.761
96,0.158283,1166.761
97,0.15995,1166.016
98,0.161617,1164.004
99,0.163283,1164.004
100,0.16495,1164.228
101,0.166617,1168.475
102,0.168283,1171.529
103,0.169933,1171.529
104,0.1716,1170.859
105,0.173267,1170.114
106,0.174933,1165.122
107,0.1766,1165.122
108,0.178267,1163.259
109,0.179933,1163.557
110,0.1816,1163.557
111,0.183267,1163.93
112,0.184933,1167.729
113,0.1866,1167.879
114,0.188267,1167.879
115,0.189933,1168.847
116,0.1916,1169.145
117,0.193267,1167.729
118,0.194933,1167.729
119,0.1966,1168.326
120,0.198267,1166.09
121,0.199933,1165.494
122,0.2016,1165.494
123,0.203267,1163.93
124,0.204933,1160.353
125,0.2066,1159.385
126,0.208267,1159.385
127,0.209933,1159.757
128,0.211617,1162.738
129,0.21325,1162.738
130,0.214917,1164.675
131,0.216583,1169.592
132,0.21825,1171.082
133,0.219917,1171.082
134,0.221583,1168.773
135,0.223267,1167.506
136,0.22495,1165.643
137,0.226583,1165.643
138,0.22825,1165.196
139,0.229917,1166.835
140,0.231583,1175.255
141,0.23325,1175.255
142,0.234917,1184.344
143,0.236583,1199.394
144,0.23825,1199.394
145,0.239917,1219.586
146,0.241683,1237.02
147,0.24325,1256.466
148,0.244917,1256.466
149,0.246583,1276.359
150,0.24825,1297.444
151,0.249917,1321.807
152,0.251583,1321.807
153,0.25325,1348.332
154,0.254917,1378.059
155,0.256583,1406.744
156,0.258333,1406.744
157,0.259917,1435.578
158,0.261583,1467.317
159,0.26325,1499.727
160,0.264917,1499.727
161,0.266583,1531.094
162,0.26825,1562.983
163,0.269917,1562.983
164,0.271567,1596.659
165,0.273233,1624.972
166,0.274967,1655.594
167,0.276567,1655.594
168,0.278233,1689.643
169,0.2799,1720.339
170,0.281567,1753.867
171,0.283233,1753.867
172,0.2849,1789.108
173,0.286567,1821.22
174,0.288233,1853.779
175,0.289933,1853.779
176,0.291567,1889.095
177,0.293233,1923.367
178,0.2949,1923.367
179,0.296583,1964.271
180,0.298233,2005.622
181,0.2999,2047.271
182,0.301567,2047.271
183,0.303233,2092.57
184,0.3049,2138.019
185,0.306567,2182.573
186,0.308233,2182.573
187,0.3099,2230.853
188,0.311567,2278.834
189,0.313267,2328.903
190,0.3149,2328.903
191,0.316567,2386.57
192,0.318233,2446.622
193,0.3199,2513.826
194,0.321567,2513.826
195,0.323233,2590.045
196,0.3249,2679.527
197,0.326567,2679.527
198,0.328233,2794.638
199,0.3299,2952.591
200,0.331567,3170.371
201,0.333217,3170.371
202,0.334883,3478.676
203,0.33655,3898.144
204,0.338217,4449.487
205,0.339883,4449.487
206,0.34155,5136.952
207,0.343217,5947.277
208,0.344883,6844.998
209,0.34655,6844.998
210,0.348217,7779.971
211,0.349883,8692.146000000001
212,0.35155,8692.146000000001
213,0.353217,9515.956
214,0.354883,10197.982
215,0.35655,10696.128
216,0.358217,10696.128
217,0.35995,10990.054
218,0.36155,11073.649
219,0.363217,10966.882
220,0.364883,10966.882
221,0.36655,10690.242
222,0.368217,10275.767
223,0.369883,9763.688
224,0.37155,9763.688
225,0.373217,9182.394
226,0.374883,8568.093000000001
227,0.376567,7945.522
228,0.378217,7945.522
229,0.379883,7329.881
230,0.38155,6737.635
231,0.383217,6737.635
232,0.384883,6174.594
233,0.38655,5646.795
234,0.388217,5159.602
235,0.389883,5159.602
236,0.391533,4714.728
237,0.393267,4313.812
238,0.394867,3952.757
239,0.396533,3952.757
240,0.3982,3629.923
241,0.399867,3342.554
242,0.401533,3085.062
243,0.4032,3085.062
244,0.404867,2857.819
245,0.406567,2661.124
246,0.4082,2661.124
247,0.409867,2485.812
248,0.411533,2329.424
249,0.4132,2192.557
250,0.414867,2192.557
251,0.416533,2070.442
252,0.4182,1967.773
253,0.419867,1877.993
254,0.421533,1877.993
255,0.4232,1799.464
256,0.424867,1727.864
257,0.426533,1662.299
258,0.4282,1662.299
259,0.429867,1609.4
260,0.431533,1559.63
261,0.4332,1559.63
262,0.434883,1517.236
263,0.436533,1478.046
264,0.4382,1444.966
265,0.439867,1444.966
266,0.441533,1419.261
267,0.4432,1395.196
268,0.444867,1374.93
269,0.446533,1374.93
270,0.4482,1353.547
271,0.449867,1334.25
272,0.451517,1316.294
273,0.453183,1316.294
274,0.45485,1299.828
275,0.456517,1286.864
276,0.458183,1274.273
277,0.459833,1274.273
278,0.4615,1266.897
279,0.463167,1260.936
280,0.464833,1260.936
281,0.4665,1255.497
282,0.468167,1248.27
283,0.469833,1240.671
284,0.471517,1240.671
285,0.473167,1235.902
286,0.474833,1228.824
287,0.4765,1227.707
288,0.478217,1227.707
289,0.479833,1224.13
290,0.4815,1218.542
291,0.483167,1215.488
292,0.484867,1215.488
293,0.4865,1212.88
294,0.488167,1212.507
295,0.489833,1212.507
296,0.4915,1211.837
297,0.493167,1208.708
298,0.49485,1205.28
299,0.4965,1205.28
300,0.498167,1202.673
301,0.499833,1199.245
302,0.5014999999999999,1198.277
303,0.503167,1198.277
304,0.504833,1196.042
305,0.5065,1194.403
306,0.508167,1193.881
307,0.509833,1193.881
308,0.511517,1193.956
309,0.51315,1193.807
310,0.514817,1193.807
311,0.516483,1193.657
312,0.51815,1194.85
313,0.519817,1193.359
314,0.521483,1193.359
315,0.52315,1194.179
316,0.524817,1191.646
317,0.526483,1189.485
318,0.52815,1189.485
319,0.529817,1188.07
320,0.531483,1184.195
321,0.53315,1182.78
322,0.534817,1182.78
323,0.536483,1181.737
324,0.53815,1181.439
325,0.539817,1183.301
326,0.541483,1183.301
327,0.54315,1185.015
328,0.544817,1186.729
329,0.5464830000000001,1186.729
330,0.54815,1186.803
331,0.549817,1187.026
332,0.5514829999999999,1185.238
333,0.55315,1185.238
334,0.554817,1183.823
335,0.5564829999999999,1183.376
336,0.55815,1182.854
337,0.559817,1182.854
338,0.561483,1182.854
339,0.56315,1181.811
340,0.564817,1182.184
341,0.566483,1182.184
342,0.568167,1181.066
343,0.569817,1179.948
344,0.5714669999999999,1179.948
345,0.573133,1180.693
346,0.5748,1179.874
347,0.5765,1177.713
348,0.578183,1177.713
349,0.5798,1179.725
350,0.581467,1179.427
351,0.583133,1180.768
352,0.5848,1180.768
353,0.586467,1184.046
354,0.588133,1183.972
355,0.5898,1182.78
356,0.591467,1182.78
357,0.593133,1179.203
358,0.5948,1178.16
359,0.596467,1177.117
360,0.598133,1177.117
361,0.5998,1179.501
362,0.601467,1180.172
363,0.603133,1180.172
364,0.6048,1180.768
365,0.606467,1180.396
366,0.608133,1179.054
367,0.6098,1179.054
368,0.611467,1179.054
369,0.613133,1175.627
370,0.6148,1175.776
371,0.616467,1175.776
372,0.618133,1174.212
373,0.6198,1173.094
374,0.621467,1172.721
375,0.623133,1172.721
376,0.6248,1172.498
377,0.626467,1174.51
378,0.6281330000000001,1174.51
379,0.6299,1176.521
380,0.631467,1176.074
381,0.633117,1173.168
382,0.634783,1173.168
383,0.63645,1169.22
384,0.638117,1170.337
385,0.639783,1170.263
386,0.64145,1170.263
387,0.643117,1172.572
388,0.644783,1176.745
389,0.64645,1175.925
390,0.6481170000000001,1175.925
391,0.6498,1176.298
392,0.65145,1175.776
393,0.6531169999999999,1174.957
394,0.654783,1174.957
395,0.65645,1174.435
396,0.658117,1173.392
397,0.659783,1173.392
398,0.66145,1175.553
399,0.663117,1173.019
400,0.664783,1172.87
401,0.66645,1172.87
402,0.668117,1175.776
403,0.669783,1172.349
404,0.67145,1173.615
405,0.673117,1173.615
406,0.674783,1170.486
407,0.67645,1171.008
408,0.678117,1173.317
409,0.679783,1173.317
410,0.68145,1173.466
411,0.683117,1177.713
412,0.684783,1177.713
413,0.68645,1179.352
414,0.688117,1181.662
415,0.689783,1180.693
416,0.691433,1180.693
417,0.6931,1179.129
418,0.694767,1176.819
419,0.696433,1174.435
420,0.6981000000000001,1174.435
421,0.699783,1175.627
422,0.701433,1174.659
423,0.7030999999999999,1174.063
424,0.704767,1174.063
425,0.706433,1171.157
426,0.7081,1169.145
427,0.709767,1168.251
428,0.711433,1168.251
429,0.7131,1166.835
430,0.7148330000000001,1168.698
431,0.716467,1168.698
432,0.7181,1168.475
433,0.719767,1167.953
434,0.721433,1166.612
435,0.7231,1166.612
436,0.7247670000000001,1168.549
437,0.726467,1171.678
438,0.7281,1174.957
439,0.7297670000000001,1174.957
440,0.731433,1174.733
441,0.7331,1170.933
442,0.7347669999999999,1170.784
443,0.736433,1170.784
444,0.7381,1168.624
445,0.739767,1170.337
446,0.741433,1170.337
447,0.7431,1174.063
448,0.744767,1173.019
449,0.746433,1174.51
450,0.748217,1174.51
451,0.749767,1176.149
452,0.7514,1173.243
453,0.753067,1172.051
454,0.754733,1172.051
455,0.7564,1170.486
456,0.758067,1169.22
457,0.759733,1171.455
458,0.7614,1171.455
459,0.7630670000000001,1173.69
460,0.764733,1173.69
461,0.7664,1173.69
462,0.7680670000000001,1171.38
463,0.769733,1171.157
464,0.7714,1169.816
465,0.7730669999999999,1169.816
466,0.774733,1171.827
467,0.7764,1173.615
468,0.778067,1172.051
469,0.779733,1172.051
470,0.7814,1169.965
471,0.783067,1170.784
472,0.784733,1172.2
473,0.7864,1172.2
474,0.788067,1173.765
475,0.789733,1176.819
476,0.7914,1173.69
477,0.793083,1173.69
478,0.794733,1171.678
479,0.7964,1169.443
480,0.798067,1169.443
481,0.799733,1165.196
482,0.8014,1167.208
483,0.803067,1170.188
484,0.804733,1170.188
485,0.8064,1171.157
486,0.808067,1174.063
487,0.809767,1170.859
488,0.811383,1170.859
489,0.8130500000000001,1165.718
490,0.814717,1163.706
491,0.816383,1163.855
492,0.8180500000000001,1163.855
493,0.819717,1168.4
494,0.821383,1171.827
495,0.8230499999999999,1171.827
496,0.824717,1172.498
497,0.826383,1171.827
498,0.82805,1169.22
499,0.829717,1169.22
500,0.831383,1170.933
501,0.8331,1173.988
502,0.834717,1175.478
503,0.836383,1175.478
504,0.83805,1176.447
505,0.839717,1174.733
506,0.841383,1174.435
507,0.84305,1174.435
508,0.8447170000000001,1173.69
509,0.846383,1173.541
510,0.84805,1170.412
511,0.8497169999999999,1170.412
512,0.851383,1166.835
513,0.85305,1164.898
514,0.8547169999999999,1164.898
515,0.856383,1163.408
516,0.85805,1165.345
517,0.859717,1163.408
518,0.861383,1163.408
519,0.86305,1165.569
520,0.864717,1164.6
521,0.866417,1164.004
522,0.86805,1164.004
523,0.869717,1168.4
524,0.871367,1166.016
525,0.8730329999999999,1166.761
526,0.874717,1166.761
527,0.876367,1169.369
528,0.878033,1169.518
529,0.8797,1169.518
530,0.881367,1169.369
531,0.883033,1169.592
532,0.8847,1170.114
533,0.886367,1170.114
534,0.888033,1170.859
535,0.8897,1172.125
536,0.891367,1171.38
537,0.893033,1171.38
538,0.8947000000000001,1168.773
539,0.896367,1167.729
540,0.898033,1170.337
541,0.8997000000000001,1170.337
542,0.901367,1174.807
543,0.903033,1173.392
544,0.904717,1175.106
545,0.906367,1175.106
546,0.908033,1172.2
547,0.9097,1171.604
548,0.911367,1171.604
549,0.913033,1171.753
550,0.9147,1168.624
551,0.916367,1169.22
552,0.918033,1169.22
553,0.9197,1164.824
554,0.921367,1164.153
555,0.923033,1165.494
556,0.9247,1165.494
557,0.9263670000000001,1162.663
558,0.928033,1163.259
559,0.9297,1164.302
560,0.93135,1164.302
561,0.933017,1164.749
562,0.934683,1167.282
563,0.93635,1167.282
564,0.9380500000000001,1169.89
565,0.939683,1169.816
566,0.94135,1167.506
567,0.943017,1167.506
568,0.9446830000000001,1168.996
569,0.94635,1168.624
570,0.948017,1168.102
571,0.9496830000000001,1168.102
572,0.951367,1167.655
573,0.953017,1166.612
574,0.9546829999999999,1163.483
575,0.95635,1163.483
576,0.958017,1164.973
577,0.959683,1166.239
578,0.96135,1166.239
579,0.963017,1167.655
580,0.964683,1169.816
581,0.96635,1168.773
582,0.968017,1168.773
583,0.969683,1169.965
584,0.97135,1169.89
585,0.973017,1169.518
586,0.974683,1169.518
587,0.9763500000000001,1170.561
588,0.978017,1171.306
589,0.979683,1170.412
590,0.9813499999999999,1170.412
591,0.983017,1169.816
592,0.98475,1168.624
593,0.9863499999999999,1166.463
594,0.9880330000000001,1166.463
595,0.989683,1166.91
596,0.991333,1167.282
597,0.993,1167.282
598,0.994667,1169.741
599,0.996333,1169.071
600,0.998,1169.071
601,0.999667,1169.071
602,1.001333,1169.816
603,1.003,1167.729
604,1.004667,1167.432
605,1.006333,1167.432
606,1.008,1168.027
607,1.009667,1169.89
608,1.011333,1170.635
609,1.013,1170.635
610,1.0147,1172.423
611,1.016333,1170.188
612,1.018,1170.188
613,1.019667,1168.177
614,1.021333,1169.369
615,1.023,1169.369
616,1.024667,1169.369
617,1.026333,1171.902
618,1.028,1172.498
619,1.029667,1173.615
620,1.031333,1173.615
621,1.033,1173.839
622,1.034667,1173.317
623,1.036333,1171.38
624,1.038,1171.38
625,1.039667,1169.071
626,1.041333,1167.879
627,1.042983,1164.6
628,1.04465,1164.6
629,1.046317,1164.302
630,1.047983,1167.729
631,1.04965,1167.729
632,1.0513,1169.294
633,1.052967,1169.816
634,1.054633,1171.157
635,1.0563,1171.157
636,1.057967,1167.357
637,1.059633,1167.879
638,1.0613,1168.922
639,1.062967,1168.922
640,1.06465,1168.624
641,1.0663,1168.773
642,1.067967,1165.792
643,1.069633,1165.792
644,1.0713,1166.835
645,1.072967,1166.984
646,1.074633,1166.984
647,1.0763,1166.686
648,1.077967,1170.337
649,1.079633,1169.816
650,1.0813,1169.816
651,1.082967,1169.443
652,1.084683,1169.965
653,1.086383,1166.314
654,1.087967,1166.314
655,1.089633,1163.259
656,1.0913,1162.961
657,1.092967,1163.036
658,1.094633,1163.036
659,1.0963,1165.941
660,1.097967,1167.879
661,1.099633,1171.604
662,1.1013,1171.604
663,1.103067,1173.466
664,1.104633,1170.71
665,1.1063,1170.71
666,1.107967,1170.561
667,1.109633,1169.667
668,1.111283,1167.208
669,1.11295,1167.208
670,1.114617,1168.922
671,1.116283,1168.102
672,1.11795,1164.973
673,1.1197,1164.973
674,1.121283,1167.282
675,1.12295,1168.4
676,1.124617,1168.773
677,1.126283,1168.773
678,1.12795,1169.443
679,1.129617,1169.369
680,1.131283,1169.369
681,1.13295,1169.592
682,1.134617,1170.337
683,1.136283,1170.784
684,1.13795,1170.784
685,1.139617,1168.027
686,1.141283,1166.09
687,1.14295,1165.42
688,1.144617,1165.42
689,1.146283,1163.855
690,1.14795,1164.451
691,1.149617,1162.887
692,1.151283,1162.887
693,1.15295,1162.365
694,1.154633,1162.961
695,1.156283,1162.961
696,1.157983,1165.569
697,1.159617,1169.294
698,1.161283,1173.615
699,1.16295,1173.615
700,1.164617,1176.074
701,1.166283,1173.019
702,1.16795,1170.114
703,1.169617,1170.114
704,1.171267,1165.867
705,1.172933,1162.812
706,1.1746,1163.11
707,1.176267,1163.11
708,1.177933,1163.632
709,1.1796,1164.526
710,1.181267,1165.941
711,1.182933,1165.941
712,1.1846,1165.271
713,1.186267,1164.377
714,1.187933,1164.377
715,1.1896,1165.718
716,1.191267,1166.09
717,1.192933,1168.549
718,1.1946,1168.549
719,1.196267,1169.518
720,1.197933,1168.549
721,1.1996,1167.357
722,1.201267,1167.357
723,1.202933,1165.494
724,1.204633,1169.741
725,1.206267,1171.678
726,1.207933,1171.678
727,1.2096,1172.349
728,1.211267,1171.604
729,1.212933,1171.604
730,1.2146,1167.506
731,1.216267,1164.451
732,1.217933,1164.526
733,1.2196,1164.526
734,1.221317,1164.302
735,1.222933,1164.153
736,1.224617,1167.059
737,1.226267,1167.059
738,1.227933,1165.643
739,1.229633,1165.271
740,1.23125,1165.122
741,1.232917,1165.122
742,1.234583,1162.812
743,1.23625,1162.589
744,1.23805,1163.185
745,1.239583,1163.185
746,1.24125,1161.769
747,1.242917,1161.322
748,1.244583,1161.322
749,1.24625,1165.122
750,1.247917,1165.047
751,1.249583,1166.761
752,1.25125,1166.761
753,1.252917,1167.432
754,1.254583,1167.282
755,1.25625,1168.847
756,1.257917,1168.847
757,1.259583,1170.486
758,1.26125,1170.561
759,1.262917,1170.337
760,1.264583,1170.337
761,1.26625,1172.945
762,1.267917,1171.529
763,1.269583,1171.529
764,1.27125,1173.317
765,1.272917,1169.965
766,1.274583,1166.09
767,1.27625,1166.09
768,1.277917,1166.016
769,1.279583,1163.11
770,1.28125,1166.09
771,1.282917,1166.09
772,1.284583,1167.655
773,1.28625,1167.506
774,1.287917,1169.667
775,1.289567,1169.667
776,1.291233,1169.667
777,1.2929,1168.847
778,1.294567,1167.133
779,1.29625,1167.133
780,1.297967,1168.4
781,1.299567,1169.816
782,1.301233,1169.816
783,1.3029,1169.145
784,1.304567,1173.094
785,1.306233,1172.349
786,1.3079,1172.349
787,1.309567,1171.082
788,1.311233,1172.051
789,1.3129,1169.294
790,1.314567,1169.294
791,1.31625,1169.369
792,1.3179,1165.792
793,1.319567,1164.153
794,1.321233,1164.153
795,1.322917,1165.494
796,1.324567,1162.44
797,1.326233,1162.44
798,1.3279,1164.153
799,1.329567,1167.432
800,1.33125,1168.847
801,1.3329,1168.847
802,1.33455,1170.486
803,1.336217,1171.231
804,1.337883,1170.114
805,1.339567,1170.114
806,1.341217,1166.537
807,1.342883,1166.835
808,1.34455,1166.388
809,1.346217,1166.388
810,1.347883,1164.302
811,1.34955,1164.749
812,1.3512,1164.749
813,1.352867,1163.185
814,1.354533,1161.769
815,1.356317,1162.514
816,1.357867,1162.514
817,1.359533,1162.514
818,1.3612,1162.365
819,1.362867,1165.42
820,1.364533,1165.42
821,1.3662,1166.984
822,1.367867,1167.208
823,1.369533,1168.177
824,1.3712,1168.177
825,1.3729,1164.973
826,1.374533,1165.42
827,1.3762,1167.655
828,1.377867,1167.655
829,1.379533,1167.879
830,1.3812,1169.667
831,1.382867,1169.667
832,1.384533,1167.133
833,1.3862,1163.334
834,1.387867,1163.334
835,1.389533,1163.334
836,1.3912,1161.918
837,1.392867,1164.898
838,1.394533,1169.741
839,1.3962,1169.741
840,1.397867,1171.231
841,1.399533,1173.094
842,1.401217,1170.561
843,1.402867,1170.561
844,1.404533,1165.941
845,1.4062,1165.345
846,1.407867,1165.345
847,1.409533,1164.004
848,1.411183,1164.004
849,1.41285,1164.377
850,1.414517,1164.377
851,1.416183,1159.683
852,1.41785,1161.918
853,1.419517,1163.11
854,1.421183,1163.11
855,1.42285,1162.812
856,1.424517,1167.432
857,1.426183,1165.047
858,1.42785,1165.047
859,1.429517,1162.887
860,1.431183,1166.165
861,1.43285,1163.706
862,1.434517,1163.706
863,1.436183,1163.408
864,1.43785,1164.973
865,1.439517,1164.973
866,1.4412,1164.079
867,1.44285,1167.58
868,1.444517,1168.251
869,1.446183,1168.251
870,1.44785,1167.879
871,1.449517,1166.388
872,1.451183,1162.887
873,1.45285,1162.887
874,1.454517,1162.812
875,1.456183,1164.228
876,1.45785,1163.632
877,1.459517,1163.632
878,1.461183,1163.632
879,1.46285,1164.302
880,1.464517,1164.302
881,1.466183,1163.408
882,1.46785,1163.036
883,1.469517,1164.153
884,1.471167,1164.153
885,1.472833,1165.494
886,1.474617,1163.781
887,1.476167,1164.6
888,1.477833,1164.6
889,1.4795,1164.675
890,1.481167,1161.099
891,1.482833,1163.036
892,1.4845,1163.036
893,1.486167,1163.259
894,1.487833,1164.377
895,1.4895,1166.165
896,1.491167,1166.165
897,1.492833,1165.345
898,1.4945,1166.314
899,1.496167,1166.314
900,1.497867,1165.718
901,1.4995,1164.898
902,1.501167,1164.824
903,1.502833,1164.824
904,1.5045,1162.589
905,1.506183,1159.683
906,1.507833,1161.247
907,1.5095,1161.247
908,1.511167,1161.471
909,1.512833,1162.663
910,1.5145,1165.196
911,1.516167,1165.196
912,1.51785,1166.388
913,1.5195,1167.357
914,1.521167,1167.357
915,1.522833,1169.443
916,1.5245,1171.082
917,1.526167,1168.251
