"ID","sea_time","fid_signal"
1,0,37.152
2,0.0017,37.184
3,0.003333,37.193
4,0.005,37.182
5,0.006667,37.182
6,0.008333,37.132
7,0.01,36.938
8,0.0117,36.938
9,0.013333,36.785
10,0.015033,36.711
11,0.01665,36.712
12,0.0184,36.712
13,0.019983,36.879
14,0.02165,37.015
15,0.023317,37.076
16,0.024983,37.076
17,0.02665,37.094
18,0.028317,37.088
19,0.029983,37.07
20,0.03165,37.07
21,0.033317,37.071
22,0.034983,37.067
23,0.03665,37.067
24,0.038317,37.072
25,0.039983,37.088
26,0.04165,37.085
27,0.043317,37.085
28,0.044983,37.104
29,0.04665,37.135
30,0.048317,37.123
31,0.049983,37.123
32,0.05165,37.146
33,0.053317,37.14
34,0.054983,37.096
35,0.05665,37.096
36,0.058317,37.114
37,0.059983,37.126
38,0.06165,37.126
39,0.063317,37.109
40,0.064983,37.099
41,0.06665,37.064
42,0.068317,37.064
43,0.069983,37.037
44,0.07165000000000001,37.047
45,0.0733,37.06
46,0.07496700000000001,37.06
47,0.07663300000000001,37.064
48,0.07829999999999999,37.035
49,0.079983,37.047
50,0.081633,37.047
51,0.0833,37.04
52,0.08495,37.055
53,0.086617,37.082
54,0.088283,37.082
55,0.08995,37.077
56,0.091617,37.093
57,0.093283,37.093
58,0.09495000000000001,37.082
59,0.09661699999999999,37.074
60,0.098283,37.091
61,0.09995,37.091
62,0.101633,37.086
63,0.103367,37.096
64,0.10495,37.112
65,0.106617,37.112
66,0.108283,37.094
67,0.10995,37.078
68,0.111617,37.078
69,0.113283,37.078
70,0.11495,37.059
71,0.116617,37.037
72,0.118283,37.037
73,0.120017,37.046
74,0.121617,37.058
75,0.123283,37.07
76,0.12495,37.07
77,0.126617,37.09
78,0.128283,37.089
79,0.12995,37.09
80,0.131617,37.09
81,0.133283,37.088
82,0.134933,37.081
83,0.136667,37.115
84,0.138267,37.115
85,0.139933,37.099
86,0.1416,37.086
87,0.143267,37.088
88,0.144933,37.088
89,0.1466,37.048
90,0.148267,37.044
91,0.149933,37.044
92,0.1516,37.047
93,0.153267,37.048
94,0.154933,37.057
95,0.156633,37.057
96,0.158267,37.063
97,0.159933,37.057
98,0.1616,37.059
99,0.163267,37.059
100,0.164933,37.055
101,0.1666,37.051
102,0.168267,37.07
103,0.169933,37.07
104,0.1716,37.097
105,0.173267,37.131
106,0.174933,37.131
107,0.1766,37.141
108,0.178267,37.132
109,0.179933,37.116
110,0.1816,37.116
111,0.183283,37.08
112,0.184933,37.058
113,0.1866,37.06
114,0.188283,37.06
115,0.189967,37.09
116,0.1916,37.129
117,0.193267,37.142
118,0.194917,37.142
119,0.196583,37.145
120,0.19825,37.099
121,0.199917,37.099
122,0.201583,37.039
123,0.20325,37.014
124,0.204917,37.011
125,0.206583,37.011
126,0.20825,37.003
127,0.209917,37.035
128,0.211583,37.071
129,0.21325,37.071
130,0.214917,37.074
131,0.216583,37.086
132,0.21825,37.109
133,0.219917,37.109
134,0.22165,37.112
135,0.22325,37.128
136,0.224917,37.142
137,0.226617,37.142
138,0.22825,37.141
139,0.229917,37.169
140,0.231583,37.169
141,0.23325,37.18
142,0.234917,37.204
143,0.236583,37.2
144,0.23835,37.2
145,0.239917,37.213
146,0.241583,37.239
147,0.24325,37.292
148,0.244917,37.292
149,0.246583,37.355
150,0.24825,37.379
151,0.249917,37.43
152,0.251583,37.43
153,0.25325,37.45
154,0.255033,37.47
155,0.256567,37.47
156,0.258233,37.51
157,0.2599,37.532
158,0.261567,37.592
159,0.263233,37.592
160,0.2649,37.669
161,0.266567,37.793
162,0.268233,37.899
163,0.2699,37.899
164,0.271567,37.988
165,0.273233,38.114
166,0.2749,38.221
167,0.276567,38.221
168,0.278233,38.359
169,0.2799,38.53
170,0.281583,38.716
171,0.283267,38.716
172,0.2849,38.948
173,0.286567,39.266
174,0.288233,39.266
175,0.2899,39.627
176,0.291567,40.055
177,0.293233,40.674
178,0.2949,40.674
179,0.296567,41.547
180,0.298233,42.848
181,0.2999,44.739
182,0.301567,44.739
183,0.30325,47.332
184,0.3049,50.885
185,0.306567,55.58
186,0.308233,55.58
187,0.3099,61.619
188,0.311567,69.175
189,0.313233,69.175
190,0.3149,78.361
191,0.31655,89.255
192,0.318217,101.843
193,0.319883,101.843
194,0.32155,116.039
195,0.323217,131.635
196,0.324883,148.392
197,0.32655,148.392
198,0.328217,165.994
199,0.329883,184.021
200,0.33155,202.064
201,0.333217,202.064
202,0.334883,219.709
203,0.33655,236.519
204,0.338217,252.097
205,0.3399,252.097
206,0.34155,266.08
207,0.343217,278.106
208,0.344883,278.106
209,0.34655,287.84
210,0.348217,295.14
211,0.349883,299.842
212,0.35155,299.842
213,0.353217,301.872
214,0.354883,301.323
215,0.356633,298.179
216,0.358217,298.179
217,0.359883,292.629
218,0.361583,284.868
219,0.363217,275.135
220,0.364883,275.135
221,0.36655,263.795
222,0.368217,251.143
223,0.369883,251.143
224,0.37155,237.531
225,0.3732,223.321
226,0.3749,208.855
227,0.376517,208.855
228,0.378183,194.412
229,0.37985,180.31
230,0.381517,166.764
231,0.383183,166.764
232,0.38485,153.939
233,0.386517,141.992
234,0.388183,131.045
235,0.389967,131.045
236,0.391517,121.088
237,0.393183,112.199
238,0.39485,112.199
239,0.396517,104.379
240,0.398183,97.471
241,0.39985,91.527
242,0.401517,91.527
243,0.403183,86.428
244,0.40485,82.05800000000001
245,0.406517,78.417
246,0.408183,78.417
247,0.40985,75.372
248,0.411517,72.821
249,0.413183,70.782
250,0.41485,70.782
251,0.416517,69.16800000000001
252,0.418183,67.944
253,0.41985,67.137
254,0.421517,67.137
255,0.423183,66.70399999999999
256,0.42485,66.70699999999999
257,0.426517,66.70699999999999
258,0.428183,67.254
259,0.42985,68.44799999999999
260,0.431517,70.366
261,0.433183,70.366
262,0.434833,73.163
263,0.4365,76.976
264,0.438167,82.005
265,0.439833,82.005
266,0.4415,88.447
267,0.443167,96.504
268,0.44485,106.35
269,0.446517,106.35
270,0.448167,118.132
271,0.449833,132.077
272,0.4515,132.077
273,0.453167,148.232
274,0.454833,166.71
275,0.4565,187.532
276,0.458167,187.532
277,0.459833,210.687
278,0.4615,236.181
279,0.463167,263.875
280,0.464833,263.875
281,0.4665,293.694
282,0.468167,325.467
283,0.469833,358.967
284,0.4715,358.967
285,0.473167,394.037
286,0.474883,430.439
287,0.4765,467.864
288,0.478167,467.864
289,0.479833,506.115
290,0.4815,544.919
291,0.483167,544.919
292,0.484833,583.9880000000001
293,0.4865,623.14
294,0.488167,662.187
295,0.489833,662.187
296,0.491567,700.852
297,0.493167,738.973
298,0.494817,776.338
299,0.496483,776.338
300,0.49815,812.6849999999999
301,0.499817,848.019
302,0.501483,882.167
303,0.50315,882.167
304,0.504817,914.986
305,0.506483,946.388
306,0.508267,976.264
307,0.509817,976.264
308,0.511483,1004.54
309,0.51315,1031.202
310,0.514817,1031.202
311,0.516483,1056.227
312,0.51815,1079.573
313,0.51985,1101.218
314,0.5215,1101.218
315,0.52315,1121.166
316,0.524817,1139.45
317,0.526483,1156.061
318,0.52815,1156.061
319,0.529817,1171.078
320,0.531483,1184.562
321,0.53315,1196.514
322,0.534817,1196.514
323,0.536483,1206.953
324,0.53815,1216.009
325,0.539817,1216.009
326,0.541483,1223.782
327,0.54315,1230.37
328,0.544817,1235.838
329,0.5464830000000001,1235.838
330,0.54815,1240.149
331,0.549817,1243.401
332,0.5514829999999999,1245.667
333,0.553133,1245.667
334,0.5548,1247.025
335,0.556467,1247.566
336,0.558133,1247.234
337,0.5598,1247.234
338,0.561467,1246.149
339,0.563133,1244.365
340,0.5648,1244.365
341,0.5664670000000001,1241.964
342,0.568133,1239.041
343,0.5698,1235.533
344,0.5714669999999999,1235.533
345,0.573133,1231.559
346,0.5748,1227.067
347,0.576467,1222.08
348,0.578133,1222.08
349,0.5798,1216.715
350,0.581467,1210.915
351,0.583133,1204.808
352,0.5848,1204.808
353,0.586483,1198.411
354,0.588133,1191.679
355,0.589817,1184.644
356,0.591467,1184.644
357,0.5931999999999999,1177.296
358,0.5948,1169.643
359,0.596467,1169.643
360,0.598133,1161.791
361,0.5998,1153.725
362,0.601467,1145.475
363,0.603133,1145.475
364,0.6048,1137.012
365,0.606467,1128.333
366,0.608133,1119.477
367,0.6098170000000001,1119.477
368,0.611467,1110.408
369,0.613117,1101.207
370,0.614783,1091.895
371,0.6164500000000001,1091.895
372,0.618117,1082.467
373,0.619783,1072.905
374,0.6214499999999999,1072.905
375,0.623117,1063.246
376,0.624783,1053.456
377,0.626567,1043.593
378,0.628117,1043.593
379,0.629783,1033.697
380,0.63145,1023.775
381,0.633117,1013.792
382,0.634783,1013.792
383,0.63645,1003.743
384,0.638117,993.644
385,0.639783,983.491
386,0.64145,983.491
387,0.643117,973.354
388,0.644783,963.242
389,0.64645,963.242
390,0.6481170000000001,953.106
391,0.649783,942.963
392,0.65145,932.831
393,0.6531169999999999,932.831
394,0.654783,922.688
395,0.65645,912.639
396,0.658117,902.622
397,0.659783,902.622
398,0.66145,892.647
399,0.663133,882.717
400,0.664783,872.816
401,0.666483,872.816
402,0.6681,863.025
403,0.669767,853.3099999999999
404,0.6714329999999999,843.655
405,0.6731,843.655
406,0.67475,834.069
407,0.676417,824.53
408,0.678083,824.53
409,0.67975,815.039
410,0.6814170000000001,805.648
411,0.683083,796.349
412,0.68475,796.349
413,0.6864170000000001,787.151
414,0.688083,778.046
415,0.68975,769.003
416,0.6914169999999999,769.003
417,0.693083,760.068
418,0.69475,751.192
419,0.696417,742.402
420,0.698083,742.402
421,0.69975,733.7569999999999
422,0.701417,725.187
423,0.703083,725.187
424,0.70475,716.748
425,0.706417,708.378
426,0.708083,700.083
427,0.70975,700.083
428,0.711417,691.883
429,0.713083,683.73
430,0.71475,675.716
431,0.716417,675.716
432,0.718083,667.7809999999999
433,0.71975,659.95
434,0.721417,652.217
435,0.723083,652.217
436,0.72475,644.582
437,0.726417,637.0359999999999
438,0.728133,629.627
439,0.72975,629.627
440,0.731417,622.299
441,0.733083,615.048
442,0.734733,615.048
443,0.736433,607.932
444,0.7381,600.899
445,0.739733,593.995
446,0.7413999999999999,593.995
447,0.743067,587.222
448,0.7448669999999999,580.52
449,0.7464,573.8819999999999
450,0.748067,573.8819999999999
451,0.749733,567.336
452,0.7514,560.8630000000001
453,0.753067,554.478
454,0.754733,554.478
455,0.7564,548.151
456,0.758067,541.949
457,0.759733,541.949
458,0.761417,535.838
459,0.7630670000000001,529.842
460,0.764733,523.913
461,0.7664,523.913
462,0.7680670000000001,518.043
463,0.769733,512.252
464,0.7714,506.523
465,0.7730669999999999,506.523
466,0.774733,500.905
467,0.7764,495.382
468,0.778067,489.908
469,0.779733,489.908
470,0.7814,484.496
471,0.783067,479.172
472,0.784733,473.909
473,0.7864,473.909
474,0.788067,468.759
475,0.789733,463.687
476,0.7914,463.687
477,0.793067,458.686
478,0.794717,453.748
479,0.796383,448.848
480,0.79805,448.848
481,0.799717,444.026
482,0.801383,439.28
483,0.80305,434.645
484,0.804717,434.645
485,0.806383,430.083
486,0.80805,425.553
487,0.809717,421.089
488,0.811383,421.089
489,0.8130500000000001,416.657
490,0.814717,412.283
491,0.816383,412.283
492,0.8180500000000001,407.995
493,0.819717,403.76
494,0.821383,399.607
495,0.8230499999999999,399.607
496,0.824717,395.526
497,0.826383,391.494
498,0.82805,387.523
499,0.829767,387.523
500,0.831383,383.574
501,0.83305,379.66
502,0.834717,375.798
503,0.836383,375.798
504,0.83805,371.955
505,0.839717,368.173
506,0.841383,368.173
507,0.84305,364.424
508,0.8447170000000001,360.753
509,0.846383,357.152
510,0.84805,357.152
511,0.8497169999999999,353.571
512,0.851367,350.07
513,0.85305,346.614
514,0.8547,346.614
515,0.856367,343.182
516,0.858033,339.796
517,0.8597,336.481
518,0.861367,336.481
519,0.863167,333.167
520,0.8647,329.91
521,0.866367,326.697
522,0.8680330000000001,326.697
523,0.8697,323.471
524,0.871367,320.303
525,0.8730329999999999,320.303
526,0.8747,317.2
527,0.876367,314.155
528,0.878033,311.185
529,0.879717,311.185
530,0.8814,308.222
531,0.883033,305.285
532,0.8847,302.362
533,0.886367,302.362
534,0.888033,299.464
535,0.8897,296.652
536,0.891367,293.855
537,0.893033,293.855
538,0.8947000000000001,291.136
539,0.896367,288.443
540,0.898033,288.443
541,0.8997000000000001,285.792
542,0.901367,283.184
543,0.903033,280.562
544,0.9046999999999999,280.562
545,0.906367,277.994
546,0.908033,275.441
547,0.9097,272.892
548,0.911367,272.892
549,0.913017,270.427
550,0.914683,267.954
551,0.91635,265.516
552,0.918017,265.516
553,0.919683,263.12
554,0.92135,260.72
555,0.923017,258.357
556,0.924683,258.357
557,0.92635,256.021
558,0.928017,253.76
559,0.929683,253.76
560,0.93135,251.504
561,0.933017,249.266
562,0.934683,247.069
563,0.93635,247.069
564,0.938017,244.874
565,0.939683,242.709
566,0.94135,240.591
567,0.943017,240.591
568,0.9446830000000001,238.481
569,0.94635,236.367
570,0.948067,234.292
571,0.9496830000000001,234.292
572,0.951383,232.258
573,0.953017,230.283
574,0.9546829999999999,230.283
575,0.95635,228.331
576,0.958017,226.384
577,0.959667,224.464
578,0.961333,224.464
579,0.963,222.535
580,0.9646670000000001,220.677
581,0.966333,218.837
582,0.968,218.837
583,0.9696669999999999,216.988
584,0.971333,215.164
585,0.972983,213.35
586,0.97465,213.35
587,0.976317,211.57
588,0.977983,209.828
589,0.97965,209.828
590,0.981433,208.1
591,0.9829830000000001,206.421
592,0.98465,204.762
593,0.986317,204.762
594,0.9879829999999999,203.115
595,0.98965,201.476
596,0.991317,199.824
597,0.9929829999999999,199.824
598,0.99465,198.212
599,0.996317,196.612
600,0.997983,195.07
601,0.99965,195.07
602,1.001317,193.539
603,1.002983,192.007
604,1.00465,190.493
605,1.006317,190.493
606,1.007983,188.97
607,1.00965,187.466
608,1.011317,187.466
609,1.012983,185.996
610,1.01465,184.532
611,1.016317,183.105
612,1.017983,183.105
613,1.01965,181.653
614,1.021317,180.229
615,1.022983,178.827
616,1.02465,178.827
617,1.026317,177.426
618,1.027983,176.068
619,1.02965,174.739
620,1.031317,174.739
621,1.032983,173.406
622,1.034633,172.096
623,1.0363,172.096
624,1.037967,170.813
625,1.039633,169.523
626,1.0413,168.271
627,1.042967,168.271
628,1.044633,167.056
629,1.0463,165.827
630,1.047967,164.601
631,1.049633,164.601
632,1.0513,163.388
633,1.052967,162.14
634,1.054633,160.937
635,1.0563,160.937
636,1.057967,159.76
637,1.059633,158.599
638,1.0613,157.467
639,1.062967,157.467
640,1.064633,156.334
641,1.066367,155.175
642,1.067967,155.175
643,1.069633,154.016
644,1.0713,152.898
645,1.072967,151.802
646,1.074633,151.802
647,1.0763,150.739
648,1.077967,149.687
649,1.079633,148.649
650,1.0813,148.649
651,1.082967,147.627
652,1.084633,146.609
653,1.0863,145.604
654,1.087967,145.604
655,1.089633,144.575
656,1.091333,143.547
657,1.092983,143.547
658,1.094617,142.549
659,1.096283,141.555
660,1.09795,140.572
661,1.099667,140.572
662,1.101283,139.602
663,1.10295,138.608
664,1.104617,137.655
665,1.106283,137.655
666,1.10795,136.712
667,1.109617,135.793
668,1.111283,134.923
669,1.11295,134.923
670,1.114617,134.048
671,1.116283,133.178
672,1.11795,132.321
673,1.119617,132.321
674,1.121283,131.45
675,1.12295,130.577
676,1.124617,130.577
677,1.126283,129.739
678,1.12795,128.873
679,1.129617,128.043
680,1.131283,128.043
681,1.13295,127.207
682,1.134617,126.351
683,1.136283,125.498
684,1.13795,125.498
685,1.139617,124.667
686,1.141283,123.888
687,1.14295,123.123
688,1.144617,123.123
689,1.146283,122.391
690,1.14795,121.637
691,1.149617,121.637
692,1.151283,120.848
693,1.152933,120.067
694,1.1546,119.305
695,1.156267,119.305
696,1.157933,118.556
697,1.1596,117.83
698,1.161267,117.122
699,1.162933,117.122
700,1.164617,116.401
701,1.166333,115.684
702,1.167933,114.987
703,1.1696,114.987
704,1.171267,114.293
705,1.172933,113.633
706,1.1746,112.983
707,1.176267,112.983
708,1.177933,112.315
709,1.1796,111.651
710,1.181267,111.651
711,1.182933,110.99
712,1.184617,110.318
713,1.186267,109.693
714,1.187933,109.693
715,1.1896,109.059
716,1.191267,108.425
717,1.192933,107.795
718,1.1946,107.795
719,1.196267,107.154
720,1.197933,106.543
721,1.1996,105.935
722,1.20135,105.935
723,1.202933,105.334
724,1.2046,104.737
725,1.206267,104.737
726,1.207933,104.133
727,1.2096,103.526
728,1.211267,102.953
729,1.212917,102.953
730,1.214583,102.38
731,1.21625,101.812
732,1.218017,101.256
733,1.219583,101.256
734,1.22125,100.677
735,1.222917,100.11
736,1.224583,99.57899999999999
737,1.22625,99.57899999999999
738,1.227917,99.023
739,1.229583,98.51300000000001
740,1.23125,98.51300000000001
741,1.232917,98.006
742,1.234667,97.485
743,1.23625,96.979
744,1.23795,96.979
745,1.239583,96.44799999999999
746,1.24125,95.911
747,1.242917,95.372
748,1.244583,95.372
749,1.24625,94.852
750,1.247917,94.34999999999999
751,1.249583,93.86199999999999
752,1.251233,93.86199999999999
753,1.2529,93.396
754,1.254567,92.91500000000001
755,1.256233,92.443
756,1.2579,92.443
757,1.259567,91.968
758,1.261233,91.499
759,1.2629,91.499
760,1.264567,91.08
761,1.266233,90.64
762,1.2679,90.2
763,1.269567,90.2
764,1.271233,89.747
765,1.2729,89.262
766,1.27455,88.786
767,1.276217,88.786
768,1.277883,88.367
769,1.27955,87.943
770,1.281217,87.55
771,1.282883,87.55
772,1.28455,87.155
773,1.286217,86.705
774,1.287883,86.705
775,1.28955,86.27200000000001
776,1.291217,85.85899999999999
777,1.292883,85.468
778,1.29455,85.468
779,1.296217,85.08799999999999
780,1.2979,84.715
781,1.29955,84.29900000000001
782,1.301217,84.29900000000001
783,1.302917,83.873
784,1.30455,83.452
785,1.306217,83.02
786,1.307883,83.02
787,1.30955,82.63
788,1.311217,82.26900000000001
789,1.312883,81.917
790,1.31455,81.917
791,1.316217,81.562
792,1.317883,81.191
793,1.319583,81.191
794,1.321217,80.84
795,1.322883,80.518
796,1.32455,80.209
797,1.326217,80.209
798,1.327883,79.89100000000001
799,1.32955,79.554
800,1.331217,79.193
801,1.332867,79.193
802,1.334533,78.866
803,1.336283,78.518
804,1.337867,78.18899999999999
805,1.33955,78.18899999999999
806,1.3412,77.85299999999999
807,1.342867,77.474
808,1.344533,77.474
809,1.3462,77.137
810,1.347867,76.753
811,1.349533,76.411
812,1.3512,76.411
813,1.352967,76.087
814,1.354533,75.75700000000001
815,1.3562,75.461
816,1.357867,75.461
817,1.359533,75.173
818,1.3612,74.92100000000001
819,1.362867,74.649
820,1.364533,74.649
821,1.3662,74.369
822,1.367867,74.029
823,1.369533,73.673
824,1.3712,73.673
825,1.372867,73.36199999999999
826,1.37455,73.05200000000001
827,1.3762,73.05200000000001
828,1.377867,72.804
829,1.379533,72.56999999999999
830,1.3812,72.291
831,1.382867,72.291
832,1.384533,72.02
833,1.3862,71.736
834,1.387867,71.41200000000001
835,1.389533,71.41200000000001
836,1.391217,71.14
837,1.3929,70.886
838,1.394517,70.621
839,1.396183,70.621
840,1.39785,70.392
841,1.399517,70.167
842,1.401183,70.167
843,1.40285,69.916
844,1.404517,69.672
845,1.406183,69.41500000000001
846,1.40785,69.41500000000001
847,1.409517,69.12
848,1.411183,68.84399999999999
849,1.41285,68.559
850,1.414517,68.559
851,1.416183,68.31699999999999
852,1.41785,68.101
853,1.419517,67.87
854,1.421183,67.87
855,1.42285,67.64700000000001
856,1.424517,67.373
857,1.426183,67.373
858,1.42785,67.08
859,1.429517,66.84099999999999
860,1.431183,66.614
861,1.43285,66.614
862,1.434517,66.39400000000001
863,1.436183,66.21299999999999
864,1.437883,65.97199999999999
865,1.439517,65.97199999999999
866,1.441183,65.736
867,1.44285,65.498
868,1.444517,65.273
869,1.446217,65.273
870,1.44785,65.05800000000001
871,1.449517,64.86
872,1.451183,64.66800000000001
873,1.452833,64.66800000000001
874,1.45455,64.471
875,1.456167,64.29000000000001
876,1.457833,64.29000000000001
877,1.4595,64.084
878,1.461167,63.872
879,1.462833,63.644
880,1.4645,63.644
881,1.466167,63.414
882,1.467833,63.194
883,1.4695,63.006
884,1.471283,63.006
885,1.472833,62.832
886,1.4745,62.647
887,1.476167,62.453
888,1.477833,62.453
889,1.4795,62.262
890,1.481167,62.04
891,1.482833,62.04
892,1.4845,61.814
893,1.486167,61.639
894,1.487867,61.45
895,1.4895,61.45
896,1.491167,61.285
897,1.492833,61.134
898,1.4945,60.948
899,1.496167,60.948
900,1.497833,60.789
901,1.4995,60.587
902,1.501167,60.423
903,1.502833,60.423
904,1.5045,60.241
905,1.506167,60.033
906,1.507833,59.874
907,1.5095,59.874
908,1.51115,59.702
909,1.512817,59.537
910,1.514483,59.537
911,1.51615,59.377
912,1.517817,59.207
913,1.519483,59.035
914,1.5212,59.035
915,1.522817,58.88
916,1.524483,58.694
917,1.52615,58.54
918,1.527817,58.54
919,1.529483,58.378
920,1.53115,58.198
921,1.532817,58.048
922,1.534483,58.048
923,1.53615,57.888
924,1.537817,57.727
925,1.539483,57.727
926,1.541133,57.589
927,1.5428,57.441
928,1.544467,57.314
929,1.546133,57.314
930,1.5478,57.177
931,1.549467,57.048
932,1.551133,56.94
933,1.5528,56.94
934,1.554467,56.775
935,1.556133,56.65
936,1.5578,56.478
937,1.559467,56.478
938,1.561133,56.342
939,1.5628,56.228
940,1.564467,56.063
941,1.566133,56.063
942,1.567833,55.905
943,1.569467,55.726
944,1.571133,55.726
945,1.572783,55.591
946,1.57445,55.468
947,1.576117,55.379
948,1.577783,55.379
