"ID","sea_time","fid_signal"
1,0,1159.757
2,0.001667,1159.385
3,0.003367,1158.863
4,0.005,1162.663
5,0.006717,1162.663
6,0.008333,1162.887
7,0.01,1166.314
8,0.011667,1166.314
9,0.013333,1167.879
10,0.015,1169.592
11,0.016667,1169.145
12,0.018333,1169.145
13,0.02,1165.718
14,0.021667,1164.898
15,0.0234,1163.781
16,0.025,1163.781
17,0.026667,1163.408
18,0.028333,1162.961
19,0.030017,1161.247
20,0.0317,1161.247
21,0.033317,1162.663
22,0.034983,1165.494
23,0.03665,1164.973
24,0.038317,1164.973
25,0.040083,1165.271
26,0.04165,1164.153
27,0.043317,1164.153
28,0.044983,1161.099
29,0.04665,1162.216
30,0.048317,1163.334
31,0.049983,1163.334
32,0.05165,1162.589
33,0.053317,1163.706
34,0.054983,1162.961
35,0.05665,1162.961
36,0.058317,1163.632
37,0.059983,1163.483
38,0.06165,1163.334
39,0.063333,1163.334
40,0.064983,1166.835
41,0.06665,1167.58
42,0.068317,1167.58
43,0.069983,1169.89
44,0.07165000000000001,1169.816
45,0.07331699999999999,1165.941
46,0.07498299999999999,1165.941
47,0.07665,1165.345
48,0.078317,1164.6
49,0.079983,1164.079
50,0.08165,1164.079
51,0.083317,1164.824
52,0.084983,1166.463
53,0.08665,1165.122
54,0.08831700000000001,1165.122
55,0.090017,1166.686
56,0.09163300000000001,1166.09
57,0.09329999999999999,1166.09
58,0.094967,1163.483
59,0.096633,1162.887
60,0.0983,1160.279
61,0.099983,1160.279
62,0.101633,1161.024
63,0.1033,1161.024
64,0.104967,1166.537
65,0.106633,1166.537
66,0.1083,1166.612
67,0.109967,1165.643
68,0.111633,1164.824
69,0.1133,1164.824
70,0.114967,1159.236
71,0.116633,1161.247
72,0.1183,1165.867
73,0.119967,1165.867
74,0.121633,1169.965
75,0.1233,1170.784
76,0.125,1170.784
77,0.126633,1170.635
78,0.1283,1166.984
79,0.129967,1166.239
80,0.131633,1166.239
81,0.1333,1169.816
82,0.134967,1171.753
83,0.136633,1174.659
84,0.1383,1174.659
85,0.139967,1174.212
86,0.14165,1171.455
87,0.1433,1168.102
88,0.144967,1168.102
89,0.146633,1166.314
90,0.1483,1164.153
91,0.14995,1164.153
92,0.151617,1165.122
93,0.153283,1165.718
94,0.15495,1165.047
95,0.156617,1165.047
96,0.158383,1168.698
97,0.15995,1171.678
98,0.161617,1172.572
99,0.163283,1172.572
100,0.16495,1171.678
101,0.166617,1167.282
102,0.168283,1164.377
103,0.16995,1164.377
104,0.1716,1163.557
105,0.1733,1161.471
106,0.17495,1162.067
107,0.1766,1162.067
108,0.178267,1159.832
109,0.179933,1162.142
110,0.1816,1162.142
111,0.183267,1165.792
112,0.184933,1165.792
113,0.1866,1167.059
114,0.188267,1167.059
115,0.189933,1164.302
116,0.1916,1162.142
117,0.193267,1165.345
118,0.194933,1165.345
119,0.1966,1164.302
120,0.198267,1163.557
121,0.199933,1164.004
122,0.2016,1164.004
123,0.203267,1164.079
124,0.204933,1166.09
125,0.2066,1166.09
126,0.208267,1169.592
127,0.209917,1169.22
128,0.211583,1165.494
129,0.21325,1165.494
130,0.214917,1164.079
131,0.216583,1161.62
132,0.21825,1159.31
133,0.219917,1159.31
134,0.221583,1160.949
135,0.22325,1158.789
136,0.224917,1155.958
137,0.226583,1155.958
138,0.22825,1158.938
139,0.22995,1157.597
140,0.231583,1161.099
141,0.23325,1161.099
142,0.234917,1163.483
143,0.236583,1164.377
144,0.238267,1164.377
145,0.239917,1165.643
146,0.241583,1164.451
147,0.24335,1164.749
148,0.244917,1164.749
149,0.246583,1164.973
150,0.24825,1162.738
151,0.249917,1165.122
152,0.251583,1165.122
153,0.25325,1164.6
154,0.254917,1164.973
155,0.256583,1168.549
156,0.25825,1168.549
157,0.259917,1165.494
158,0.261583,1165.718
159,0.26325,1165.718
160,0.264917,1163.93
161,0.266583,1162.291
162,0.26825,1162.738
163,0.2699,1162.738
164,0.271567,1164.526
165,0.273233,1162.961
166,0.2749,1162.291
167,0.2767,1162.291
168,0.278233,1162.44
169,0.2799,1164.675
170,0.281567,1168.475
171,0.283233,1168.475
172,0.2849,1168.102
173,0.286567,1169.071
174,0.288233,1169.071
175,0.2899,1165.271
176,0.291567,1163.483
177,0.293233,1165.569
178,0.2949,1165.569
179,0.296567,1166.463
180,0.298233,1168.847
181,0.2999,1168.922
182,0.301567,1168.922
183,0.303233,1170.71
184,0.3049,1170.114
185,0.306567,1172.87
186,0.308233,1172.87
187,0.3099,1179.278
188,0.311567,1184.791
189,0.313233,1190.454
190,0.3149,1190.454
191,0.316567,1194.328
192,0.318233,1198.351
193,0.3199,1198.351
194,0.321567,1202.375
195,0.323233,1211.092
196,0.3249,1221.299
197,0.326567,1221.299
198,0.328217,1228.824
199,0.329883,1237.616
200,0.33155,1247.972
201,0.333217,1247.972
202,0.334883,1259.223
203,0.33655,1271.814
204,0.338217,1286.417
205,0.339883,1286.417
206,0.34155,1294.762
207,0.343217,1303.181
208,0.344883,1303.181
209,0.34655,1313.09
210,0.348217,1323.596
211,0.349883,1339.018
212,0.35155,1339.018
213,0.353217,1348.257
214,0.354883,1359.954
215,0.35655,1368.076
216,0.358217,1368.076
217,0.359883,1378.357
218,0.361617,1394.078
219,0.363217,1414.94
220,0.364883,1414.94
221,0.36655,1455.247
222,0.368217,1513.958
223,0.369883,1601.8
224,0.37155,1601.8
225,0.373217,1725.256
226,0.374883,1880.154
227,0.37655,1880.154
228,0.378217,2080.724
229,0.379883,2327.934
230,0.38155,2619.55
231,0.383217,2619.55
232,0.384883,2959.594
233,0.38655,3336.072
234,0.388217,3751.516
235,0.389867,3751.516
236,0.391533,4197.061
237,0.3932,4658.401
238,0.394917,5135.164
239,0.396533,5135.164
240,0.3982,5612.15
241,0.399867,6091.222
242,0.401533,6091.222
243,0.4032,6567.985
244,0.404867,7037.893
245,0.406533,7496.849
246,0.4082,7496.849
247,0.409867,7937.849
248,0.411533,8362.159
249,0.4132,8764.714
250,0.414867,8764.714
251,0.416533,9144.396000000001
252,0.4182,9495.317999999999
253,0.419867,9816.362999999999
254,0.421533,9816.362999999999
255,0.4232,10108.352
256,0.424867,10369.494
257,0.426533,10594.055
258,0.4282,10594.055
259,0.429867,10779.724
260,0.431533,10916.293
261,0.4332,10916.293
262,0.434867,11004.21
263,0.436533,11038.854
264,0.4382,11014.119
265,0.439867,11014.119
266,0.441533,10928.512
267,0.4432,10776.371
268,0.444867,10561.794
269,0.446533,10561.794
270,0.4482,10289.848
271,0.44985,9969.397999999999
272,0.451517,9608.269
273,0.453183,9608.269
274,0.45485,9223.371999999999
275,0.456517,8822.083000000001
276,0.458217,8822.083000000001
277,0.459917,8416.25
278,0.461517,8020.699
279,0.463167,7637.963
280,0.464833,7637.963
281,0.4665,7274.896
282,0.4682,6935.149
283,0.469833,6612.241
284,0.4715,6612.241
285,0.473167,6308.407
286,0.474833,6025.359
287,0.4765,5760.118
288,0.478167,5760.118
289,0.479883,5517.378
290,0.4815,5293.861
291,0.483167,5293.861
292,0.484833,5089.492
293,0.4865,4899.875
294,0.488167,4718.527
295,0.489833,4718.527
296,0.4915,4549.697
297,0.493167,4389.957
298,0.494833,4240.722
299,0.4965,4240.722
300,0.498167,4102.141
301,0.499833,3972.724
302,0.5014999999999999,3854.707
303,0.503167,3854.707
304,0.504833,3738.85
305,0.5065,3636.479
306,0.50815,3540.888
307,0.509817,3540.888
308,0.511483,3446.564
309,0.5132330000000001,3362.298
310,0.514817,3362.298
311,0.516483,3275.424
312,0.51815,3192.425
313,0.519817,3114.715
314,0.521483,3114.715
315,0.52315,3040.805
316,0.524817,2973.974
317,0.526483,2909.228
318,0.52815,2909.228
319,0.529817,2845.973
320,0.531483,2787.113
321,0.533183,2729.52
322,0.534817,2729.52
323,0.536483,2673.864
324,0.53815,2623.424
325,0.539817,2623.424
326,0.541483,2573.43
327,0.54315,2528.354
328,0.544817,2484.098
329,0.5464830000000001,2484.098
330,0.54815,2439.618
331,0.549817,2394.021
332,0.5514829999999999,2349.988
333,0.55315,2349.988
334,0.554817,2311.245
335,0.5565,2273.768
336,0.55815,2239.049
337,0.559817,2239.049
338,0.561483,2206.787
339,0.56315,2174.75
340,0.564817,2144.65
341,0.566483,2144.65
342,0.56815,2117.083
343,0.5698,2084.97
344,0.5714669999999999,2084.97
345,0.573133,2055.392
346,0.5748,2030.06
347,0.576467,2004.728
348,0.578133,2004.728
349,0.5798,1982.302
350,0.581467,1960.993
351,0.583133,1935.586
352,0.5848,1935.586
353,0.586467,1914.054
354,0.588133,1894.236
355,0.5898,1872.405
356,0.591467,1872.405
357,0.593133,1853.406
358,0.5948,1833.215
359,0.596467,1833.215
360,0.5982,1816.079
361,0.5998,1797.005
362,0.601483,1781.21
363,0.603133,1781.21
364,0.6048,1766.756
365,0.606467,1750.514
366,0.608133,1735.464
367,0.6098,1735.464
368,0.611467,1717.582
369,0.613133,1700.818
370,0.614883,1683.235
371,0.616467,1683.235
372,0.618133,1666.844
373,0.6198,1653.135
374,0.621467,1637.936
375,0.623133,1637.936
376,0.6248,1627.654
377,0.626467,1618.713
378,0.6281330000000001,1618.713
379,0.629783,1609.549
380,0.631583,1599.789
381,0.633117,1589.283
382,0.634783,1589.283
383,0.63645,1580.417
384,0.638117,1568.496
385,0.639783,1556.799
386,0.641467,1556.799
387,0.643117,1544.803
388,0.644783,1532.882
389,0.64645,1526.326
390,0.6481170000000001,1526.326
391,0.649783,1519.397
392,0.65145,1512.468
393,0.65315,1512.468
394,0.654783,1506.582
395,0.65645,1497.79
396,0.658117,1487.881
397,0.659783,1487.881
398,0.66145,1478.94
399,0.663117,1471.415
400,0.664783,1463.518
401,0.66645,1463.518
402,0.668117,1458.824
403,0.669783,1453.757
404,0.67145,1443.848
405,0.673117,1443.848
406,0.674783,1436.546
407,0.67645,1431.406
408,0.678133,1421.645
409,0.679783,1421.645
410,0.68145,1417.845
411,0.683117,1410.917
412,0.684783,1410.917
413,0.68645,1405.403
414,0.688117,1402.944
415,0.689767,1393.482
416,0.691433,1393.482
417,0.6931,1387.894
418,0.694767,1379.028
419,0.696433,1373.44
420,0.6981000000000001,1373.44
421,0.699767,1371.95
422,0.701433,1368.821
423,0.7030999999999999,1366.437
424,0.704767,1366.437
425,0.706433,1361.072
426,0.7081,1358.315
427,0.709767,1358.315
428,0.711433,1354.143
429,0.7131,1350.418
430,0.714767,1346.543
431,0.71645,1346.543
432,0.7181,1339.987
433,0.719767,1335.74
434,0.721433,1331.419
435,0.7231,1331.419
436,0.7247670000000001,1327.544
437,0.726433,1326.129
438,0.7281,1322.404
439,0.7297670000000001,1322.404
440,0.731433,1320.839
441,0.73315,1319.125
442,0.7347669999999999,1319.125
443,0.736433,1313.388
444,0.7381,1312.271
445,0.739767,1306.012
446,0.741433,1306.012
447,0.7431,1301.095
448,0.744767,1299.456
449,0.746433,1295.134
450,0.7480830000000001,1295.134
451,0.749833,1296.177
452,0.751417,1296.177
453,0.7531,1297.593
454,0.754733,1297.593
455,0.7564,1297.146
456,0.758067,1293.272
457,0.759733,1291.931
458,0.7614,1291.931
459,0.7630670000000001,1284.48
460,0.764733,1280.68
461,0.7665,1280.68
462,0.7680670000000001,1280.978
463,0.769733,1278.818
464,0.7714,1278.818
465,0.7730669999999999,1278.818
466,0.774733,1274.124
467,0.7764,1269.281
468,0.778067,1269.206
469,0.779733,1269.206
470,0.7814,1270.622
471,0.783067,1272.038
472,0.784733,1269.43
473,0.7864,1269.43
474,0.788067,1264.066
475,0.789733,1256.913
476,0.7914,1256.913
477,0.793067,1253.784
478,0.794733,1251.921
479,0.7964,1247.823
480,0.798067,1247.823
481,0.799733,1245.141
482,0.8014,1245.737
483,0.803067,1246.11
484,0.804733,1246.11
485,0.8064,1247.302
486,0.808067,1251.772
487,0.809717,1251.101
488,0.811383,1251.101
489,0.8130500000000001,1250.729
490,0.814733,1246.631
491,0.816433,1245.514
492,0.8180500000000001,1245.514
493,0.819717,1241.043
494,0.821383,1239.628
495,0.823083,1239.628
496,0.824717,1240.224
497,0.826383,1234.636
498,0.82805,1233.816
499,0.829717,1233.816
500,0.831383,1228.973
501,0.83305,1229.793
502,0.834717,1229.569
503,0.836383,1229.569
504,0.83805,1227.632
505,0.839717,1228.75
506,0.841383,1224.652
507,0.84305,1224.652
508,0.8447170000000001,1222.789
509,0.846383,1222.789
510,0.84805,1222.789
511,0.8497169999999999,1223.534
512,0.85145,1223.46
513,0.85305,1221.97
514,0.8547169999999999,1221.97
515,0.856383,1221.746
516,0.85805,1218.542
517,0.859717,1218.617
518,0.861383,1218.617
519,0.86305,1221.672
520,0.864717,1220.629
521,0.866383,1223.385
522,0.868117,1223.385
523,0.8697,1222.342
524,0.871367,1219.139
525,0.8730329999999999,1219.139
526,0.8747,1218.17
527,0.876367,1216.307
528,0.878033,1215.264
529,0.8797,1215.264
530,0.881367,1215.041
531,0.883033,1214.221
532,0.8848,1211.613
533,0.886367,1211.613
534,0.888033,1211.39
535,0.8897,1208.857
536,0.891367,1207.963
537,0.893033,1207.963
538,0.8947000000000001,1208.857
539,0.896383,1206.473
540,0.8980669999999999,1206.473
541,0.899717,1206.473
542,0.901367,1205.131
543,0.903033,1201.928
544,0.9046999999999999,1201.928
545,0.906367,1202.449
546,0.908033,1204.461
547,0.9097,1204.237
548,0.911367,1204.237
549,0.913033,1204.982
550,0.9147,1206.547
551,0.916367,1205.653
552,0.918033,1205.653
553,0.9197,1207.888
554,0.921367,1207.963
555,0.923033,1206.696
556,0.9247,1206.696
557,0.9263670000000001,1208.186
558,0.928017,1205.355
559,0.929683,1205.355
560,0.93135,1205.951
561,0.933017,1204.833
562,0.934683,1201.257
563,0.93635,1201.257
564,0.938017,1202.524
565,0.939683,1200.885
566,0.94135,1200.438
567,0.943017,1200.438
568,0.9446830000000001,1199.693
569,0.94635,1197.159
570,0.948017,1196.861
571,0.9496830000000001,1196.861
572,0.95135,1197.755
573,0.953017,1197.83
574,0.9546829999999999,1199.543
575,0.95635,1199.543
576,0.958017,1198.053
577,0.959683,1197.606
578,0.96135,1197.606
579,0.963017,1198.649
580,0.964683,1199.543
581,0.96635,1201.63
582,0.968017,1201.63
583,0.9698,1199.096
584,0.97135,1197.681
585,0.973017,1193.21
586,0.974683,1193.21
587,0.9763500000000001,1190.379
588,0.978017,1191.869
589,0.979683,1191.348
590,0.9813499999999999,1191.348
591,0.983017,1192.018
592,0.984683,1193.509
593,0.986367,1193.509
594,0.988,1193.657
595,0.989667,1196.638
596,0.991333,1199.693
597,0.993,1199.693
598,0.994667,1199.171
599,0.996333,1198.053
600,0.998,1194.477
601,0.999667,1194.477
602,1.001333,1191.646
603,1.003067,1191.497
604,1.004667,1189.634
605,1.006333,1189.634
606,1.008,1189.262
607,1.009667,1189.932
608,1.011333,1190.603
609,1.013,1190.603
610,1.014667,1190.752
611,1.016333,1189.634
612,1.018,1189.634
613,1.019667,1187.697
614,1.021333,1183.748
615,1.023,1182.556
616,1.024667,1182.556
617,1.026333,1182.854
618,1.028,1183.823
619,1.029667,1183.301
620,1.031333,1183.301
621,1.033,1186.654
622,1.034667,1187.176
623,1.036333,1185.462
624,1.038,1185.462
625,1.039667,1183.748
626,1.041333,1180.47
627,1.043,1180.47
628,1.044667,1180.619
629,1.046317,1182.407
630,1.047967,1186.207
631,1.049633,1186.207
632,1.0513,1187.697
633,1.052967,1185.313
634,1.054633,1181.588
635,1.0563,1181.588
636,1.057967,1179.725
637,1.059633,1179.203
638,1.0613,1179.948
639,1.062967,1179.948
640,1.064633,1184.717
641,1.0663,1185.462
642,1.067967,1185.462
643,1.069633,1186.729
644,1.0713,1187.25
645,1.072967,1186.877
646,1.074633,1186.877
647,1.0763,1190.305
648,1.077967,1188.964
649,1.079633,1187.101
650,1.0813,1187.101
651,1.082967,1183.748
652,1.084633,1180.545
653,1.0863,1182.854
654,1.087967,1182.854
655,1.089633,1186.505
656,1.0913,1189.709
657,1.092967,1188.889
658,1.094633,1188.889
659,1.0963,1187.324
660,1.097967,1182.407
661,1.099633,1182.407
662,1.1013,1179.65
663,1.102967,1177.564
664,1.104683,1175.925
665,1.1063,1175.925
666,1.107967,1178.682
667,1.109617,1177.937
668,1.111283,1182.109
669,1.112967,1182.109
670,1.114617,1185.089
671,1.116283,1186.803
672,1.11795,1191.199
673,1.119617,1191.199
674,1.121383,1188.442
675,1.12295,1184.717
676,1.124617,1184.717
677,1.126283,1183.45
678,1.12795,1178.607
679,1.129617,1180.246
680,1.131283,1180.246
681,1.13295,1182.258
682,1.134617,1182.631
683,1.136283,1184.046
684,1.13795,1184.046
685,1.139617,1184.121
686,1.141283,1179.874
687,1.14295,1180.917
688,1.144617,1180.917
689,1.146283,1181.96
690,1.14795,1185.015
691,1.149617,1190.305
692,1.151283,1190.305
693,1.15295,1188.293
694,1.154617,1187.026
695,1.156283,1187.026
696,1.15795,1182.407
697,1.159617,1179.948
698,1.161283,1179.427
699,1.16295,1179.427
700,1.164617,1178.533
701,1.166283,1179.501
702,1.167933,1179.576
703,1.1696,1179.576
704,1.171267,1178.682
705,1.172933,1177.117
706,1.1746,1174.286
707,1.176267,1174.286
708,1.177933,1173.988
709,1.179667,1174.957
710,1.181267,1174.957
711,1.182933,1177.043
712,1.1846,1178.458
713,1.186267,1177.788
714,1.187967,1177.788
715,1.1896,1176.968
716,1.191267,1177.192
717,1.192933,1176.968
718,1.1946,1176.968
719,1.196267,1178.235
720,1.197933,1179.278
721,1.1996,1180.917
722,1.201267,1180.917
723,1.202933,1181.29
724,1.2046,1178.607
725,1.206317,1178.831
726,1.207933,1178.831
727,1.2096,1176.596
728,1.211267,1176.521
729,1.212933,1176.521
730,1.2146,1179.278
731,1.216267,1178.16
732,1.217933,1175.478
733,1.2196,1175.478
734,1.221267,1175.031
735,1.222933,1175.404
736,1.2246,1176
737,1.226267,1176
738,1.227917,1177.713
739,1.229583,1178.458
740,1.23125,1176.447
741,1.232917,1176.447
742,1.234583,1174.286
743,1.23625,1174.51
744,1.237917,1174.51
745,1.239683,1175.106
746,1.24125,1175.478
747,1.242917,1178.384
748,1.244583,1178.384
749,1.24625,1179.576
750,1.247917,1177.117
751,1.249583,1176.894
752,1.25125,1176.894
753,1.25295,1177.117
754,1.254583,1179.054
755,1.25625,1178.384
756,1.257917,1178.384
757,1.259583,1176.521
758,1.26125,1174.286
759,1.262917,1169.145
760,1.264583,1169.145
761,1.26625,1172.423
762,1.267917,1175.404
763,1.269583,1175.404
764,1.27125,1177.415
765,1.272933,1180.47
766,1.274583,1179.501
767,1.276267,1179.501
768,1.277917,1177.117
769,1.279583,1174.286
770,1.28125,1176.298
771,1.282917,1176.298
772,1.284583,1173.094
773,1.286233,1173.839
774,1.2879,1173.019
775,1.289567,1173.019
776,1.291233,1170.039
777,1.2929,1173.615
778,1.294567,1173.615
779,1.296233,1174.063
780,1.2979,1175.702
781,1.299567,1175.329
782,1.301233,1175.329
783,1.3029,1174.51
784,1.304567,1174.882
785,1.306233,1173.243
786,1.3079,1173.243
787,1.309567,1172.051
788,1.311233,1172.125
789,1.3129,1171.082
790,1.314567,1171.082
791,1.316233,1172.2
792,1.3179,1175.18
793,1.319567,1175.18
794,1.321233,1176.372
795,1.32295,1177.415
796,1.324617,1176.074
797,1.326233,1176.074
798,1.3279,1173.317
799,1.329567,1173.466
800,1.331233,1174.286
801,1.3329,1174.286
802,1.334567,1176.968
803,1.336233,1178.905
804,1.337883,1176.521
805,1.33955,1176.521
806,1.341217,1172.2
807,1.342883,1170.114
808,1.34455,1167.282
809,1.346217,1167.282
810,1.347867,1165.643
811,1.349533,1166.165
812,1.3512,1166.165
813,1.352867,1168.773
814,1.354533,1173.243
815,1.3562,1176.819
816,1.35795,1176.819
817,1.359533,1179.203
818,1.3612,1179.278
819,1.362867,1174.882
820,1.364533,1174.882
821,1.3662,1176.372
822,1.367867,1177.49
823,1.369533,1177.862
824,1.371217,1177.862
825,1.372867,1180.023
826,1.374533,1178.235
827,1.3762,1178.235
828,1.377867,1179.129
829,1.379533,1178.309
830,1.3812,1179.725
831,1.382867,1179.725
832,1.384533,1176.521
833,1.3862,1174.659
834,1.387867,1174.063
835,1.389533,1174.063
836,1.3912,1171.976
837,1.392867,1176.074
838,1.394533,1174.659
839,1.3962,1174.659
840,1.3979,1175.329
841,1.399533,1175.329
842,1.4012,1171.38
843,1.402867,1171.38
844,1.404533,1172.796
845,1.4062,1173.168
846,1.40785,1173.168
847,1.409517,1174.137
848,1.411183,1177.192
849,1.41285,1175.851
850,1.414517,1175.851
851,1.416183,1172.87
852,1.41785,1170.412
853,1.419517,1169.518
854,1.421183,1169.518
855,1.42285,1172.423
856,1.424517,1171.678
857,1.426183,1172.125
858,1.42785,1172.125
859,1.429517,1170.561
860,1.431183,1167.208
861,1.43285,1167.208
862,1.434517,1167.953
863,1.436183,1168.922
864,1.43785,1171.38
865,1.439517,1171.38
866,1.441183,1174.659
867,1.44285,1174.137
868,1.444517,1174.584
869,1.446183,1174.584
870,1.447867,1176
871,1.449517,1175.106
872,1.4512,1176.223
873,1.45285,1176.223
874,1.454517,1176
875,1.456183,1175.031
876,1.45785,1177.415
877,1.459517,1177.415
878,1.461183,1180.843
879,1.46285,1183.674
880,1.464517,1183.674
881,1.466167,1181.066
882,1.467833,1179.725
883,1.469517,1178.235
884,1.471217,1178.235
885,1.472833,1175.553
886,1.4745,1175.18
887,1.4763,1172.051
888,1.477833,1172.051
889,1.4795,1169.592
890,1.481167,1170.039
891,1.482833,1169.369
892,1.4845,1169.369
893,1.486167,1168.251
894,1.487833,1168.773
895,1.4895,1168.773
896,1.491167,1168.773
897,1.492833,1173.541
898,1.4945,1175.627
899,1.496167,1175.627
900,1.497833,1176.67
901,1.4995,1175.851
902,1.501167,1175.255
903,1.502833,1175.255
904,1.5045,1176
905,1.506167,1172.87
906,1.507833,1171.678
907,1.5095,1171.678
908,1.511167,1171.604
909,1.512833,1171.678
910,1.5145,1171.678
911,1.516167,1171.529
912,1.517833,1172.721
913,1.5195,1169.89
914,1.521167,1169.89
915,1.522833,1166.686
916,1.5245,1168.698
917,1.52615,1169.816
918,1.527817,1169.816
919,1.529483,1169.89
