"ID","sea_time","fid_signal"
1,0,1166.612
2,0.001667,1164.824
3,0.0034,1163.334
4,0.005,1163.334
5,0.006667,1162.291
6,0.008333,1166.016
7,0.01,1167.729
8,0.011667,1167.729
9,0.013333,1167.432
10,0.015,1167.133
11,0.016667,1162.887
12,0.018333,1162.887
13,0.02,1164.004
14,0.021683,1166.016
15,0.023333,1166.016
16,0.024983,1166.984
17,0.02665,1170.784
18,0.028317,1171.753
19,0.029983,1171.753
20,0.03165,1171.231
21,0.033317,1173.541
22,0.034983,1171.38
23,0.03665,1171.38
24,0.038317,1166.91
25,0.039983,1166.612
26,0.04165,1163.855
27,0.043317,1163.855
28,0.044983,1163.334
29,0.04665,1167.729
30,0.048317,1169.22
31,0.049983,1169.22
32,0.05165,1171.306
33,0.053317,1171.976
34,0.054983,1171.976
35,0.05665,1168.549
36,0.058317,1168.027
37,0.059983,1169.369
38,0.06165,1169.369
39,0.063317,1169.145
40,0.064983,1172.349
41,0.06665,1171.902
42,0.068317,1171.902
43,0.069983,1170.114
44,0.07165000000000001,1167.879
45,0.07331699999999999,1167.282
46,0.07498299999999999,1167.282
47,0.07665,1168.624
48,0.078317,1167.357
49,0.079983,1167.357
50,0.08165,1169.071
51,0.0833,1167.58
52,0.084967,1164.377
53,0.086633,1164.377
54,0.0883,1167.729
55,0.08996700000000001,1168.624
56,0.09163300000000001,1170.263
57,0.093283,1170.263
58,0.09495000000000001,1171.529
59,0.09661699999999999,1169.592
60,0.098283,1171.157
61,0.09995,1171.157
62,0.101617,1168.773
63,0.1033,1166.761
64,0.10495,1165.271
65,0.106617,1165.271
66,0.108283,1161.471
67,0.10995,1161.844
68,0.111617,1161.844
69,0.113283,1162.887
70,0.11495,1163.408
71,0.116617,1165.047
72,0.118283,1165.047
73,0.11995,1167.432
74,0.121633,1168.177
75,0.123283,1169.369
76,0.12495,1169.369
77,0.126617,1167.953
78,0.128283,1163.185
79,0.12995,1162.887
80,0.131617,1162.887
81,0.133283,1162.961
82,0.13495,1163.557
83,0.136617,1163.557
84,0.138383,1164.898
85,0.13995,1164.824
86,0.141617,1165.047
87,0.143283,1165.047
88,0.144933,1166.239
89,0.1466,1167.729
90,0.148267,1169.741
91,0.149933,1169.741
92,0.1516,1167.282
93,0.153267,1168.475
94,0.155017,1169.89
95,0.1566,1169.89
96,0.158267,1169.071
97,0.159933,1172.945
98,0.1616,1172.945
99,0.163267,1173.541
100,0.164933,1170.486
101,0.1666,1171.753
102,0.168267,1171.753
103,0.169933,1171.082
104,0.171717,1168.698
105,0.173267,1170.039
106,0.174933,1170.039
107,0.1766,1167.357
108,0.178267,1164.079
109,0.179933,1165.196
110,0.1816,1165.196
111,0.183267,1163.93
112,0.184933,1164.824
113,0.1866,1166.165
114,0.188267,1166.165
115,0.189933,1165.569
116,0.1916,1168.773
117,0.193267,1168.773
118,0.194933,1171.157
119,0.1966,1173.466
120,0.198267,1172.051
121,0.199933,1172.051
122,0.2016,1169.518
123,0.203267,1165.494
124,0.204917,1161.918
125,0.206583,1161.918
126,0.20825,1162.589
127,0.209917,1165.643
128,0.211583,1170.188
129,0.21325,1170.188
130,0.214917,1176.447
131,0.216583,1181.737
132,0.21825,1181.737
133,0.219917,1189.336
134,0.221583,1202.077
135,0.22325,1219.66
136,0.224917,1219.66
137,0.226583,1248.345
138,0.22825,1282.692
139,0.229917,1327.172
140,0.231583,1327.172
141,0.23325,1380.071
142,0.234917,1441.985
143,0.236583,1511.648
144,0.23825,1511.648
145,0.23995,1585.186
146,0.241583,1664.087
147,0.24325,1742.84
148,0.244933,1742.84
149,0.246583,1823.381
150,0.24825,1907.051
151,0.249917,1907.051
152,0.251583,1990.423
153,0.25325,2074.614
154,0.254933,2162.158
155,0.256633,2162.158
156,0.25825,2244.562
157,0.259917,2328.008
158,0.261583,2410.71
159,0.26325,2410.71
160,0.2649,2493.933
161,0.266567,2578.795
162,0.268233,2662.39
163,0.2699,2662.39
164,0.271567,2749.041
165,0.2733,2833.754
166,0.2749,2833.754
167,0.276567,2925.098
168,0.278233,3017.038
169,0.2799,3110.469
170,0.281567,3110.469
171,0.283233,3210.157
172,0.2849,3314.912
173,0.286567,3428.385
174,0.288233,3428.385
175,0.290017,3542.826
176,0.291567,3663.152
177,0.293233,3785.789
178,0.2949,3785.789
179,0.296567,3913.79
180,0.298233,4053.041
181,0.2999,4197.657
182,0.301567,4197.657
183,0.303233,4348.159
184,0.3049,4506.037
185,0.306567,4506.037
186,0.308233,4674.941
187,0.3099,4853.159
188,0.311567,5043.149
189,0.313233,5043.149
190,0.3149,5251.84
191,0.316567,5485.118
192,0.318233,5767.644
193,0.3199,5767.644
194,0.321583,6131.828
195,0.323267,6626.323
196,0.324883,7330.552
197,0.32655,7330.552
198,0.328217,8325.651
199,0.329883,9704.754000000001
200,0.33155,9704.754000000001
201,0.333217,11534.914
202,0.334883,13826.042
203,0.33655,16527.697
204,0.338217,16527.697
205,0.339883,19500.256
206,0.34155,22532.492
207,0.343217,25365.428
208,0.3449,25365.428
209,0.34655,27734.563
210,0.348217,29425.398
211,0.349883,30306.057
212,0.35155,30306.057
213,0.353217,30349.717
214,0.354883,29618.219
215,0.35655,28247.236
216,0.358217,28247.236
217,0.359883,26406.57
218,0.36155,24275.035
219,0.363217,24275.035
220,0.364883,22010.207
221,0.36655,19739.195
222,0.368217,17554.908
223,0.3699,17554.908
224,0.37155,15512.034
225,0.373217,13653.04
226,0.374917,11984.11
227,0.37655,11984.11
228,0.378217,10505.394
229,0.379883,9209.439
230,0.38155,8078.962
231,0.383217,8078.962
232,0.38485,7102.564
233,0.386517,6261.021
234,0.388183,6261.021
235,0.38985,5538.985
236,0.391583,4913.583
237,0.393183,4376.769
238,0.394867,4376.769
239,0.39655,3916.845
240,0.398183,3521.144
241,0.39985,3189.668
242,0.401517,3189.668
243,0.403183,2904.907
244,0.40485,2665.52
245,0.406517,2463.833
246,0.4083,2463.833
247,0.40985,2289.936
248,0.411517,2145.767
249,0.413183,2145.767
250,0.41485,2017.617
251,0.416517,1904.741
252,0.418183,1810.342
253,0.41985,1810.342
254,0.421517,1728.684
255,0.423183,1661.703
256,0.42485,1603.514
257,0.426517,1603.514
258,0.428183,1549.795
259,0.42985,1505.464
260,0.431517,1462.102
261,0.4332,1462.102
262,0.43485,1429.766
263,0.436517,1403.093
264,0.438183,1376.197
265,0.43985,1376.197
266,0.441517,1357.049
267,0.443183,1340.21
268,0.444833,1340.21
269,0.4465,1322.255
270,0.448167,1306.608
271,0.449833,1295.209
272,0.4515,1295.209
273,0.453167,1281.649
274,0.454833,1273.23
275,0.4565,1266.673
276,0.458167,1266.673
277,0.459833,1257.881
278,0.4615,1252.145
279,0.463167,1245.886
280,0.464833,1245.886
281,0.4665,1238.436
282,0.468167,1233.444
283,0.469867,1233.444
284,0.4715,1228.303
285,0.473167,1224.056
286,0.474833,1223.013
287,0.4765,1223.013
288,0.478167,1221.821
289,0.479833,1216.531
290,0.4815,1212.135
291,0.483167,1212.135
292,0.484833,1209.751
293,0.4865,1208.857
294,0.488167,1209.453
295,0.489833,1209.453
296,0.4915,1209.676
297,0.493183,1211.017
298,0.494833,1210.496
299,0.4965,1210.496
300,0.498167,1211.315
301,0.499833,1211.911
302,0.5014999999999999,1211.911
303,0.503167,1205.057
304,0.504817,1201.183
305,0.506483,1198.426
306,0.50815,1198.426
307,0.509833,1195.148
308,0.511483,1197.755
309,0.51315,1197.904
310,0.514817,1197.904
311,0.516483,1198.053
312,0.51815,1199.99
313,0.519833,1199.543
314,0.521483,1199.543
315,0.52315,1198.426
316,0.524817,1197.457
317,0.5266,1193.807
318,0.52815,1193.807
319,0.529817,1190.454
320,0.531483,1187.399
321,0.53315,1187.399
322,0.534817,1185.238
323,0.536483,1187.026
324,0.53815,1188.368
325,0.539817,1188.368
326,0.541483,1189.485
327,0.54315,1191.869
328,0.544833,1192.093
329,0.5464830000000001,1192.093
330,0.548167,1190.379
331,0.549817,1190.379
332,0.5514829999999999,1188.74
333,0.55315,1188.74
334,0.554817,1190.156
335,0.5564829999999999,1190.603
336,0.55815,1190.603
337,0.559817,1192.316
338,0.561483,1193.583
339,0.563133,1192.614
340,0.5648,1192.614
341,0.5664670000000001,1194.328
342,0.568133,1191.199
343,0.5698,1187.921
344,0.5714669999999999,1187.921
345,0.573133,1187.101
346,0.5748,1185.834
347,0.576467,1185.462
348,0.578133,1185.462
349,0.5798,1184.642
350,0.581467,1184.344
351,0.583133,1184.344
352,0.5848,1183.301
353,0.586467,1185.164
354,0.588133,1186.877
355,0.5898,1186.877
356,0.591467,1183.674
357,0.593133,1184.791
358,0.5948,1183.525
359,0.596483,1183.525
360,0.598133,1180.47
361,0.5998,1181.811
362,0.601467,1179.278
363,0.603133,1179.278
364,0.6048,1178.905
365,0.606467,1180.172
366,0.608133,1180.172
367,0.6098,1179.725
368,0.611467,1178.98
369,0.613133,1179.427
370,0.6148,1179.427
371,0.616467,1178.98
372,0.618133,1179.799
373,0.619833,1180.47
374,0.621467,1180.47
375,0.623117,1180.172
376,0.624783,1181.811
377,0.62645,1184.791
378,0.628117,1184.791
379,0.629783,1189.038
380,0.63145,1188.07
381,0.633117,1190.603
382,0.634783,1190.603
383,0.63645,1185.685
384,0.638117,1184.046
385,0.639783,1184.046
386,0.64145,1183.003
387,0.643117,1181.886
388,0.6449,1182.631
389,0.64645,1182.631
390,0.6481170000000001,1180.693
391,0.649783,1183.301
392,0.65145,1181.513
393,0.6531169999999999,1181.513
394,0.654783,1177.788
395,0.65645,1174.36
396,0.658117,1173.019
397,0.659783,1173.019
398,0.66145,1175.031
399,0.663117,1178.831
400,0.664783,1178.831
401,0.66645,1179.129
402,0.668117,1179.874
403,0.669783,1177.862
404,0.67145,1177.862
405,0.673117,1178.384
406,0.674767,1177.266
407,0.676433,1174.063
408,0.6781,1174.063
409,0.679767,1171.082
410,0.681433,1167.58
411,0.683083,1169.294
412,0.68475,1169.294
413,0.686433,1170.561
414,0.688133,1170.486
415,0.68975,1170.412
416,0.6914169999999999,1170.412
417,0.693083,1169.294
418,0.694783,1167.208
419,0.696417,1167.208
420,0.698083,1169.89
421,0.69975,1170.784
422,0.701417,1171.753
423,0.703083,1171.753
424,0.70475,1175.851
425,0.706417,1176
426,0.708083,1176.447
427,0.70975,1176.447
428,0.711417,1177.49
429,0.713083,1171.902
430,0.71475,1167.804
431,0.716417,1167.804
432,0.718083,1170.114
433,0.719767,1169.145
434,0.721417,1169.145
435,0.723083,1171.753
436,0.72475,1172.2
437,0.726417,1170.039
438,0.728083,1170.039
439,0.7298,1170.71
440,0.731417,1169.22
441,0.733083,1169.741
442,0.73475,1169.741
443,0.736417,1171.753
444,0.738083,1172.125
445,0.73975,1174.807
446,0.741417,1174.807
447,0.743067,1177.788
448,0.744733,1174.137
449,0.7464,1174.137
450,0.748067,1171.529
451,0.749733,1171.306
452,0.7514,1170.784
453,0.753067,1170.784
454,0.754733,1171.082
455,0.7564,1171.455
456,0.758067,1170.039
457,0.759733,1170.039
458,0.7614,1166.463
459,0.76315,1167.432
460,0.764733,1169.667
461,0.7664,1169.667
462,0.7680670000000001,1171.604
463,0.769733,1171.753
464,0.7714,1169.294
465,0.7730669999999999,1169.294
466,0.774733,1169.667
467,0.7764,1167.655
468,0.778067,1167.655
469,0.779733,1169.071
470,0.7814,1171.529
471,0.783067,1170.71
472,0.784733,1170.71
473,0.7864,1173.019
474,0.788067,1174.286
475,0.789733,1174.36
476,0.7914,1174.36
477,0.793067,1174.733
478,0.794733,1172.2
479,0.7964,1168.698
480,0.798067,1168.698
481,0.799733,1166.239
482,0.8014,1165.792
483,0.803067,1165.792
484,0.804717,1167.059
485,0.806383,1168.326
486,0.80805,1171.082
487,0.809717,1171.082
488,0.811383,1168.102
489,0.8130500000000001,1165.569
490,0.814717,1164.749
491,0.816383,1164.749
492,0.8180500000000001,1165.271
493,0.819717,1171.157
494,0.821383,1172.721
495,0.8230499999999999,1172.721
496,0.824717,1173.243
497,0.826383,1172.2
498,0.82805,1168.549
499,0.829717,1168.549
500,0.8314,1171.082
501,0.833067,1172.2
502,0.834717,1172.2
503,0.836383,1174.51
504,0.83805,1176.894
505,0.839717,1175.925
506,0.841383,1175.925
507,0.84305,1176.596
508,0.8447170000000001,1171.604
509,0.846383,1168.102
510,0.848083,1168.102
511,0.8497169999999999,1168.251
512,0.851383,1168.549
513,0.85305,1173.243
514,0.8547169999999999,1173.243
515,0.856383,1173.019
516,0.85805,1170.561
517,0.859717,1170.561
518,0.861383,1169.443
519,0.8630330000000001,1166.612
520,0.864833,1167.133
521,0.866367,1167.133
522,0.8680330000000001,1166.388
523,0.8697,1164.973
524,0.871367,1164.451
525,0.8730329999999999,1164.451
526,0.8747,1163.408
527,0.876367,1164.526
528,0.878033,1166.239
529,0.8797,1166.239
530,0.881483,1169.741
531,0.883033,1172.051
532,0.8847,1173.466
533,0.886367,1173.466
534,0.888033,1175.255
535,0.8897,1174.36
536,0.891367,1174.36
537,0.893033,1175.627
538,0.8947000000000001,1176.074
539,0.896367,1174.584
540,0.898033,1174.584
541,0.8997000000000001,1173.913
542,0.901367,1173.69
543,0.903033,1172.498
544,0.9046999999999999,1172.498
545,0.906367,1174.807
546,0.908033,1175.553
547,0.9097,1172.349
548,0.911367,1172.349
549,0.913033,1171.157
550,0.9147,1166.016
551,0.916367,1166.016
552,0.918033,1166.314
553,0.9197,1169.592
554,0.921367,1171.976
555,0.923017,1171.976
556,0.924683,1175.851
557,0.92635,1175.851
558,0.928017,1176.298
559,0.929683,1176.298
560,0.93135,1173.615
561,0.933017,1172.125
562,0.934683,1169.145
563,0.93635,1169.145
564,0.938017,1167.059
565,0.939683,1166.239
566,0.94135,1164.377
567,0.943017,1164.377
568,0.9446830000000001,1163.036
569,0.94635,1161.844
570,0.948033,1161.844
571,0.9496830000000001,1163.408
572,0.95135,1163.93
573,0.953017,1168.102
574,0.9546829999999999,1168.102
575,0.95635,1168.326
576,0.958017,1167.729
577,0.959683,1170.71
578,0.96135,1170.71
579,0.963017,1166.91
580,0.964683,1169.816
581,0.966383,1169.443
582,0.968,1169.443
583,0.9696669999999999,1167.059
584,0.971333,1168.4
585,0.973,1168.4
586,0.974667,1166.537
587,0.976333,1169.518
588,0.978033,1171.157
589,0.979667,1171.157
590,0.981367,1169.518
591,0.9831,1168.475
592,0.98465,1165.792
593,0.986317,1165.792
594,0.9879829999999999,1164.451
595,0.98965,1165.345
596,0.991317,1165.271
597,0.9929829999999999,1165.271
598,0.99465,1165.643
599,0.996317,1168.773
600,0.997983,1168.773
601,0.99965,1171.157
602,1.001317,1173.466
603,1.002983,1174.36
604,1.00465,1174.36
605,1.006317,1173.69
606,1.007983,1173.69
607,1.00965,1168.847
608,1.011317,1168.847
609,1.012983,1167.729
610,1.01465,1165.494
611,1.016317,1164.526
612,1.017983,1164.526
613,1.01965,1165.494
614,1.021317,1165.643
615,1.022983,1164.749
616,1.02465,1164.749
617,1.026317,1166.686
618,1.027983,1172.2
619,1.02965,1172.2
620,1.031317,1171.976
621,1.032983,1170.188
622,1.03465,1166.984
623,1.036317,1166.984
624,1.037983,1163.855
625,1.03965,1164.749
626,1.041317,1167.953
627,1.042967,1167.953
628,1.044633,1168.996
629,1.0463,1169.592
630,1.047967,1170.859
631,1.049633,1170.859
632,1.0513,1171.678
633,1.052967,1172.423
634,1.054667,1172.423
635,1.0563,1170.412
636,1.057967,1167.432
637,1.059633,1164.153
638,1.0613,1164.153
639,1.062967,1162.291
640,1.064633,1162.812
641,1.0663,1162.961
642,1.067967,1162.961
643,1.069633,1163.855
644,1.0713,1164.228
645,1.072967,1167.357
646,1.074633,1167.357
647,1.0763,1170.635
648,1.077967,1169.592
649,1.079633,1170.486
650,1.0813,1170.486
651,1.082967,1167.879
652,1.084633,1166.388
653,1.0863,1166.388
654,1.087967,1168.922
655,1.089633,1170.039
656,1.0913,1172.721
657,1.092967,1172.721
658,1.094633,1172.274
659,1.0963,1171.082
660,1.097967,1164.526
661,1.099633,1164.526
662,1.10135,1157.969
663,1.10295,1159.459
664,1.104617,1163.408
665,1.106283,1163.408
666,1.10795,1170.561
667,1.109617,1173.094
668,1.111283,1173.094
669,1.11295,1170.486
670,1.114617,1168.027
671,1.116283,1166.612
672,1.11795,1166.612
673,1.119617,1171.976
674,1.121283,1172.051
675,1.122967,1171.157
676,1.124617,1171.157
677,1.126317,1169.965
678,1.12795,1166.761
679,1.129617,1168.4
680,1.131317,1168.4
681,1.13295,1170.039
682,1.1347,1171.306
683,1.136283,1170.337
684,1.13795,1170.337
685,1.139617,1168.773
686,1.141283,1166.463
687,1.14295,1166.463
688,1.144617,1166.91
689,1.146283,1168.475
690,1.14795,1168.475
691,1.149617,1168.475
692,1.151283,1167.282
693,1.15295,1166.016
694,1.154617,1164.973
695,1.156283,1164.973
696,1.15795,1164.451
697,1.159617,1168.698
698,1.161283,1171.082
699,1.162933,1171.082
700,1.1646,1170.263
701,1.166267,1174.36
702,1.167933,1174.36
703,1.1696,1174.063
704,1.171267,1173.168
705,1.172933,1174.212
706,1.1746,1174.212
707,1.176267,1170.486
708,1.177933,1166.984
709,1.1796,1164.079
710,1.181267,1164.079
711,1.182933,1161.769
712,1.1846,1163.185
713,1.186267,1164.004
714,1.187933,1164.004
715,1.1896,1164.824
716,1.191283,1165.643
717,1.192967,1163.408
718,1.1946,1163.408
719,1.196267,1166.612
720,1.197933,1165.718
721,1.1996,1165.718
722,1.201317,1164.824
723,1.20295,1165.494
724,1.2046,1161.546
725,1.206267,1161.546
726,1.207933,1164.749
727,1.2096,1168.251
728,1.211267,1169.592
729,1.212933,1169.592
730,1.2146,1170.039
731,1.216267,1167.208
732,1.217933,1165.047
733,1.219583,1165.047
734,1.221267,1165.271
735,1.222917,1167.729
736,1.224583,1167.729
737,1.22625,1168.773
738,1.227917,1168.549
739,1.229583,1167.953
740,1.23125,1167.953
741,1.232917,1165.345
742,1.234583,1165.196
743,1.236267,1166.165
744,1.237917,1166.165
745,1.239583,1169.89
746,1.24125,1171.306
747,1.242917,1170.71
748,1.244583,1170.71
749,1.24625,1171.306
750,1.247917,1170.114
751,1.249583,1170.114
752,1.25125,1171.529
753,1.253,1173.243
754,1.254583,1175.106
755,1.25625,1175.106
756,1.2579,1173.988
757,1.259567,1175.329
758,1.261233,1175.553
759,1.2629,1175.553
760,1.264567,1171.976
761,1.266233,1167.282
762,1.2679,1162.44
763,1.269567,1162.44
764,1.271233,1161.396
765,1.272933,1162.44
766,1.274567,1168.475
767,1.276233,1168.475
768,1.2779,1170.263
769,1.279567,1168.847
770,1.281233,1168.847
771,1.282883,1169.22
772,1.28455,1168.177
773,1.286217,1168.549
774,1.287883,1168.549
775,1.28955,1166.165
776,1.291217,1165.42
777,1.292883,1164.302
778,1.294583,1164.302
779,1.296217,1164.675
780,1.2979,1167.432
781,1.29955,1168.996
782,1.301217,1168.996
783,1.302883,1169.369
784,1.30455,1164.824
785,1.306217,1164.824
786,1.307883,1164.228
787,1.30955,1161.918
788,1.311217,1160.875
789,1.312883,1160.875
790,1.31455,1166.91
791,1.316217,1170.486
792,1.317883,1174.286
793,1.31955,1174.286
794,1.321217,1177.117
795,1.322883,1175.031
796,1.32455,1171.753
797,1.326217,1171.753
798,1.327883,1170.412
799,1.32955,1167.879
800,1.331217,1167.357
801,1.332883,1167.357
802,1.33455,1168.549
803,1.336217,1167.879
804,1.337933,1167.879
805,1.33955,1168.847
806,1.3412,1169.443
807,1.342867,1171.529
808,1.344533,1171.529
809,1.3462,1172.945
810,1.347867,1172.945
811,1.349533,1174.063
812,1.3512,1174.063
813,1.352867,1171.38
814,1.35455,1172.125
815,1.3562,1172.572
816,1.357867,1172.572
817,1.359533,1173.094
818,1.3612,1176.67
819,1.362867,1176.67
820,1.364533,1177.192
821,1.3662,1177.341
822,1.367867,1176.819
823,1.369533,1176.819
824,1.3713,1176.894
825,1.372867,1171.455
826,1.374533,1171.306
827,1.3762,1171.306
828,1.377867,1171.902
829,1.379533,1167.804
830,1.3812,1169.22
831,1.382867,1169.22
832,1.384567,1165.867
833,1.3862,1164.898
834,1.387867,1164.898
835,1.389533,1164.079
836,1.3912,1164.451
837,1.392867,1164.302
838,1.394533,1164.302
839,1.3962,1161.546
840,1.397867,1163.185
841,1.399533,1163.483
842,1.401183,1163.483
843,1.40285,1165.643
844,1.404517,1168.773
845,1.406183,1168.027
846,1.40785,1168.027
847,1.409517,1167.953
848,1.411183,1166.537
849,1.41285,1164.153
850,1.414583,1164.153
851,1.416183,1163.93
852,1.41785,1163.408
853,1.419517,1163.408
854,1.421183,1162.44
855,1.42285,1163.185
856,1.424517,1167.133
857,1.426183,1167.133
858,1.42785,1169.443
859,1.429517,1172.945
860,1.431183,1172.647
861,1.43285,1172.647
862,1.434517,1172.274
863,1.436183,1172.721
864,1.43785,1171.455
865,1.439517,1171.455
866,1.441183,1173.913
867,1.44285,1173.765
868,1.444517,1173.765
869,1.446183,1172.498
870,1.44785,1170.859
871,1.449517,1168.102
872,1.451183,1168.102
873,1.45285,1168.027
874,1.454517,1167.506
875,1.456183,1170.114
876,1.45785,1170.114
877,1.459517,1170.561
878,1.461183,1170.486
879,1.46285,1168.773
880,1.464533,1168.773
881,1.466167,1167.059
882,1.467833,1166.761
883,1.4695,1163.706
884,1.471167,1163.706
885,1.472833,1163.259
886,1.4745,1165.792
887,1.476167,1165.792
888,1.477833,1168.027
889,1.4795,1173.243
890,1.481167,1176.745
891,1.482833,1176.745
892,1.4845,1174.51
893,1.486167,1170.561
894,1.487833,1168.773
895,1.489617,1168.773
896,1.491167,1168.549
897,1.492833,1167.804
898,1.4945,1168.475
899,1.496167,1168.475
900,1.497833,1166.537
901,1.4995,1166.537
902,1.501167,1166.537
903,1.502833,1168.773
904,1.5045,1169.592
905,1.506167,1169.443
906,1.507833,1169.443
907,1.5095,1169.741
908,1.511167,1170.412
909,1.512833,1169.89
910,1.5145,1169.89
911,1.516167,1169.965
912,1.517833,1166.388
913,1.5195,1163.483
914,1.521167,1163.483
915,1.522817,1165.345
916,1.524483,1165.792
917,1.526167,1166.835
918,1.527817,1166.835
