"ID","sea_time","fid_signal"
1,0,139.676
2,0.001767,139.482
3,0.0033,139.304
4,0.004967,139.304
5,0.006633,138.931
6,0.0083,138.424
7,0.009967,138.566
8,0.011633,138.566
9,0.0133,138.663
10,0.014967,138.678
11,0.016633,139.348
12,0.0183,139.348
13,0.019967,139.4
14,0.021633,139.445
15,0.0233,139.445
16,0.024967,139.482
17,0.026633,139.43
18,0.0283,139.348
19,0.029967,139.348
20,0.031633,139.296
21,0.0333,139.229
22,0.034967,139.102
23,0.036633,139.102
24,0.0383,139.438
25,0.039967,139.758
26,0.041683,140.063
27,0.0433,140.063
28,0.044967,140.011
29,0.046633,139.698
30,0.0483,139.475
31,0.049967,139.475
32,0.051633,139.177
33,0.0533,139.11
34,0.054967,139.11
35,0.056633,139.095
36,0.0583,139.356
37,0.059967,139.512
38,0.061633,139.512
39,0.06328300000000001,139.713
40,0.06494999999999999,139.803
41,0.066617,139.475
42,0.068283,139.475
43,0.06995,139.281
44,0.071617,139.095
45,0.073283,138.834
46,0.07496700000000001,138.834
47,0.076617,138.67
48,0.07828300000000001,138.76
49,0.07994999999999999,138.76
50,0.081617,138.812
51,0.083283,138.976
52,0.08495,139.296
53,0.08666699999999999,139.296
54,0.088283,139.52
55,0.08995,139.602
56,0.091617,139.84
57,0.093283,139.84
58,0.09495000000000001,139.982
59,0.09661699999999999,140.019
60,0.098283,140.183
61,0.09995,140.183
62,0.101617,140.004
63,0.1033,139.877
64,0.10495,139.907
65,0.106617,139.907
66,0.108283,139.52
67,0.10995,139.616
68,0.111617,139.616
69,0.113317,139.43
70,0.11495,139.11
71,0.116617,139.14
72,0.118283,139.14
73,0.12005,138.894
74,0.121617,138.961
75,0.123267,138.961
76,0.124933,138.961
77,0.1266,138.968
78,0.128267,139.14
79,0.129933,138.953
80,0.1316,138.953
81,0.133267,138.842
82,0.13495,138.797
83,0.1366,138.797
84,0.138267,138.998
85,0.139933,139.333
86,0.1416,139.639
87,0.143267,139.639
88,0.144933,139.646
89,0.1466,139.512
90,0.148267,139.333
91,0.149933,139.333
92,0.1516,139.14
93,0.153267,139.244
94,0.154933,139.341
95,0.1566,139.341
96,0.158267,139.482
97,0.159933,139.78
98,0.1616,139.795
99,0.163283,139.795
100,0.164933,139.624
101,0.1666,139.482
102,0.168267,139.482
103,0.169933,139.333
104,0.1716,139.266
105,0.173267,139.371
106,0.174933,139.371
107,0.1766,139.512
108,0.178267,139.341
109,0.179933,139.311
110,0.1816,139.311
111,0.18325,139.065
112,0.18495,138.886
113,0.186583,139.169
114,0.18825,139.169
115,0.189917,139.579
116,0.191583,139.698
117,0.19325,139.698
118,0.194917,139.572
119,0.196583,139.356
120,0.19825,139.028
121,0.199917,139.028
122,0.201583,139.073
123,0.20325,139.326
124,0.204967,139.348
125,0.206583,139.348
126,0.20825,139.393
127,0.209917,139.289
128,0.211583,139.453
129,0.21325,139.453
130,0.214917,139.758
131,0.216583,139.758
132,0.21825,139.758
133,0.219917,139.706
134,0.221633,139.557
135,0.22325,139.251
136,0.224917,139.251
137,0.226583,139.244
138,0.22825,139.14
139,0.229917,138.775
140,0.231583,138.775
141,0.23325,138.745
142,0.234917,138.655
143,0.236583,138.924
144,0.238333,138.924
145,0.2399,139.683
146,0.241583,140.183
147,0.243233,141.099
148,0.2449,141.099
149,0.246567,141.948
150,0.248233,142.895
151,0.2499,142.895
152,0.251567,144.437
153,0.253233,146.411
154,0.2549,148.84
155,0.256567,148.84
156,0.25825,151.746
157,0.2599,154.898
158,0.261583,158.451
159,0.263233,158.451
160,0.2649,163.175
161,0.266567,168.115
162,0.268233,174.105
163,0.2699,174.105
164,0.271567,180.155
165,0.273233,186.473
166,0.2749,186.473
167,0.276567,193.171
168,0.278233,200.212
169,0.2799,208.214
170,0.281567,208.214
171,0.283233,216.626
172,0.2849,225.678
173,0.286567,234.663
174,0.288233,234.663
175,0.2899,243.984
176,0.291567,253.551
177,0.293233,263.52
178,0.294883,263.52
179,0.29655,273.861
180,0.298217,284.582
181,0.299883,295.326
182,0.30155,295.326
183,0.3032,306.778
184,0.304867,318.661
185,0.306533,318.661
186,0.3082,330.478
187,0.309883,342.92
188,0.311533,355.4
189,0.3132,355.4
190,0.314867,368.29
191,0.316533,382.207
192,0.3182,396.602
193,0.319867,396.602
194,0.321533,411.533
195,0.323267,427.105
196,0.324883,443.198
197,0.326567,443.198
198,0.3282,460.26
199,0.329867,478.402
200,0.331533,478.402
201,0.3332,498.012
202,0.334867,520.207
203,0.336533,546.955
204,0.3382,546.955
205,0.339983,582.077
206,0.341533,632.197
207,0.3432,705.1900000000001
208,0.344867,705.1900000000001
209,0.346533,812.314
210,0.3482,965.744
211,0.349867,1176.037
212,0.351533,1176.037
213,0.3532,1451.753
214,0.354867,1795.359
215,0.35665,2202.071
216,0.3582,2202.071
217,0.359867,2661.005
218,0.361533,3155.194
219,0.363183,3155.194
220,0.36485,3664.091
221,0.366517,4165.917
222,0.368183,4640.363
223,0.36985,4640.363
224,0.371517,5069.494
225,0.373183,5438.969
226,0.37485,5739.011
227,0.376517,5739.011
228,0.378183,5963.594
229,0.37985,6110.713
230,0.381517,6182.559
231,0.383183,6182.559
232,0.38485,6183.997
233,0.386517,6122.708
234,0.388183,6122.708
235,0.38985,6007.649
236,0.391517,5847.938
237,0.393183,5653.456
238,0.39485,5653.456
239,0.396517,5432.673
240,0.398183,5193.785
241,0.39985,4943.863
242,0.401517,4943.863
243,0.4032,4688.457
244,0.404917,4432.753
245,0.406517,4180.051
246,0.408183,4180.051
247,0.40985,3933.713
248,0.411517,3696.121
249,0.413183,3696.121
250,0.41485,3468.081
251,0.416517,3251.188
252,0.418183,3045.171
253,0.41985,3045.171
254,0.4215,2850.555
255,0.423167,2667.613
256,0.424833,2495.93
257,0.4265,2495.93
258,0.428167,2335.325
259,0.429833,2185.084
260,0.4315,2044.827
261,0.433167,2044.827
262,0.434833,1913.764
263,0.4365,1791.857
264,0.438167,1678.772
265,0.439833,1678.772
266,0.4415,1573.384
267,0.443167,1475.401
268,0.444833,1475.401
269,0.4465,1384.258
270,0.448167,1299.776
271,0.449833,1221.552
272,0.4515,1221.552
273,0.453167,1149.207
274,0.454833,1082.033
275,0.4565,1019.083
276,0.458167,1019.083
277,0.459833,960.633
278,0.4615,906.222
279,0.463167,855.543
280,0.464833,855.543
281,0.4665,808.612
282,0.468167,764.713
283,0.469833,764.713
284,0.4715,723.816
285,0.473167,685.975
286,0.474883,650.682
287,0.4765,650.682
288,0.478183,617.802
289,0.479833,587.538
290,0.4815,559.524
291,0.48315,559.524
292,0.484817,533.38
293,0.486483,509.255
294,0.48815,486.374
295,0.489817,486.374
296,0.491617,464.886
297,0.49315,444.859
298,0.494817,426.158
299,0.496483,426.158
300,0.49815,408.605
301,0.499817,392.452
302,0.501483,392.452
303,0.50315,377.64
304,0.504817,363.596
305,0.506483,350.974
306,0.50815,350.974
307,0.509817,338.927
308,0.511483,327.244
309,0.51315,316.672
310,0.514817,316.672
311,0.516483,306.42
312,0.51815,297.129
313,0.519817,288.673
314,0.521483,288.673
315,0.52315,280.693
316,0.524817,273.541
317,0.526483,273.541
318,0.52815,266.47
319,0.529817,259.772
320,0.531483,253.275
321,0.53315,253.275
322,0.534817,247.262
323,0.536483,241.518
324,0.53815,236.146
325,0.539817,236.146
326,0.541483,231.139
327,0.543133,226.453
328,0.5448,222.407
329,0.5464830000000001,222.407
330,0.548183,218.66
331,0.5498,215.709
332,0.551467,212.461
333,0.553133,212.461
334,0.554817,209.011
335,0.556467,206.21
336,0.558133,206.21
337,0.5598,202.902
338,0.561467,200.056
339,0.563133,197.276
340,0.5648,197.276
341,0.5664670000000001,194.49
342,0.568133,192.21
343,0.5698,189.938
344,0.5714669999999999,189.938
345,0.573133,188.477
346,0.5748,186.622
347,0.5765169999999999,184.722
348,0.578133,184.722
349,0.5798,183.016
350,0.581467,181.086
351,0.583133,181.086
352,0.5848,179.611
353,0.58645,178.099
354,0.588117,176.825
355,0.5897829999999999,176.825
356,0.59145,176.013
357,0.593183,174.895
358,0.594783,174.083
359,0.59645,174.083
360,0.598117,173.256
361,0.599783,171.863
362,0.601433,170.812
363,0.6031,170.812
364,0.6047670000000001,169.858
365,0.606433,168.867
366,0.6081,168.867
367,0.60985,167.958
368,0.611433,167.102
369,0.6131,166.215
370,0.614767,166.215
371,0.616433,165.336
372,0.6181,164.635
373,0.619767,163.808
374,0.621433,163.808
375,0.623117,163.13
376,0.624767,162.408
377,0.626433,161.961
378,0.6281,161.961
379,0.629767,161.655
380,0.631433,161.119
381,0.6331,160.404
382,0.634767,160.404
383,0.636433,159.778
384,0.6381,159.368
385,0.639767,159.368
386,0.641433,158.951
387,0.643117,158.668
388,0.644767,158.221
389,0.646433,158.221
390,0.6481,157.602
391,0.649767,157.073
392,0.651433,156.954
393,0.6531,156.954
394,0.654767,156.716
395,0.656433,156.35
396,0.6581,155.889
397,0.659767,155.889
398,0.661417,155.494
399,0.663083,155.129
400,0.66475,155.129
401,0.666417,154.927
402,0.668083,154.555
403,0.66975,154.227
404,0.671417,154.227
405,0.673083,153.735
406,0.67475,153.46
407,0.676417,153.542
408,0.678083,153.542
409,0.67975,153.273
410,0.6814170000000001,153.251
411,0.683083,152.953
412,0.68475,152.953
413,0.686433,152.543
414,0.688083,152.29
415,0.68975,152.096
416,0.6914169999999999,152.096
417,0.693083,151.709
418,0.694783,151.47
419,0.696417,151.47
420,0.698083,151.306
421,0.69975,150.867
422,0.701417,151.202
423,0.703083,151.202
424,0.70475,151.277
425,0.706417,151.053
426,0.708083,150.986
427,0.70975,150.986
428,0.711433,150.263
429,0.713083,150.085
430,0.71475,150.196
431,0.716417,150.196
432,0.718083,150.301
433,0.71975,150.524
434,0.7214,150.524
435,0.723067,150.152
436,0.724733,149.928
437,0.7264,149.786
438,0.728183,149.786
439,0.729733,149.742
440,0.7314000000000001,149.637
441,0.733067,149.176
442,0.734733,149.176
443,0.736417,149.086
444,0.738067,148.796
445,0.739733,148.661
446,0.7413999999999999,148.661
447,0.743067,148.743
448,0.744733,148.46
449,0.7464,148.587
450,0.748067,148.587
451,0.749733,148.661
452,0.7514,148.542
453,0.753067,148.542
454,0.754733,148.192
455,0.7564,147.723
456,0.758067,147.566
457,0.759733,147.566
458,0.7614,147.343
459,0.7630670000000001,147.618
460,0.764783,147.738
461,0.766417,147.738
462,0.7680670000000001,147.596
463,0.769733,147.641
464,0.7714,147.417
465,0.7730669999999999,147.417
466,0.774733,147.447
467,0.7764,147.283
468,0.778067,147.283
469,0.779733,147.402
470,0.7814,147.291
471,0.78305,146.911
472,0.784717,146.911
473,0.7863830000000001,147.03
474,0.78805,146.903
475,0.789717,146.963
476,0.7913829999999999,146.963
477,0.79305,146.903
478,0.794717,146.605
479,0.796383,146.329
480,0.79805,146.329
481,0.799717,146.188
482,0.801383,146.583
483,0.80305,146.583
484,0.804717,146.62
485,0.806383,146.449
486,0.80805,146.009
487,0.809717,146.009
488,0.811383,145.376
489,0.81315,145.45
490,0.814717,145.696
491,0.816383,145.696
492,0.8180500000000001,146.203
493,0.819717,146.359
494,0.821383,146.188
495,0.8230499999999999,146.188
496,0.824717,146.031
497,0.826383,145.502
498,0.82805,145.607
499,0.8297330000000001,145.607
500,0.831383,145.383
501,0.83305,145.465
502,0.834717,145.465
503,0.836417,145.845
504,0.83805,145.748
505,0.839717,145.853
506,0.841367,145.853
507,0.843033,145.443
508,0.8447,145.145
509,0.846483,144.891
510,0.848033,144.891
511,0.8497,145.026
512,0.851367,144.951
513,0.853033,144.981
514,0.8547,144.981
515,0.856367,145.13
516,0.858033,144.914
517,0.8597,144.914
518,0.861367,144.996
519,0.8630330000000001,144.996
520,0.8647,144.824
521,0.866367,144.824
522,0.8680330000000001,144.839
523,0.8697,144.862
524,0.871367,144.817
525,0.8730329999999999,144.817
526,0.8747,145.026
527,0.876367,144.958
528,0.878017,144.936
529,0.879683,144.936
530,0.88135,144.899
531,0.8830170000000001,144.757
532,0.884683,144.869
533,0.88635,144.869
534,0.8880169999999999,144.571
535,0.889683,144.415
536,0.89135,144.415
537,0.8930169999999999,144.109
538,0.894683,143.99
539,0.89635,144.348
540,0.898017,144.348
541,0.899683,144.072
542,0.901367,144.131
543,0.903,144.064
544,0.904667,144.064
545,0.9063330000000001,143.67
546,0.908017,143.93
547,0.909717,143.833
548,0.9113329999999999,143.833
549,0.913,143.677
550,0.914667,143.945
551,0.916333,143.945
552,0.918,144.102
553,0.919667,143.99
554,0.921333,144.087
555,0.923,144.087
556,0.924667,144.139
557,0.926333,143.684
558,0.928,143.766
559,0.929667,143.766
560,0.931383,143.558
561,0.9330000000000001,143.215
562,0.934667,143.424
563,0.936333,143.424
564,0.9379999999999999,143.476
565,0.939667,143.595
566,0.94135,143.774
567,0.9429999999999999,143.774
568,0.944667,143.595
569,0.946333,143.565
570,0.948,143.565
571,0.949667,143.647
572,0.951333,143.804
573,0.953,143.856
574,0.954667,143.856
575,0.956333,143.707
576,0.958,143.655
577,0.959667,143.006
578,0.961317,143.006
579,0.962983,142.887
580,0.964767,142.79
581,0.966317,142.656
582,0.967983,142.656
583,0.96965,143.304
584,0.971317,143.602
585,0.972983,143.602
586,0.97465,143.722
587,0.976317,143.789
588,0.977983,143.416
589,0.97965,143.416
590,0.981333,143.118
591,0.983,142.954
592,0.98465,142.619
593,0.986317,142.619
594,0.9879829999999999,142.537
595,0.98965,142.738
596,0.991317,142.79
597,0.9929829999999999,142.79
598,0.99465,142.857
599,0.996317,143.029
600,0.997983,143.029
601,0.99965,142.82
602,1.001317,142.671
603,1.002983,142.559
604,1.00465,142.559
605,1.006317,142.269
606,1.007983,142.075
607,1.00965,141.934
608,1.011317,141.934
609,1.012983,142.217
610,1.01465,142.276
611,1.016317,142.485
612,1.017983,142.485
613,1.01965,142.962
614,1.0213,143.111
615,1.022967,143.163
616,1.024633,143.163
617,1.0263,143.103
618,1.027967,143.006
619,1.029633,143.006
620,1.0313,142.626
621,1.032967,142.567
622,1.034633,142.686
623,1.0363,142.686
624,1.037967,142.425
625,1.039633,142.768
626,1.0413,142.857
627,1.042967,142.857
628,1.044633,142.902
629,1.0463,142.999
630,1.047967,142.753
631,1.049683,142.753
632,1.0513,142.679
633,1.052967,142.306
634,1.054633,142.306
635,1.0563,142.306
636,1.057967,142.321
637,1.059683,142.276
638,1.0613,142.276
639,1.062967,142.306
640,1.064633,142.381
641,1.0663,142.269
642,1.067967,142.269
643,1.069633,142.314
644,1.0713,142.425
645,1.072967,142.239
646,1.074633,142.239
647,1.0763,142.522
648,1.077967,142.664
649,1.079633,142.798
650,1.0813,142.798
651,1.083067,143.006
652,1.084617,142.917
653,1.086283,142.917
654,1.08795,142.701
655,1.089617,142.448
656,1.091283,142.373
657,1.09295,142.373
658,1.094617,142.522
659,1.096283,142.537
660,1.09795,142.515
661,1.099617,142.515
662,1.101283,142.433
663,1.10295,142.053
664,1.104617,142.06
665,1.106283,142.06
666,1.10795,142.016
667,1.109617,142.083
668,1.111283,142.083
669,1.11295,142.053
670,1.114617,141.963
671,1.116283,141.941
672,1.11795,141.941
673,1.119617,141.747
674,1.121283,141.717
675,1.12295,141.993
676,1.124617,141.993
677,1.126283,142.194
678,1.12795,142.083
679,1.12965,141.68
680,1.131283,141.68
681,1.13295,141.524
682,1.134617,141.762
683,1.136283,141.971
684,1.13795,141.971
685,1.139617,142.813
686,1.141267,142.649
687,1.142967,142.649
688,1.14465,142.269
689,1.146267,142.03
690,1.147933,141.531
691,1.1496,141.531
692,1.151267,141.658
693,1.152933,141.643
694,1.1546,141.889
695,1.156267,141.889
696,1.157933,141.799
697,1.1596,141.732
698,1.161267,141.934
699,1.162933,141.934
700,1.1646,141.852
701,1.166267,141.986
702,1.167967,141.986
703,1.169583,141.829
704,1.17125,141.472
705,1.172917,141.65
706,1.174583,141.65
707,1.17625,141.934
708,1.177917,142.209
709,1.179583,142.492
710,1.18125,142.492
711,1.182917,142.045
712,1.1847,141.636
713,1.18625,141.33
714,1.187917,141.33
715,1.189583,141.077
716,1.19125,141.025
717,1.192917,141.025
718,1.194583,141.129
719,1.19625,141.144
720,1.197917,141.144
721,1.199583,141.144
722,1.20125,141.315
723,1.20295,141.248
724,1.204567,141.315
725,1.206233,141.315
726,1.2079,141.554
727,1.209567,141.814
728,1.211233,142.135
729,1.2129,142.135
730,1.214567,142.179
731,1.216233,142.246
732,1.2179,142.142
733,1.219567,142.142
734,1.221233,141.934
735,1.2229,141.956
736,1.224567,141.956
737,1.226233,141.628
738,1.2279,141.501
739,1.229567,141.077
740,1.231233,141.077
741,1.2329,141.114
742,1.234567,141.136
743,1.236267,140.883
744,1.2379,140.883
745,1.239567,141.427
746,1.241233,141.323
747,1.2429,141.256
748,1.244567,141.256
749,1.246233,141.665
750,1.2479,141.338
751,1.249567,141.338
752,1.251233,141.33
753,1.2529,141.39
754,1.254567,141.054
755,1.256233,141.054
756,1.2579,141.3
757,1.259567,141.524
758,1.261217,142.008
759,1.262883,142.008
760,1.26455,142.03
761,1.266217,141.904
762,1.267883,141.479
763,1.26955,141.479
764,1.271217,141.039
765,1.272917,141.256
766,1.27455,141.36
767,1.276217,141.36
768,1.277883,141.3
769,1.27955,141.114
770,1.281217,141.114
771,1.282883,140.943
772,1.28455,140.987
773,1.286217,141.151
774,1.287883,141.151
775,1.28955,141.285
776,1.291217,141.174
777,1.292883,140.958
778,1.29455,140.958
779,1.296217,140.935
780,1.297883,141.092
781,1.29955,141.367
782,1.301217,141.367
783,1.302883,141.33
784,1.30455,141.367
785,1.306217,141.367
786,1.307883,141.159
787,1.30955,141.077
788,1.311217,140.972
789,1.312883,140.972
790,1.31455,140.943
791,1.316217,141.211
792,1.317883,141.062
793,1.319617,141.062
794,1.3212,141.367
795,1.322867,141.218
796,1.324533,141.233
797,1.3262,141.233
798,1.327867,141.397
799,1.329533,141.27
800,1.3312,141.419
801,1.332867,141.419
802,1.334533,141.151
803,1.3363,141.047
804,1.337867,141.047
805,1.339533,140.853
806,1.3412,140.749
807,1.342867,140.563
808,1.34455,140.563
809,1.3462,140.458
810,1.347867,140.458
811,1.34955,140.473
812,1.3512,140.473
813,1.352867,140.622
814,1.354533,140.734
815,1.3562,140.794
816,1.357867,140.794
817,1.359533,141.181
818,1.3612,141.226
819,1.362867,141.226
820,1.364533,141.144
821,1.3662,141.338
822,1.367867,141.069
823,1.369533,141.069
824,1.3712,141.248
825,1.372867,141.636
826,1.374533,141.732
827,1.3762,141.732
828,1.377867,141.732
829,1.379517,141.278
830,1.381183,140.749
831,1.38285,140.749
832,1.384517,140.615
833,1.386183,140.809
834,1.38785,140.809
835,1.389517,140.958
836,1.391183,141.136
837,1.39285,140.95
838,1.394517,140.95
839,1.396183,140.674
840,1.39785,140.853
841,1.399517,140.987
842,1.401183,140.987
843,1.402867,140.868
844,1.404517,141.017
845,1.406183,141.114
846,1.40785,141.114
847,1.409517,140.95
848,1.411183,141.121
849,1.41285,141.248
850,1.414517,141.248
851,1.416183,140.89
852,1.41785,140.898
853,1.419517,140.898
854,1.42125,140.913
855,1.422883,140.652
856,1.424517,140.935
857,1.426183,140.935
858,1.42785,140.712
859,1.429517,140.66
860,1.431183,140.578
861,1.43285,140.578
862,1.434517,140.406
863,1.436183,140.518
864,1.4379,140.801
865,1.439517,140.801
866,1.441167,140.913
867,1.442833,140.95
868,1.4445,140.95
869,1.446167,141.181
870,1.447833,141.189
871,1.4495,140.898
872,1.451167,140.898
873,1.452833,140.943
874,1.454617,141.017
875,1.456167,140.779
876,1.457833,140.779
877,1.459483,140.831
878,1.46115,140.905
879,1.462817,140.682
880,1.464483,140.682
881,1.46615,140.756
882,1.467817,141.01
883,1.469483,141.069
884,1.47115,141.069
885,1.472817,141.434
886,1.474483,141.412
887,1.47615,141.412
888,1.477817,140.987
889,1.479483,140.741
890,1.48115,140.563
891,1.482817,140.563
892,1.484483,140.585
893,1.48615,141.01
894,1.487817,140.883
895,1.489483,140.883
896,1.491183,140.615
897,1.492817,140.548
898,1.494483,140.451
899,1.49615,140.451
900,1.49785,140.473
901,1.499483,140.548
902,1.501133,140.548
903,1.5028,140.54
904,1.504467,140.585
905,1.506133,140.63
906,1.5078,140.63
907,1.509467,140.868
908,1.511133,140.749
909,1.5128,140.645
910,1.514467,140.645
911,1.516133,140.637
912,1.5178,140.414
913,1.519483,140.421
914,1.521133,140.421
915,1.5228,140.481
916,1.524467,140.719
917,1.526133,140.95
918,1.5278,140.95
919,1.529467,140.958
920,1.531133,141.032
921,1.5328,141.032
922,1.534467,140.727
923,1.536133,140.391
924,1.5378,140.123
925,1.539483,140.123
926,1.541133,139.87
927,1.5428,139.959
928,1.544467,140.175
929,1.546133,140.175
930,1.5478,140.578
931,1.549467,140.831
932,1.551133,140.734
933,1.5528,140.734
934,1.554467,140.637
935,1.55615,140.689
936,1.5578,140.689
937,1.55945,140.637
938,1.561117,140.712
939,1.562783,140.719
940,1.56445,140.719
941,1.566117,140.555
942,1.567783,140.525
943,1.56945,140.801
944,1.571117,140.801
945,1.572933,140.66
946,1.57445,140.481
947,1.576117,140.458
948,1.577783,140.458
949,1.57945,140.369
950,1.581117,140.145
951,1.582783,140.145
952,1.58445,140.25
953,1.586117,140.361
954,1.587783,140.309
955,1.58945,140.309
956,1.591117,140.622
957,1.592783,140.429
958,1.59445,140.689
959,1.596117,140.689
960,1.597783,140.771
