"ID","sea_time","fid_signal"
1,0,1162.738
2,0.001667,1158.416
3,0.003333,1159.981
4,0.005,1157.522
5,0.006667,1157.522
6,0.008333,1157.224
7,0.01,1157.969
8,0.011667,1158.491
9,0.013333,1158.491
10,0.015,1163.483
11,0.016667,1164.377
12,0.01835,1165.941
13,0.02005,1165.941
14,0.021667,1167.059
15,0.023333,1167.879
16,0.025,1167.879
17,0.026667,1167.729
18,0.028367,1169.071
19,0.03,1164.898
20,0.031667,1164.898
21,0.033333,1164.004
22,0.035,1164.153
23,0.036733,1163.11
24,0.038333,1163.11
25,0.04,1165.569
26,0.041667,1163.11
27,0.043333,1164.153
28,0.045,1164.153
29,0.046667,1165.122
30,0.048333,1164.675
31,0.05,1164.675
32,0.051667,1165.941
33,0.05345,1166.239
34,0.055,1167.879
35,0.05665,1167.879
36,0.058317,1169.741
37,0.059983,1167.879
38,0.06165,1166.761
39,0.063317,1166.761
40,0.064983,1164.302
41,0.06665,1162.216
42,0.068317,1162.142
43,0.069983,1162.142
44,0.07165000000000001,1161.62
45,0.07331699999999999,1163.185
46,0.07498299999999999,1162.365
47,0.07665,1162.365
48,0.078317,1164.228
49,0.079983,1163.259
50,0.08165,1163.259
51,0.083317,1160.8
52,0.084983,1162.812
53,0.08665,1162.44
54,0.08831700000000001,1162.44
55,0.08998299999999999,1164.675
56,0.091667,1168.102
57,0.093317,1169.518
58,0.094983,1169.518
59,0.09665,1171.082
60,0.098333,1171.455
61,0.099983,1172.349
62,0.10165,1172.349
63,0.103317,1170.635
64,0.104983,1170.486
65,0.10665,1170.486
66,0.108317,1169.22
67,0.110017,1164.377
68,0.11165,1165.047
69,0.113317,1165.047
70,0.114983,1164.153
71,0.116633,1163.259
72,0.1183,1166.388
73,0.119967,1166.388
74,0.121633,1167.506
75,0.1233,1170.784
76,0.124967,1174.733
77,0.126633,1174.733
78,0.1283,1176.074
79,0.129967,1174.882
80,0.131633,1174.882
81,0.1333,1172.051
82,0.134967,1170.561
83,0.136633,1167.729
84,0.138317,1167.729
85,0.139967,1164.898
86,0.141633,1163.483
87,0.1433,1164.973
88,0.144967,1164.973
89,0.146633,1167.357
90,0.1483,1170.263
91,0.149967,1173.466
92,0.151633,1173.466
93,0.1533,1171.753
94,0.155,1168.698
95,0.156633,1168.251
96,0.1583,1168.251
97,0.159967,1168.326
98,0.161633,1167.58
99,0.1633,1167.58
100,0.164967,1171.082
101,0.166633,1169.816
102,0.1683,1166.016
103,0.17,1166.016
104,0.171717,1166.463
105,0.1733,1163.11
106,0.174967,1164.675
107,0.176617,1164.675
108,0.178283,1165.941
109,0.17995,1163.855
110,0.181617,1163.408
111,0.183283,1163.408
112,0.18495,1162.961
113,0.186617,1162.216
114,0.188283,1162.216
115,0.18995,1163.11
116,0.191617,1165.569
117,0.193283,1167.432
118,0.19495,1167.432
119,0.196617,1167.208
120,0.198283,1166.612
121,0.19995,1166.016
122,0.201617,1166.016
123,0.203267,1164.004
124,0.204933,1166.761
125,0.2066,1167.506
126,0.208267,1167.506
127,0.209933,1165.047
128,0.2116,1164.6
129,0.213267,1162.887
130,0.214933,1162.887
131,0.2166,1165.941
132,0.218267,1166.537
133,0.219933,1166.537
134,0.2216,1165.941
135,0.223267,1165.345
136,0.224933,1163.632
137,0.2266,1163.632
138,0.228267,1163.11
139,0.229933,1163.781
140,0.2316,1167.208
141,0.233267,1167.208
142,0.234933,1166.016
143,0.236617,1167.655
144,0.2383,1167.208
145,0.239917,1167.208
146,0.241583,1162.291
147,0.24325,1164.526
148,0.244917,1164.526
149,0.246583,1167.357
150,0.24825,1168.102
151,0.249917,1168.549
152,0.251583,1168.549
153,0.25325,1170.114
154,0.254917,1166.91
155,0.2566,1166.984
156,0.25825,1166.984
157,0.259917,1167.432
158,0.261583,1162.589
159,0.26325,1162.738
160,0.264917,1162.738
161,0.266583,1163.483
162,0.26825,1167.282
163,0.269917,1169.816
164,0.271583,1169.816
165,0.273267,1172.274
166,0.274917,1170.486
167,0.276583,1170.486
168,0.27825,1168.177
169,0.279917,1165.271
170,0.281583,1161.769
171,0.28325,1161.769
172,0.284917,1162.961
173,0.286583,1161.62
174,0.28825,1164.898
175,0.290033,1164.898
176,0.291583,1166.388
177,0.29325,1165.122
178,0.2949,1166.761
179,0.296567,1166.761
180,0.298233,1166.016
181,0.2999,1166.835
182,0.301567,1166.835
183,0.303233,1171.902
184,0.3049,1174.882
185,0.306567,1177.937
186,0.308233,1177.937
187,0.3099,1182.482
188,0.311567,1182.556
189,0.313267,1183.972
190,0.3149,1183.972
191,0.316567,1186.729
192,0.318233,1185.834
193,0.3199,1187.25
194,0.321567,1187.25
195,0.323233,1191.05
196,0.3249,1193.583
197,0.326567,1193.583
198,0.328233,1200.512
199,0.3299,1207.739
200,0.331567,1214.594
201,0.333233,1214.594
202,0.3349,1224.652
203,0.336567,1232.997
204,0.338233,1240.82
205,0.3399,1240.82
206,0.341567,1248.27
207,0.343233,1253.56
208,0.3449,1263.767
209,0.346567,1263.767
210,0.348233,1272.634
211,0.3499,1279.563
212,0.351567,1286.045
213,0.353233,1286.045
214,0.354883,1288.578
215,0.35655,1292.378
216,0.358217,1292.378
217,0.359883,1294.911
218,0.36155,1297.37
219,0.363217,1303.703
220,0.364883,1303.703
221,0.366583,1312.941
222,0.368217,1327.395
223,0.369883,1351.386
224,0.37155,1351.386
225,0.373217,1383.349
226,0.37495,1430.064
227,0.37655,1500.919
228,0.378217,1500.919
229,0.379883,1593.903
230,0.38155,1712.292
231,0.383217,1712.292
232,0.3849,1857.951
233,0.38655,2029.687
234,0.388217,2224.669
235,0.389883,2224.669
236,0.39155,2441.034
237,0.393217,2674.46
238,0.394883,2916.53
239,0.39655,2916.53
240,0.398217,3165.379
241,0.399883,3414.974
242,0.40155,3660.992
243,0.403217,3660.992
244,0.404883,3896.877
245,0.40655,4121.736
246,0.408333,4330.576
247,0.409883,4330.576
248,0.41155,4524.514
249,0.413217,4698.708
250,0.414867,4698.708
251,0.416533,4852.936
252,0.4182,4986.524
253,0.419867,5097.464
254,0.421533,5097.464
255,0.4232,5188.137
256,0.424867,5259.737
257,0.426533,5315.617
258,0.4282,5315.617
259,0.429867,5350.262
260,0.431533,5366.281
261,0.4332,5363.151
262,0.434867,5363.151
263,0.436533,5343.333
264,0.4382,5310.998
265,0.439867,5310.998
266,0.441533,5269.572
267,0.4432,5218.387
268,0.444867,5156.249
269,0.446533,5156.249
270,0.4482,5081.817
271,0.449867,4997.924
272,0.451533,4909.113
273,0.453217,4909.113
274,0.454867,4812.181
275,0.456533,4715.994
276,0.4582,4615.933
277,0.459867,4615.933
278,0.461533,4509.166
279,0.4632,4405.305
280,0.464867,4301.071
281,0.466533,4301.071
282,0.4682,4198.104
283,0.469867,4098.341
284,0.471533,4098.341
285,0.4732,4003.197
286,0.47485,3907.308
287,0.476517,3815.442
288,0.478183,3815.442
289,0.47985,3724.769
290,0.481517,3634.84
291,0.483183,3547.37
292,0.48485,3547.37
293,0.486517,3462.21
294,0.488183,3382.563
295,0.48985,3303.364
296,0.491517,3303.364
297,0.493217,3227.666
298,0.494833,3155.246
299,0.4965,3155.246
300,0.498167,3084.391
301,0.499833,3015.324
302,0.5014999999999999,2951.995
303,0.503167,2951.995
304,0.504833,2893.135
305,0.5065,2833.754
306,0.508167,2779.737
307,0.509833,2779.737
308,0.5115,2728.552
309,0.513167,2675.727
310,0.514833,2628.639
311,0.5165,2628.639
312,0.518167,2581.775
313,0.519833,2534.464
314,0.5215,2534.464
315,0.523167,2491.549
316,0.524833,2449.304
317,0.526583,2404.153
318,0.5282,2404.153
319,0.529833,2360.195
320,0.5315,2320.781
321,0.5331669999999999,2283.007
322,0.53485,2283.007
323,0.536533,2248.287
324,0.53815,2215.058
325,0.539817,2180.934
326,0.541483,2180.934
327,0.54315,2147.406
328,0.544817,2117.306
329,0.5464830000000001,2090.111
330,0.54815,2090.111
331,0.549817,2060.16
332,0.5514829999999999,2035.871
333,0.55315,2035.871
334,0.554817,2010.316
335,0.5564829999999999,1983.941
336,0.55815,1961.663
337,0.559817,1961.663
338,0.561483,1936.033
339,0.56315,1912.266
340,0.564817,1891.33
341,0.566483,1891.33
342,0.56815,1867.637
343,0.569817,1846.626
344,0.571483,1825.318
345,0.57315,1825.318
346,0.574817,1803.413
347,0.576483,1785.532
348,0.5781500000000001,1785.532
349,0.579817,1768.097
350,0.581483,1751.781
351,0.5831499999999999,1735.836
352,0.584817,1735.836
353,0.586483,1717.955
354,0.58815,1701.713
355,0.589817,1688.451
356,0.591483,1688.451
357,0.59315,1673.102
358,0.5948,1662.523
359,0.596467,1650.527
360,0.598133,1650.527
361,0.5998,1639.277
362,0.601533,1628.697
363,0.603133,1615.956
364,0.6048,1615.956
365,0.606467,1604.706
366,0.608133,1588.836
367,0.6098,1588.836
368,0.6115,1575.127
369,0.613133,1561.269
370,0.6148,1545.548
371,0.616467,1545.548
372,0.618133,1537.204
373,0.6198,1529.083
374,0.621467,1522.303
375,0.623133,1522.303
376,0.6248,1516.119
377,0.626467,1509.19
378,0.6281330000000001,1500.174
379,0.6298,1500.174
380,0.631467,1490.042
381,0.6331329999999999,1480.654
382,0.6348,1480.654
383,0.636467,1468.137
384,0.638133,1459.047
385,0.6398,1451.075
386,0.641467,1451.075
387,0.643133,1443.625
388,0.644883,1439.08
389,0.646467,1433.194
390,0.648133,1433.194
391,0.6498,1427.159
392,0.651467,1423.508
393,0.653133,1416.951
394,0.654783,1416.951
395,0.65645,1411.214
396,0.658117,1407.34
397,0.659783,1398.325
398,0.66145,1398.325
399,0.663117,1392.737
400,0.664783,1385.659
401,0.66645,1385.659
402,0.668117,1377.165
403,0.669783,1372.471
404,0.67145,1365.542
405,0.673117,1365.542
406,0.6748,1361.966
407,0.676467,1361.072
408,0.678117,1356.378
409,0.679783,1356.378
410,0.68145,1351.684
411,0.683117,1346.841
412,0.684783,1339.763
413,0.68645,1339.763
414,0.688117,1334.548
415,0.689783,1331.866
416,0.69145,1331.866
417,0.693117,1328.811
418,0.694783,1323.67
419,0.69645,1320.392
420,0.698117,1320.392
421,0.699783,1318.306
422,0.70145,1313.463
423,0.703117,1310.11
424,0.704783,1310.11
425,0.70645,1308.471
426,0.708117,1303.107
427,0.7097830000000001,1299.754
428,0.71145,1299.754
429,0.7131,1297.072
430,0.714767,1293.57
431,0.716433,1293.57
432,0.7181,1292.601
433,0.719767,1289.323
434,0.721433,1287.907
435,0.7231,1287.907
436,0.7247670000000001,1287.311
437,0.726433,1282.543
438,0.7281,1283.139
439,0.7297670000000001,1283.139
440,0.731433,1279.935
441,0.7331,1274.645
442,0.7347669999999999,1273.751
443,0.736433,1273.751
444,0.7381,1269.951
445,0.739767,1266.897
446,0.7414500000000001,1263.991
447,0.7431,1263.991
448,0.7448,1261.309
449,0.746483,1259.372
450,0.7481,1259.372
451,0.749767,1259.893
452,0.751433,1259.819
453,0.7531,1255.646
454,0.754767,1255.646
455,0.756433,1255.348
456,0.7581,1250.207
457,0.759767,1249.611
458,0.761433,1249.611
459,0.7631829999999999,1249.015
460,0.764767,1245.514
461,0.766433,1245.812
462,0.7681,1245.812
463,0.769767,1243.651
464,0.771433,1243.576
465,0.773083,1243.576
466,0.77475,1238.957
467,0.776417,1238.137
468,0.778083,1237.02
469,0.779883,1237.02
470,0.781417,1235.083
471,0.783083,1238.212
472,0.784733,1236.349
473,0.7864,1236.349
474,0.788067,1231.134
475,0.789733,1230.091
476,0.7914,1227.26
477,0.793067,1227.26
478,0.794733,1224.652
479,0.7964,1228.303
480,0.798067,1226.589
481,0.799733,1226.589
482,0.8014,1227.707
483,0.803067,1228.526
484,0.804733,1228.526
485,0.8064,1224.726
486,0.808067,1223.758
487,0.809733,1220.629
488,0.8114,1220.629
489,0.813067,1218.095
490,0.814733,1217.35
491,0.816433,1214.221
492,0.818067,1214.221
493,0.819733,1213.476
494,0.8214,1212.433
495,0.823067,1210.198
496,0.824733,1210.198
497,0.8264,1210.272
498,0.828083,1209.006
499,0.8297330000000001,1209.006
500,0.8314,1208.112
501,0.833067,1206.92
502,0.834717,1209.08
503,0.836383,1209.08
504,0.83805,1209.08
505,0.839717,1209.08
506,0.841383,1211.241
507,0.84305,1211.241
508,0.8447170000000001,1208.037
509,0.846383,1206.473
510,0.84805,1204.312
511,0.8497169999999999,1204.312
512,0.8514,1201.555
513,0.85305,1200.14
514,0.8547169999999999,1199.022
515,0.856383,1199.022
516,0.85805,1199.171
517,0.859717,1200.438
518,0.861383,1200.438
519,0.86305,1202.002
520,0.864783,1201.63
521,0.866383,1200.81
522,0.86805,1200.81
523,0.869717,1199.022
524,0.871383,1198.649
525,0.87305,1197.83
526,0.874717,1197.83
527,0.876383,1197.681
528,0.87805,1196.861
529,0.879717,1195.595
530,0.881467,1195.595
531,0.88305,1193.062
532,0.884717,1192.391
533,0.886383,1192.391
534,0.88805,1194.626
535,0.889717,1193.359
536,0.891383,1195.073
537,0.89305,1195.073
538,0.8947000000000001,1197.383
539,0.8964,1195.073
540,0.89815,1197.383
541,0.8997000000000001,1197.383
542,0.901367,1199.245
543,0.903033,1197.755
544,0.9046999999999999,1197.904
545,0.906367,1197.904
546,0.908033,1195.818
547,0.9097,1193.21
548,0.911367,1193.21
549,0.913033,1191.944
550,0.9147,1193.434
551,0.916367,1194.924
552,0.918033,1194.924
553,0.9197,1195.893
554,0.9214,1193.285
555,0.923033,1188.07
556,0.9247,1188.07
557,0.9263670000000001,1185.238
558,0.928033,1183.599
559,0.9297,1187.623
560,0.9313669999999999,1187.623
561,0.933033,1193.21
562,0.9347,1195.893
563,0.9363669999999999,1195.595
564,0.938033,1195.595
565,0.9397,1190.975
566,0.941367,1186.505
567,0.943033,1186.505
568,0.9447,1182.929
569,0.946367,1181.364
570,0.948033,1183.301
571,0.9497,1183.301
572,0.951367,1183.227
573,0.953033,1182.78
574,0.9546829999999999,1182.929
575,0.95635,1182.929
576,0.958017,1183.525
577,0.959683,1182.929
578,0.96135,1182.556
579,0.963033,1182.556
580,0.964717,1182.184
581,0.96635,1179.576
582,0.968017,1179.576
583,0.969683,1178.235
584,0.97135,1178.533
585,0.973017,1179.501
586,0.974683,1179.501
587,0.9763500000000001,1182.333
588,0.978017,1187.101
589,0.979683,1188.144
590,0.9813499999999999,1188.144
591,0.983017,1186.952
592,0.984683,1185.164
593,0.9863499999999999,1179.799
594,0.988017,1179.799
595,0.989683,1178.458
596,0.99135,1177.937
597,0.993017,1176.447
598,0.994683,1176.447
599,0.99635,1177.266
600,0.998017,1178.682
601,0.999733,1178.682
602,1.00135,1181.811
603,1.003017,1186.132
604,1.004683,1187.25
605,1.00635,1187.25
606,1.008017,1185.015
607,1.009683,1178.98
608,1.01135,1176.223
609,1.013,1176.223
610,1.014667,1175.702
611,1.0164,1175.627
612,1.018,1176.521
613,1.019667,1176.521
614,1.021333,1176.074
615,1.023,1175.925
616,1.024667,1175.925
617,1.026333,1175.627
618,1.028,1178.235
619,1.029667,1178.458
620,1.031333,1178.458
621,1.033,1177.117
622,1.034667,1178.235
623,1.036333,1177.862
624,1.038,1177.862
625,1.039667,1179.576
626,1.04135,1178.309
627,1.043,1178.756
628,1.044667,1178.756
629,1.046333,1180.396
630,1.048,1179.725
631,1.049667,1184.046
632,1.051333,1184.046
633,1.053,1184.866
634,1.054667,1181.811
635,1.056333,1181.811
636,1.058,1180.097
637,1.059667,1177.862
638,1.061333,1176.521
639,1.063,1176.521
640,1.064667,1176.298
641,1.066333,1175.776
642,1.068,1178.756
643,1.069667,1178.756
644,1.071333,1177.639
645,1.073,1179.054
646,1.074633,1180.321
647,1.0763,1180.321
648,1.077967,1176.596
649,1.079633,1174.584
650,1.0813,1174.584
651,1.082967,1174.807
652,1.084633,1171.38
653,1.086317,1169.592
654,1.087967,1169.592
655,1.089633,1172.2
656,1.0913,1170.561
657,1.092967,1173.466
658,1.094633,1173.466
659,1.0963,1175.553
660,1.097967,1175.031
661,1.099633,1177.862
662,1.101367,1177.862
663,1.102967,1178.011
664,1.104633,1179.352
665,1.1063,1179.352
666,1.107967,1181.066
667,1.109667,1181.364
668,1.1113,1179.874
669,1.112967,1179.874
670,1.114633,1180.023
671,1.1163,1176.372
672,1.117967,1172.647
673,1.119633,1172.647
674,1.1213,1173.317
675,1.122967,1172.051
676,1.124633,1175.478
677,1.1263,1175.478
678,1.127967,1178.607
679,1.129633,1176.447
680,1.1313,1176.447
681,1.132967,1176.447
682,1.134733,1175.702
683,1.136283,1174.36
684,1.13795,1174.36
685,1.139617,1174.063
686,1.141283,1175.404
687,1.14295,1177.788
688,1.144617,1177.788
689,1.146283,1177.788
690,1.14795,1179.278
691,1.149617,1175.031
692,1.151283,1175.031
693,1.15295,1173.019
694,1.154617,1173.466
695,1.156283,1175.106
696,1.15795,1175.106
697,1.159617,1177.192
698,1.161283,1175.702
699,1.16295,1175.702
700,1.164617,1171.902
701,1.166283,1167.432
702,1.16795,1163.781
703,1.169617,1163.781
704,1.171283,1165.271
705,1.17295,1170.263
706,1.174617,1173.69
707,1.176317,1173.69
708,1.17795,1176.447
709,1.179617,1171.753
710,1.181283,1171.827
711,1.182967,1171.827
712,1.184617,1170.933
713,1.186283,1172.051
714,1.18795,1175.851
715,1.189617,1175.851
716,1.191283,1177.415
717,1.19295,1178.011
718,1.1946,1178.011
719,1.196267,1175.925
720,1.197933,1176.447
721,1.1996,1173.094
722,1.201267,1173.094
723,1.202933,1173.317
724,1.2046,1175.255
725,1.206267,1174.51
726,1.207933,1174.51
727,1.2096,1172.423
728,1.211267,1171.753
729,1.212933,1172.2
730,1.2146,1172.2
731,1.216267,1172.349
732,1.217933,1172.721
733,1.21965,1175.404
734,1.221267,1175.404
735,1.222933,1173.243
736,1.2246,1172.647
737,1.226267,1172.647
738,1.227933,1173.541
739,1.2296,1168.4
740,1.231267,1170.039
741,1.232933,1170.039
742,1.2346,1170.039
743,1.236267,1170.412
744,1.237933,1173.019
745,1.2396,1173.019
746,1.241267,1173.541
747,1.242933,1173.913
748,1.2446,1174.51
749,1.246267,1174.51
750,1.247933,1174.51
751,1.2496,1175.851
752,1.251267,1175.851
753,1.25295,1175.255
754,1.2546,1174.659
755,1.25625,1174.659
756,1.257917,1174.659
757,1.2596,1174.063
758,1.2613,1174.807
759,1.262917,1172.796
760,1.264583,1172.796
761,1.26625,1173.168
762,1.267917,1171.306
763,1.269583,1169.965
764,1.27125,1169.965
765,1.272917,1171.604
766,1.274583,1171.604
767,1.27625,1171.604
768,1.277917,1173.69
769,1.279583,1174.807
770,1.28125,1175.478
771,1.282917,1175.478
772,1.284583,1174.957
773,1.28625,1171.306
774,1.287917,1167.133
775,1.289583,1167.133
776,1.29125,1164.451
777,1.292917,1162.365
778,1.294583,1162.067
779,1.29625,1162.067
780,1.297917,1164.377
781,1.299583,1165.271
782,1.30125,1165.345
783,1.302917,1165.345
784,1.304583,1166.761
785,1.30625,1167.58
786,1.307917,1167.58
787,1.309583,1171.529
788,1.31125,1171.753
789,1.3129,1172.721
790,1.314567,1172.721
791,1.316233,1171.306
792,1.3179,1164.451
793,1.319567,1164.153
794,1.321233,1164.153
795,1.3229,1164.153
796,1.324567,1167.432
797,1.326233,1171.604
798,1.3279,1171.604
799,1.329567,1172.2
800,1.331233,1170.859
801,1.3329,1170.859
802,1.334567,1168.549
803,1.336233,1169.22
804,1.33795,1169.965
805,1.339567,1169.965
806,1.341233,1169.369
807,1.3429,1170.263
808,1.344567,1167.357
809,1.346233,1167.357
810,1.3479,1169.741
811,1.349567,1170.039
812,1.351233,1168.624
813,1.3529,1168.624
814,1.354567,1167.804
815,1.356233,1167.133
816,1.3579,1167.133
817,1.359567,1169.443
818,1.361233,1169.965
819,1.3629,1170.635
820,1.364567,1170.635
821,1.366217,1168.4
822,1.367883,1163.93
823,1.36955,1165.122
824,1.371267,1165.122
825,1.372883,1167.133
826,1.374533,1169.145
827,1.3762,1174.36
828,1.377867,1174.36
829,1.379533,1176.149
830,1.3812,1178.384
831,1.382867,1178.086
832,1.384533,1178.086
833,1.3862,1175.925
834,1.387867,1173.019
835,1.389533,1173.019
836,1.3912,1172.423
837,1.392867,1172.721
838,1.394533,1173.913
839,1.3962,1173.913
840,1.397867,1176.149
841,1.39955,1174.286
842,1.401217,1174.212
843,1.402917,1174.212
844,1.404533,1173.913
845,1.4062,1171.082
846,1.407867,1173.615
847,1.409533,1173.615
848,1.4112,1173.168
849,1.412867,1173.541
850,1.414533,1173.541
851,1.4162,1175.18
852,1.417867,1172.051
853,1.419533,1172.572
854,1.4212,1172.572
855,1.422867,1168.4
856,1.424533,1166.016
857,1.4262,1165.494
858,1.427867,1165.494
859,1.429533,1162.291
860,1.4312,1162.663
861,1.43285,1162.44
862,1.434517,1162.44
863,1.436183,1162.589
864,1.43785,1165.122
865,1.439517,1167.357
866,1.441183,1167.357
867,1.44285,1168.4
868,1.444517,1168.996
869,1.446183,1168.996
870,1.44785,1168.326
871,1.449517,1166.984
872,1.451183,1166.612
873,1.45285,1166.612
874,1.454517,1167.655
875,1.456233,1168.773
876,1.45785,1171.753
877,1.459517,1171.753
878,1.461183,1172.572
879,1.46285,1171.529
880,1.464517,1171.008
881,1.466183,1171.008
882,1.46785,1168.4
883,1.469517,1168.847
884,1.4712,1168.847
885,1.47285,1170.635
886,1.47455,1168.549
887,1.476183,1170.71
888,1.47785,1170.71
889,1.479517,1173.168
890,1.481183,1173.168
891,1.482867,1174.137
892,1.484517,1174.137
893,1.486183,1171.827
894,1.48785,1166.612
895,1.489633,1166.239
896,1.491183,1166.239
897,1.492833,1164.526
898,1.4945,1165.122
899,1.496167,1165.122
900,1.497833,1167.432
901,1.4995,1167.58
902,1.501167,1169.071
903,1.502833,1169.071
904,1.5045,1172.274
905,1.506167,1171.827
906,1.507833,1169.369
907,1.5095,1169.369
908,1.511167,1168.177
909,1.512833,1164.153
910,1.5145,1166.016
911,1.516167,1166.016
912,1.517833,1166.761
913,1.5195,1167.729
914,1.521167,1167.282
915,1.522833,1167.282
916,1.5245,1164.451
917,1.526167,1164.079
918,1.527833,1164.079
919,1.5295,1163.781
920,1.531167,1166.463
921,1.532833,1169.965
922,1.5345,1169.965
923,1.536167,1170.859
924,1.537833,1173.615
925,1.5395,1174.212
