"ID","sea_time","fid_signal"
1,0,1168.102
2,0.0017,1167.804
3,0.003317,1166.91
4,0.004983,1166.91
5,0.00665,1166.91
6,0.008317,1165.792
7,0.009983000000000001,1165.569
8,0.01165,1165.569
9,0.013317,1166.016
10,0.014983,1165.494
11,0.01665,1165.867
12,0.018317,1165.867
13,0.019983,1166.314
14,0.02165,1166.835
15,0.023317,1169.22
16,0.024983,1169.22
17,0.02665,1171.38
18,0.02835,1168.773
19,0.029983,1168.326
20,0.03165,1168.326
21,0.033317,1166.09
22,0.035033,1166.91
23,0.03665,1166.91
24,0.038317,1169.443
25,0.04,1171.827
26,0.04165,1171.902
27,0.043317,1171.902
28,0.045,1169.965
29,0.04665,1167.506
30,0.048317,1164.973
31,0.049983,1164.973
32,0.05165,1163.781
33,0.053317,1162.291
34,0.054983,1164.228
35,0.056633,1164.228
36,0.0583,1164.153
37,0.059967,1164.898
38,0.06175,1164.749
39,0.0633,1164.749
40,0.064967,1166.314
41,0.066633,1169.518
42,0.0683,1169.518
43,0.069967,1169.965
44,0.071633,1172.2
45,0.0733,1168.922
46,0.075017,1168.922
47,0.07663300000000001,1168.326
48,0.07829999999999999,1169.369
49,0.079967,1167.208
50,0.081633,1167.208
51,0.0833,1167.506
52,0.084967,1165.047
53,0.086633,1165.047
54,0.0883,1165.867
55,0.08996700000000001,1166.835
56,0.09163300000000001,1167.357
57,0.09329999999999999,1167.357
58,0.094967,1168.549
59,0.096633,1166.09
60,0.0983,1166.388
61,0.099967,1166.388
62,0.101633,1167.357
63,0.1033,1167.655
64,0.104967,1168.251
65,0.106633,1168.251
66,0.1083,1166.016
67,0.109967,1162.961
68,0.111633,1163.483
69,0.1133,1163.483
70,0.114967,1163.781
71,0.116617,1166.239
72,0.118283,1166.239
73,0.119967,1167.804
74,0.121667,1165.345
75,0.123283,1165.047
76,0.12495,1165.047
77,0.126617,1166.686
78,0.128283,1168.027
79,0.12995,1166.612
80,0.131617,1166.612
81,0.133283,1167.804
82,0.13495,1166.165
83,0.136617,1163.334
84,0.1383,1163.334
85,0.13995,1168.027
86,0.141617,1168.475
87,0.143283,1168.475
88,0.14495,1166.761
89,0.1467,1167.432
90,0.148283,1164.228
91,0.14995,1164.228
92,0.151617,1162.887
93,0.153283,1165.42
94,0.15495,1167.506
95,0.156617,1167.506
96,0.158283,1169.667
97,0.15995,1171.827
98,0.161617,1169.741
99,0.163267,1169.741
100,0.164933,1168.4
101,0.1666,1168.773
102,0.168267,1166.09
103,0.169933,1166.09
104,0.1716,1165.718
105,0.173267,1164.377
106,0.174917,1164.377
107,0.176583,1161.099
108,0.17825,1161.173
109,0.180033,1160.502
110,0.181583,1160.502
111,0.18325,1161.396
112,0.184917,1163.036
113,0.186583,1163.408
114,0.18825,1163.408
115,0.189917,1163.706
116,0.191583,1162.961
117,0.19325,1161.173
118,0.194917,1161.173
119,0.196583,1160.875
120,0.19825,1160.726
121,0.199917,1160.726
122,0.201583,1162.216
123,0.20325,1163.185
124,0.204917,1163.781
125,0.206583,1163.781
126,0.20825,1165.047
127,0.209917,1163.93
128,0.211617,1163.408
129,0.21325,1163.408
130,0.214933,1166.09
131,0.216583,1166.016
132,0.21825,1166.016
133,0.219917,1166.016
134,0.221583,1164.6
135,0.22325,1160.8
136,0.224917,1158.863
137,0.226583,1158.863
138,0.22825,1162.663
139,0.229917,1169.369
140,0.231583,1169.369
141,0.23325,1173.69
142,0.234917,1173.988
143,0.236567,1172.796
144,0.238233,1172.796
145,0.2399,1171.455
146,0.241567,1170.859
147,0.243233,1171.529
148,0.2449,1171.529
149,0.246567,1170.412
150,0.248233,1170.933
151,0.2499,1171.157
152,0.251567,1171.157
153,0.253233,1171.157
154,0.2549,1172.945
155,0.256567,1172.945
156,0.258233,1169.667
157,0.2599,1165.643
158,0.261567,1166.984
159,0.263233,1166.984
160,0.264967,1165.569
161,0.266567,1168.177
162,0.268233,1172.87
163,0.2699,1172.87
164,0.271567,1175.329
165,0.273233,1177.266
166,0.2749,1177.862
167,0.276567,1177.862
168,0.278233,1175.329
169,0.2799,1173.392
170,0.2816,1172.647
171,0.283233,1172.647
172,0.2849,1175.255
173,0.2866,1178.533
174,0.288233,1178.533
175,0.2899,1181.215
176,0.291567,1186.877
177,0.293217,1190.23
178,0.294883,1190.23
179,0.29655,1201.034
180,0.2983,1217.946
181,0.299883,1234.412
182,0.30155,1234.412
183,0.303217,1256.689
184,0.304883,1276.433
185,0.30655,1296.55
186,0.308217,1296.55
187,0.309883,1318.753
188,0.31155,1339.614
189,0.313217,1339.614
190,0.314883,1364.499
191,0.31655,1386.031
192,0.318217,1407.564
193,0.319883,1407.564
194,0.32155,1428.351
195,0.323217,1446.307
196,0.324883,1465.753
197,0.32655,1465.753
198,0.328217,1483.262
199,0.329883,1496.747
200,0.33155,1506.135
201,0.333217,1506.135
202,0.334883,1512.468
203,0.33655,1516.566
204,0.338217,1516.566
205,0.339883,1516.491
206,0.34155,1512.393
207,0.343217,1502.335
208,0.344883,1502.335
209,0.34655,1487.508
210,0.348217,1473.501
211,0.349883,1458.228
212,0.35155,1458.228
213,0.353217,1443.326
214,0.354867,1428.574
215,0.356533,1410.767
216,0.3582,1410.767
217,0.359867,1394.004
218,0.361533,1381.71
219,0.363267,1370.162
220,0.364867,1370.162
221,0.366533,1360.551
222,0.3682,1351.982
223,0.369867,1351.982
224,0.371533,1342.669
225,0.3732,1334.771
226,0.374867,1326.874
227,0.376533,1326.874
228,0.3782,1322.031
229,0.379867,1320.019
230,0.381533,1317.561
231,0.383267,1317.561
232,0.384867,1318.604
233,0.386533,1323.223
234,0.3882,1327.768
235,0.389867,1327.768
236,0.391533,1341.403
237,0.3932,1360.476
238,0.394867,1360.476
239,0.396533,1384.02
240,0.3982,1412.407
241,0.399867,1448.318
242,0.401533,1448.318
243,0.4032,1495.108
244,0.404867,1553.372
245,0.406533,1625.419
246,0.4082,1625.419
247,0.409867,1710.877
248,0.411533,1809.522
249,0.4132,1920.313
250,0.41485,1920.313
251,0.41665,2046.898
252,0.418183,2184.51
253,0.41985,2328.53
254,0.421517,2328.53
255,0.423183,2489.76
256,0.42485,2661.869
257,0.426517,2661.869
258,0.428183,2842.695
259,0.42985,3035.665
260,0.431517,3231.987
261,0.433183,3231.987
262,0.43485,3428.534
263,0.436533,3630.221
264,0.438217,3839.284
265,0.43985,3839.284
266,0.441517,4049.316
267,0.4432,4265.681
268,0.44485,4478.395
269,0.446517,4478.395
270,0.448183,4690.736
271,0.44985,4901.364
272,0.451517,4901.364
273,0.453183,5110.651
274,0.454833,5320.162
275,0.4565,5524.382
276,0.458167,5524.382
277,0.459833,5726.591
278,0.4615,5928.055
279,0.463167,6128.103
280,0.464833,6128.103
281,0.4665,6326.139
282,0.468167,6521.27
283,0.469833,6704.628
284,0.4715,6704.628
285,0.473167,6883.145
286,0.474833,7056.817
287,0.476483,7056.817
288,0.47815,7227.585
289,0.479817,7396.042
290,0.481483,7558.242
291,0.48315,7558.242
292,0.484817,7712.245
293,0.486483,7859.319
294,0.48815,7998.347
295,0.489817,7998.347
296,0.491483,8129.254
297,0.49315,8255.243
298,0.494817,8370.353999999999
299,0.496483,8370.353999999999
300,0.49815,8479.58
301,0.499817,8576.587
302,0.501517,8661.299999999999
303,0.50315,8661.299999999999
304,0.504817,8725.300999999999
305,0.506483,8767.022999999999
306,0.50815,8767.022999999999
307,0.509817,8783.713
308,0.511483,8768.066000000001
309,0.513167,8715.689
310,0.514817,8715.689
311,0.516483,8622.333000000001
312,0.51815,8480.475
313,0.519817,8279.904
314,0.521483,8279.904
315,0.52315,8021.742
316,0.524817,7698.313
317,0.526483,7320.643
318,0.52815,7320.643
319,0.529817,6900.579
320,0.531483,6459.653
321,0.53315,6459.653
322,0.534933,6017.461
323,0.536467,5593.226
324,0.538133,5198.94
325,0.5397999999999999,5198.94
326,0.541467,4840.568
327,0.543133,4529.059
328,0.5448,4256.517
329,0.546467,4256.517
330,0.548133,4021.525
331,0.5498,3818.199
332,0.551467,3640.95
333,0.553133,3640.95
334,0.5548,3484.115
335,0.556467,3346.726
336,0.558133,3227.219
337,0.5598,3227.219
338,0.561467,3122.091
339,0.563133,3028.363
340,0.5648,3028.363
341,0.5664670000000001,2946.183
342,0.568133,2869.517
343,0.5698,2795.383
344,0.5714669999999999,2795.383
345,0.573133,2726.242
346,0.5748,2663.359
347,0.576467,2606.809
348,0.578133,2606.809
349,0.579833,2554.804
350,0.581467,2507.195
351,0.583133,2458.915
352,0.5848,2458.915
353,0.586467,2414.137
354,0.588133,2368.838
355,0.5898,2368.838
356,0.591467,2326.816
357,0.593133,2288.297
358,0.594783,2250.075
359,0.59645,2250.075
360,0.598117,2215.728
361,0.5998,2181.828
362,0.6015,2150.238
363,0.603117,2150.238
364,0.604783,2118.722
365,0.60645,2089.292
366,0.608117,2062.47
367,0.609783,2062.47
368,0.61145,2037.808
369,0.613117,2012.998
370,0.614783,1990.125
371,0.6164500000000001,1990.125
372,0.618133,1965.836
373,0.619833,1938.194
374,0.6214499999999999,1938.194
375,0.623117,1918.301
376,0.624783,1896.992
377,0.62645,1877.099
378,0.628117,1877.099
379,0.629783,1859.069
380,0.63145,1838.803
381,0.633117,1818.463
382,0.634783,1818.463
383,0.636517,1801.997
384,0.638117,1784.489
385,0.639783,1768.321
386,0.64145,1768.321
387,0.643117,1755.282
388,0.644783,1740.754
389,0.64645,1740.754
390,0.6481170000000001,1726.97
391,0.6498,1710.877
392,0.65145,1694.56
393,0.6532,1694.56
394,0.654767,1678.839
395,0.656433,1664.683
396,0.6581,1651.719
397,0.659767,1651.719
398,0.661433,1641.288
399,0.6631,1627.803
400,0.664767,1615.658
401,0.6664330000000001,1615.658
402,0.6681,1604.036
403,0.669767,1592.636
404,0.6714329999999999,1592.636
405,0.6731,1583.844
406,0.674767,1574.68
407,0.676433,1564.398
408,0.6781,1564.398
409,0.679767,1553.148
410,0.681433,1544.58
411,0.6831,1537.055
412,0.684767,1537.055
413,0.686433,1530.573
414,0.6881,1522.303
415,0.689767,1513.958
416,0.691433,1513.958
417,0.6931,1504.198
418,0.694767,1495.853
419,0.696433,1489.371
420,0.6981000000000001,1489.371
421,0.699767,1482.368
422,0.701433,1475.364
423,0.7030999999999999,1475.364
424,0.704767,1470.521
425,0.706433,1461.431
426,0.7081,1453.981
427,0.709767,1453.981
428,0.711433,1448.467
429,0.7131,1440.123
430,0.71475,1434.46
431,0.716417,1434.46
432,0.718083,1429.543
433,0.71975,1423.21
434,0.721433,1419.634
435,0.7231,1419.634
436,0.72475,1415.685
437,0.726417,1407.489
438,0.728083,1407.489
439,0.72975,1401.231
440,0.731417,1391.843
441,0.733083,1387.224
442,0.73475,1387.224
443,0.736417,1384.094
444,0.738083,1382.008
445,0.73975,1381.934
446,0.741417,1381.934
447,0.743083,1377.091
448,0.74475,1373.664
449,0.7464,1367.032
450,0.748067,1367.032
451,0.749733,1360.178
452,0.7514,1355.559
453,0.753067,1351.461
454,0.7548,1351.461
455,0.7564,1347.661
456,0.758067,1344.457
457,0.759733,1344.457
458,0.7614,1340.359
459,0.7630670000000001,1335.889
460,0.764733,1332.387
461,0.7664,1332.387
462,0.7680670000000001,1330.301
463,0.769733,1326.054
464,0.771483,1324.788
465,0.7730669999999999,1324.788
466,0.774717,1323.596
467,0.776383,1321.882
468,0.77805,1321.733
469,0.779717,1321.733
470,0.781383,1315.4
471,0.78305,1309.812
472,0.784717,1309.812
473,0.7863830000000001,1302.958
474,0.788133,1297.593
475,0.789717,1296.103
476,0.7913829999999999,1296.103
477,0.793067,1296.252
478,0.794717,1297.072
479,0.796383,1296.028
480,0.79805,1296.028
481,0.799717,1291.633
482,0.801383,1289.919
483,0.80305,1284.108
484,0.804717,1284.108
485,0.806383,1283.661
486,0.80805,1283.511
487,0.809717,1279.786
488,0.811383,1279.786
489,0.8130500000000001,1280.457
490,0.814717,1276.955
491,0.816383,1276.955
492,0.8180500000000001,1273.379
493,0.819717,1270.995
494,0.821383,1267.94
495,0.8230499999999999,1267.94
496,0.824717,1265.109
497,0.826383,1263.618
498,0.82805,1261.979
499,0.829717,1261.979
500,0.831383,1258.627
501,0.83305,1258.478
502,0.8347,1257.807
503,0.836367,1257.807
504,0.838033,1257.062
505,0.8397,1257.136
506,0.841367,1257.136
507,0.843033,1254.603
508,0.8447,1254.38
509,0.846367,1251.549
510,0.848033,1251.549
511,0.8497,1250.282
512,0.851367,1250.207
513,0.853033,1247.227
514,0.8547169999999999,1247.227
515,0.8564000000000001,1247.749
516,0.858033,1245.588
517,0.8597,1243.204
518,0.861367,1243.204
519,0.8630330000000001,1241.639
520,0.8647,1241.192
521,0.866367,1241.192
522,0.8680330000000001,1243.278
523,0.8697,1243.427
524,0.871367,1242.682
525,0.873067,1242.682
526,0.8747,1240.894
527,0.876367,1235.232
528,0.878033,1230.761
529,0.8797,1230.761
530,0.881367,1230.538
531,0.883033,1230.165
532,0.8847,1230.165
533,0.886367,1230.165
534,0.888033,1230.538
535,0.889717,1231.283
536,0.891367,1228.675
537,0.8930169999999999,1228.675
538,0.894683,1230.314
539,0.89635,1229.197
540,0.898017,1229.197
541,0.899683,1227.483
542,0.90135,1227.558
543,0.903017,1223.907
544,0.904683,1223.907
545,0.906483,1222.789
546,0.908017,1219.586
547,0.909683,1217.872
548,0.91135,1217.872
549,0.913017,1218.542
550,0.914683,1218.99
551,0.91635,1220.405
552,0.918017,1220.405
553,0.919683,1222.864
554,0.92135,1222.938
555,0.923017,1222.938
556,0.924683,1222.044
557,0.92635,1221.15
558,0.928033,1216.754
559,0.9297,1216.754
560,0.93135,1217.201
561,0.933017,1216.978
562,0.934683,1217.723
563,0.93635,1217.723
564,0.938017,1217.797
565,0.939683,1214.892
566,0.94135,1214.594
567,0.943017,1214.594
568,0.9446830000000001,1212.656
569,0.94635,1211.613
570,0.948017,1212.284
571,0.9496830000000001,1212.284
572,0.95135,1211.464
573,0.953017,1209.08
574,0.954667,1209.08
575,0.956333,1207.516
576,0.958,1206.994
577,0.959667,1205.429
578,0.961333,1205.429
579,0.963,1205.653
580,0.9646670000000001,1206.1
581,0.966333,1204.461
582,0.968,1204.461
583,0.9696669999999999,1204.088
584,0.971333,1202.822
585,0.973,1202.226
586,0.974667,1202.226
587,0.976333,1200.661
588,0.978,1199.394
589,0.979667,1199.394
590,0.981333,1199.767
591,0.983,1196.265
592,0.984667,1195.371
593,0.986333,1195.371
594,0.988,1196.042
595,0.989667,1195.446
596,0.991383,1199.767
597,0.993,1199.767
598,0.994667,1200.438
599,0.996333,1197.904
600,0.998,1197.979
601,0.999667,1197.979
602,1.001333,1195.595
603,1.003,1198.202
604,1.0047,1199.096
605,1.006333,1199.096
606,1.008,1198.5
607,1.009667,1199.469
608,1.011333,1199.469
609,1.013,1194.477
610,1.014667,1194.477
611,1.016317,1192.689
612,1.017983,1192.689
613,1.01965,1191.199
614,1.021333,1193.881
615,1.022983,1194.403
616,1.024783,1194.403
617,1.026317,1197.308
618,1.027983,1198.724
619,1.02965,1197.234
620,1.031317,1197.234
621,1.032983,1196.861
622,1.03465,1197.01
623,1.036317,1197.01
624,1.037967,1196.116
625,1.039633,1194.999
626,1.0413,1192.838
627,1.042967,1192.838
628,1.044633,1188.964
629,1.0463,1187.101
630,1.047967,1187.474
631,1.049633,1187.474
632,1.0513,1190.156
633,1.052967,1192.465
634,1.054633,1194.775
635,1.0563,1194.775
636,1.057967,1193.732
637,1.059633,1191.497
638,1.0613,1191.497
639,1.062967,1192.316
640,1.064633,1190.23
641,1.066333,1189.336
642,1.067967,1189.336
643,1.069633,1187.921
644,1.0713,1184.717
645,1.07295,1184.866
646,1.074617,1184.866
647,1.076283,1187.921
648,1.07795,1188.144
649,1.079617,1187.623
650,1.081283,1187.623
651,1.08295,1186.132
652,1.084617,1185.089
653,1.086283,1186.729
654,1.08795,1186.729
655,1.089617,1186.579
656,1.0913,1188.517
657,1.09295,1188.517
658,1.094617,1188.815
659,1.096283,1186.803
660,1.09795,1188.815
661,1.099617,1188.815
662,1.101283,1186.356
663,1.10295,1187.623
664,1.104617,1190.454
665,1.106283,1190.454
666,1.10795,1189.336
667,1.109683,1191.497
668,1.111283,1190.603
669,1.11295,1190.603
670,1.114617,1191.422
671,1.116283,1190.826
672,1.11795,1190.826
673,1.119617,1192.242
674,1.121283,1192.54
675,1.12295,1188.368
676,1.124617,1188.368
677,1.126283,1188.517
678,1.12795,1184.791
679,1.129617,1181.811
680,1.131283,1181.811
681,1.13295,1182.556
682,1.1346,1184.121
683,1.136267,1186.729
684,1.13795,1186.729
685,1.13965,1186.43
686,1.141267,1186.505
687,1.143067,1183.897
688,1.1446,1183.897
689,1.146267,1182.109
690,1.147933,1183.301
691,1.1496,1183.301
692,1.151267,1183.227
693,1.152933,1185.089
694,1.1546,1184.493
695,1.156267,1184.493
696,1.157933,1183.078
697,1.1596,1182.631
698,1.161267,1181.513
699,1.162933,1181.513
700,1.1646,1181.513
701,1.166267,1181.29
702,1.167933,1181.737
703,1.1696,1181.737
704,1.171267,1180.246
705,1.172933,1181.066
706,1.1746,1181.066
707,1.176267,1181.96
708,1.177933,1180.693
709,1.1796,1181.141
710,1.1813,1181.141
711,1.182933,1178.905
712,1.1846,1178.235
713,1.186267,1179.948
714,1.187933,1179.948
715,1.1896,1181.662
716,1.191267,1182.482
717,1.192933,1182.184
718,1.194583,1182.184
719,1.196267,1179.65
720,1.197917,1180.396
721,1.199583,1183.227
722,1.20125,1183.227
723,1.202917,1184.344
724,1.204583,1183.152
725,1.206267,1183.152
726,1.207917,1181.886
727,1.209583,1178.458
728,1.21125,1179.129
729,1.212917,1179.129
730,1.214583,1183.674
731,1.21625,1182.631
732,1.217917,1186.132
733,1.219583,1186.132
734,1.22125,1185.238
735,1.222917,1183.748
736,1.224583,1181.066
737,1.22625,1181.066
738,1.227983,1177.937
739,1.229583,1178.086
740,1.23125,1178.086
741,1.232917,1179.725
742,1.234583,1184.642
743,1.23625,1184.568
744,1.237917,1184.568
745,1.239583,1183.674
746,1.24125,1180.693
747,1.242917,1178.309
748,1.244583,1178.309
749,1.24625,1178.533
750,1.247917,1175.776
751,1.249583,1176.745
752,1.25125,1176.745
753,1.252917,1173.541
754,1.254567,1174.659
755,1.256233,1174.659
756,1.2579,1176.149
757,1.259567,1175.553
758,1.26135,1180.321
759,1.2629,1180.321
760,1.264567,1179.799
761,1.266233,1180.843
762,1.2679,1180.47
763,1.269567,1180.47
764,1.271233,1180.321
765,1.2729,1180.619
766,1.274583,1183.376
767,1.276233,1183.376
768,1.2779,1182.407
769,1.2796,1182.556
770,1.281233,1181.364
771,1.2829,1181.364
772,1.284567,1180.023
773,1.286233,1181.811
774,1.2879,1181.811
775,1.289567,1181.066
776,1.291233,1180.619
777,1.2929,1179.874
778,1.294567,1179.874
779,1.296233,1179.054
780,1.2979,1175.478
781,1.299567,1177.266
782,1.301233,1177.266
783,1.3029,1178.682
784,1.304567,1180.023
785,1.306233,1182.035
786,1.3079,1182.035
787,1.309567,1180.992
788,1.311233,1177.862
789,1.312883,1177.862
790,1.31455,1178.011
791,1.316217,1176.372
792,1.317883,1175.255
793,1.31955,1175.255
794,1.321217,1174.957
795,1.322883,1172.647
796,1.32455,1171.455
797,1.326217,1171.455
798,1.327867,1170.71
799,1.329533,1169.443
800,1.3312,1171.902
801,1.332867,1171.902
802,1.334533,1176.074
803,1.3362,1178.235
804,1.337867,1181.811
805,1.339533,1181.811
806,1.3412,1180.917
807,1.342867,1180.246
808,1.344533,1180.246
809,1.346283,1178.309
810,1.347867,1174.882
811,1.349533,1172.423
812,1.3512,1172.423
813,1.352867,1171.529
814,1.354533,1172.274
815,1.3562,1174.286
816,1.357867,1174.286
817,1.359533,1173.541
818,1.3612,1172.796
819,1.362867,1172.572
820,1.364533,1172.572
821,1.3662,1169.816
822,1.367867,1173.094
823,1.369533,1173.094
824,1.3712,1173.839
825,1.372867,1172.125
826,1.374517,1174.212
827,1.376183,1174.212
828,1.37785,1173.392
829,1.379633,1173.541
830,1.381183,1173.69
831,1.38285,1173.69
832,1.384517,1172.274
833,1.386183,1170.635
834,1.38785,1170.039
835,1.389517,1170.039
836,1.391183,1169.22
837,1.39285,1168.027
838,1.394517,1167.58
839,1.396183,1167.58
840,1.39785,1165.42
841,1.399517,1165.643
842,1.401183,1165.643
843,1.40285,1169.369
844,1.404517,1170.933
845,1.406183,1175.478
846,1.40785,1175.478
847,1.409517,1179.725
848,1.411183,1177.192
849,1.41285,1178.086
850,1.414517,1178.086
851,1.416183,1177.117
852,1.41785,1172.796
853,1.419517,1175.18
854,1.4212,1175.18
855,1.4229,1174.807
856,1.424533,1173.168
857,1.426183,1173.168
858,1.42785,1174.137
859,1.429517,1171.38
860,1.431183,1171.082
861,1.43285,1171.082
862,1.4345,1171.306
863,1.436167,1173.243
864,1.437833,1173.839
865,1.4395,1173.839
866,1.441167,1172.125
867,1.442833,1172.721
868,1.4445,1172.051
869,1.446167,1172.051
870,1.447833,1176.819
871,1.4495,1181.662
872,1.451167,1181.662
873,1.452833,1183.45
874,1.4545,1183.227
875,1.456167,1180.47
876,1.457833,1180.47
877,1.4595,1177.341
878,1.461167,1173.019
879,1.462833,1174.807
880,1.464533,1174.807
881,1.466167,1177.49
882,1.467833,1177.713
883,1.4695,1179.874
884,1.471167,1179.874
885,1.472833,1176.372
886,1.4745,1171.157
887,1.476167,1170.412
888,1.477833,1170.412
889,1.4795,1171.604
890,1.481233,1173.317
891,1.482833,1173.317
892,1.4845,1176.67
893,1.486167,1177.564
894,1.487867,1175.255
895,1.4895,1175.255
896,1.491167,1172.945
897,1.492833,1170.859
898,1.494483,1170.635
899,1.49615,1170.635
900,1.497917,1171.529
901,1.499483,1173.765
902,1.50115,1175.478
903,1.502817,1175.478
904,1.504483,1175.776
905,1.50615,1174.137
906,1.507817,1174.137
907,1.509483,1174.882
908,1.51115,1175.776
909,1.512817,1176.372
910,1.5145,1176.372
911,1.51615,1181.513
912,1.517817,1181.141
913,1.519483,1177.639
914,1.52115,1177.639
915,1.522817,1174.435
916,1.524483,1171.008
917,1.52615,1169.592
918,1.527817,1169.592
919,1.529483,1171.529
