"ID","sea_time","fid_signal"
1,0,139.765
2,0.001667,139.736
3,0.003333,139.736
4,0.005,139.788
5,0.00675,140.011
6,0.008333,140.011
7,0.01,139.989
8,0.011667,139.743
9,0.013333,139.765
10,0.015,139.765
11,0.016667,139.624
12,0.018333,139.602
13,0.02,139.721
14,0.021667,139.721
15,0.023333,139.847
16,0.024983,139.996
17,0.02665,140.317
18,0.028317,140.317
19,0.029983,140.443
20,0.03165,140.294
21,0.033317,140.101
22,0.034983,140.101
23,0.03665,140.22
24,0.038317,140.242
25,0.039983,140.242
26,0.04165,140.309
27,0.043317,140.525
28,0.044983,140.242
29,0.04665,140.242
30,0.048317,140.071
31,0.049983,139.728
32,0.05165,139.505
33,0.053317,139.505
34,0.055017,139.751
35,0.05665,140.101
36,0.058317,140.28
37,0.059983,140.28
38,0.06165,140.399
39,0.06335,140.272
40,0.064983,140.272
41,0.06665,140.123
42,0.068317,140.026
43,0.069983,140.175
44,0.07165000000000001,140.175
45,0.07331699999999999,139.982
46,0.07498299999999999,139.907
47,0.07665,139.937
48,0.078317,139.937
49,0.079983,139.855
50,0.08165,140.123
51,0.0833,140.22
52,0.084967,140.22
53,0.08665,140.272
54,0.0883,140.198
55,0.08996700000000001,140.101
56,0.09171700000000001,140.101
57,0.09329999999999999,139.929
58,0.094967,139.877
59,0.096633,139.877
60,0.0983,140.019
61,0.099967,140.063
62,0.101633,140.466
63,0.1033,140.466
64,0.104967,140.421
65,0.106633,140.138
66,0.108383,140.071
67,0.109967,140.071
68,0.111633,139.765
69,0.1133,139.959
70,0.114967,140.317
71,0.116633,140.317
72,0.1183,140.302
73,0.119967,140.25
74,0.121633,140.25
75,0.1233,140.347
76,0.125083,140.227
77,0.126633,140.354
78,0.1283,140.354
79,0.129967,140.309
80,0.131633,140.265
81,0.1333,140.056
82,0.134967,140.056
83,0.136633,140.153
84,0.138317,140.25
85,0.139983,140.324
86,0.141633,140.324
87,0.143283,140.429
88,0.14495,140.294
89,0.146617,140.294
90,0.148283,140.466
91,0.14995,140.376
92,0.151617,140.339
93,0.153283,140.339
94,0.15495,140.131
95,0.156617,140.183
96,0.158283,140.354
97,0.15995,140.354
98,0.161617,140.533
99,0.163283,140.89
100,0.16495,140.861
101,0.166617,140.861
102,0.168283,140.809
103,0.16995,140.809
104,0.171617,140.697
105,0.173283,140.697
106,0.17495,140.57
107,0.176617,140.57
108,0.178283,140.57
109,0.17995,140.332
110,0.181617,140.168
111,0.183283,139.974
112,0.18495,139.974
113,0.186617,139.691
114,0.188283,139.751
115,0.18995,139.683
116,0.191617,139.683
117,0.193283,139.78
118,0.19495,139.982
119,0.196617,140.145
120,0.198283,140.145
121,0.19995,140.488
122,0.2016,140.481
123,0.2033,140.749
124,0.204933,140.749
125,0.2066,140.98
126,0.2083,141.993
127,0.209983,141.993
128,0.2116,143.968
129,0.213267,146.985
130,0.214933,151.545
131,0.2166,151.545
132,0.218267,157.893
133,0.219933,166.744
134,0.2216,177.823
135,0.223267,177.823
136,0.224933,191.823
137,0.2267,208.169
138,0.228267,226.393
139,0.229933,226.393
140,0.2316,246.629
141,0.233267,268.586
142,0.234933,268.586
143,0.2366,291.802
144,0.238267,316.307
145,0.239933,341.43
146,0.2416,341.43
147,0.243367,366.665
148,0.244933,392.333
149,0.2466,417.873
150,0.248267,417.873
151,0.249933,443.853
152,0.2516,469.93
153,0.253267,496.06
154,0.254933,496.06
155,0.256583,522.323
156,0.25825,548.34
157,0.259917,548.34
158,0.261583,574.566
159,0.263233,600.941
160,0.2649,628.129
161,0.266567,628.129
162,0.268233,655.763
163,0.2699,684.269
164,0.271567,713.49
165,0.273233,713.49
166,0.2749,743.039
167,0.276567,774.1
168,0.278233,806.16
169,0.2799,806.16
170,0.281583,839.01
171,0.283317,873.342
172,0.2849,908.948
173,0.286567,908.948
174,0.288233,946.2089999999999
175,0.2899,985.332
176,0.291567,985.332
177,0.293233,1026.101
178,0.2949,1068.607
179,0.296567,1112.975
180,0.298233,1112.975
181,0.2999,1159.422
182,0.301567,1208.581
183,0.303233,1260.161
184,0.3049,1260.161
185,0.306567,1314.655
186,0.308233,1373.09
187,0.3099,1436.964
188,0.311567,1436.964
189,0.313233,1510.3
190,0.3149,1601.249
191,0.316567,1601.249
192,0.318233,1722.552
193,0.3199,1893.789
194,0.321567,2138.935
195,0.323217,2138.935
196,0.324883,2481.021
197,0.32655,2935.916
198,0.32825,3503.621
199,0.329883,3503.621
200,0.33155,4163.28
201,0.333217,4874.394
202,0.334883,5581.863
203,0.33655,5581.863
204,0.338217,6226.375
205,0.339883,6755.375
206,0.34155,6755.375
207,0.343217,7130.317
208,0.344933,7333.055
209,0.34655,7364.586
210,0.348217,7364.586
211,0.3499,7242.851
212,0.351583,6995.909
213,0.353233,6656.684
214,0.354883,6656.684
215,0.35655,6256.968
216,0.358217,5824.268
217,0.359883,5381.465
218,0.361617,5381.465
219,0.363217,4944.079
220,0.364883,4523.851
221,0.36655,4127.719
222,0.368217,4127.719
223,0.369883,3759.555
224,0.37155,3421.426
225,0.373217,3421.426
226,0.374883,3113.411
227,0.37655,2834.722
228,0.378333,2583.973
229,0.379883,2583.973
230,0.38155,2359.293
231,0.3832,2158.396
232,0.384867,1979.247
233,0.386533,1979.247
234,0.3882,1819.462
235,0.389867,1677.245
236,0.391533,1550.943
237,0.3932,1550.943
238,0.394867,1438.737
239,0.396533,1338.907
240,0.3982,1338.907
241,0.399867,1249.962
242,0.401533,1170.68
243,0.4032,1099.966
244,0.404867,1099.966
245,0.406533,1036.711
246,0.4082,980.169
247,0.409867,929.303
248,0.411533,929.303
249,0.4132,883.535
250,0.414867,842.08
251,0.416533,804.573
252,0.418233,804.573
253,0.419867,770.45
254,0.421533,739.366
255,0.4232,710.972
256,0.424867,710.972
257,0.426533,684.842
258,0.4282,660.814
259,0.429867,660.814
260,0.431533,638.433
261,0.4332,617.6609999999999
262,0.434867,598.706
263,0.436533,598.706
264,0.4382,580.952
265,0.4399,564.255
266,0.441517,548.46
267,0.443183,548.46
268,0.44485,533.529
269,0.446517,519.41
270,0.448183,505.969
271,0.44985,505.969
272,0.451517,493.512
273,0.453183,481.591
274,0.45485,481.591
275,0.456517,470.102
276,0.458183,459.224
277,0.45985,448.83
278,0.461517,448.83
279,0.463217,438.653
280,0.46485,429.019
281,0.466517,419.766
282,0.468183,419.766
283,0.46985,410.885
284,0.471517,402.212
285,0.473183,394.225
286,0.47485,394.225
287,0.476517,386.387
288,0.478183,378.974
289,0.479917,371.568
290,0.481517,371.568
291,0.483183,364.438
292,0.48485,357.687
293,0.486517,357.687
294,0.488183,350.654
295,0.48985,344.299
296,0.491517,337.899
297,0.493183,337.899
298,0.494883,331.722
299,0.496633,326.186
300,0.498183,320.897
301,0.49985,320.897
302,0.5014999999999999,315.845
303,0.503167,310.89
304,0.504833,305.824
305,0.5065,305.824
306,0.508167,301.123
307,0.509833,296.511
308,0.5115,296.511
309,0.513167,291.824
310,0.514833,287.794
311,0.5165,283.264
312,0.518167,283.264
313,0.519833,278.972
314,0.5215,275.038
315,0.523167,270.896
316,0.524833,270.896
317,0.5265,267.193
318,0.5281670000000001,263.356
319,0.529833,259.63
320,0.5315,259.63
321,0.5332,256.196
322,0.534833,252.709
323,0.5365,249.356
324,0.538167,249.356
325,0.539833,246.353
326,0.5415,243.351
327,0.543183,243.351
328,0.544833,240.438
329,0.5464830000000001,237.703
330,0.54815,235.036
331,0.549817,235.036
332,0.5514829999999999,232.324
333,0.55315,229.761
334,0.554817,227.429
335,0.5564829999999999,227.429
336,0.55815,225.179
337,0.559817,223.167
338,0.561517,221.036
339,0.563133,221.036
340,0.5648,218.749
341,0.5664670000000001,216.41
342,0.568133,216.41
343,0.5698,214.04
344,0.5714669999999999,211.969
345,0.573133,210.01
346,0.5748,210.01
347,0.576467,208.192
348,0.578133,206.247
349,0.5798,204.436
350,0.581483,204.436
351,0.583133,202.701
352,0.5848,200.868
353,0.586467,199.243
354,0.588133,199.243
355,0.5898,197.716
356,0.591467,196.114
357,0.593133,196.114
358,0.5948,194.512
359,0.596467,192.94
360,0.59815,191.182
361,0.5998,191.182
362,0.601467,189.587
363,0.603133,188.522
364,0.6048,187.553
365,0.606467,187.553
366,0.608133,186.495
367,0.6098,185.43
368,0.611467,184.245
369,0.613133,184.245
370,0.6148169999999999,182.971
371,0.616467,182.204
372,0.618133,181.31
373,0.6198,181.31
374,0.6215000000000001,180.446
375,0.623117,179.701
376,0.624783,179.701
377,0.62645,178.516
378,0.628117,177.413
379,0.629783,176.117
380,0.63145,176.117
381,0.633117,174.828
382,0.634783,173.68
383,0.636483,172.816
384,0.638117,172.816
385,0.639783,172.347
386,0.64145,171.736
387,0.643117,171.289
388,0.644783,171.289
389,0.64645,170.678
390,0.6481170000000001,169.709
391,0.649783,169.709
392,0.65145,169.009
393,0.6531169999999999,168.189
394,0.654783,167.511
395,0.65645,167.511
396,0.658117,166.878
397,0.659783,166.148
398,0.66145,165.597
399,0.663117,165.597
400,0.664783,164.963
401,0.66645,164.524
402,0.668117,164.039
403,0.669783,164.039
404,0.67145,163.272
405,0.673117,162.721
406,0.674783,161.991
407,0.67645,161.991
408,0.678117,161.566
409,0.679783,161.335
410,0.68145,161.335
411,0.6831,160.88
412,0.684767,160.605
413,0.686433,160.053
414,0.6881,160.053
415,0.689767,159.502
416,0.691433,158.966
417,0.6931,158.481
418,0.694767,158.481
419,0.696433,157.855
420,0.6981000000000001,157.349
421,0.6998,156.894
422,0.701433,156.894
423,0.703183,156.365
424,0.704767,156.254
425,0.706433,156.254
426,0.7081,155.829
427,0.709767,155.479
428,0.711433,155.33
429,0.7131,155.33
430,0.714767,155.002
431,0.716433,154.927
432,0.718117,154.749
433,0.719767,154.749
434,0.721433,154.376
435,0.7231,153.996
436,0.7247670000000001,153.668
437,0.726433,153.668
438,0.7281,153.489
439,0.7297670000000001,153.065
440,0.731433,152.99
441,0.73315,152.99
442,0.7347669999999999,153.027
443,0.736433,152.7
444,0.7381,152.7
445,0.739767,152.647
446,0.741417,152.402
447,0.743083,151.82
448,0.74475,151.82
449,0.746417,151.88
450,0.7480830000000001,151.858
451,0.74975,151.403
452,0.751417,151.403
453,0.7530829999999999,151.269
454,0.75475,150.889
455,0.756417,150.435
456,0.758083,150.435
457,0.75975,150.278
458,0.761417,150.085
459,0.763083,150.085
460,0.76475,149.69
461,0.766417,149.578
462,0.768083,149.406
463,0.76975,149.406
464,0.771417,149.243
465,0.7731170000000001,149.027
466,0.774783,148.907
467,0.776417,148.907
468,0.778083,148.691
469,0.7797500000000001,148.758
470,0.781417,148.855
471,0.783083,148.855
472,0.7847499999999999,148.542
473,0.786417,148.572
474,0.788083,148.572
475,0.78975,148.341
476,0.791417,148.207
477,0.793083,148.453
478,0.79475,148.453
479,0.796417,148.46
480,0.798083,148.401
481,0.79975,148.155
482,0.8014,148.155
483,0.803067,147.931
484,0.804733,147.529
485,0.8064,147.253
486,0.808067,147.253
487,0.809733,147.142
488,0.8114,146.762
489,0.813067,146.732
490,0.814733,146.732
491,0.8164,146.635
492,0.81815,146.843
493,0.819733,146.843
494,0.8214,146.747
495,0.823067,146.948
496,0.824733,146.843
497,0.8264,146.843
498,0.828067,146.508
499,0.8297330000000001,146.702
500,0.8314,146.337
501,0.833067,146.337
502,0.83475,146.091
503,0.8364,146.024
504,0.83805,145.704
505,0.839717,145.704
506,0.841383,145.584
507,0.84305,145.607
508,0.84475,145.607
509,0.846383,145.756
510,0.84805,145.793
511,0.84975,146.002
512,0.8515,146.002
513,0.85305,145.957
514,0.8547169999999999,145.696
515,0.856383,145.458
516,0.85805,145.458
517,0.859717,145.108
518,0.861383,145.055
519,0.8630330000000001,145.07
520,0.8647,145.07
521,0.866367,145.003
522,0.8680330000000001,145.04
523,0.8697,144.981
524,0.871367,144.981
525,0.8730329999999999,145.145
526,0.8747,145.249
527,0.876367,145.249
528,0.878033,145.055
529,0.8797,144.757
530,0.881367,144.362
531,0.883033,144.362
532,0.8847,144.079
533,0.886367,144.117
534,0.888033,144.28
535,0.8897,144.28
536,0.891367,144.251
537,0.89305,144.43
538,0.8947000000000001,144.213
539,0.896367,144.213
540,0.898033,144.355
541,0.8997000000000001,144.355
542,0.901367,144.355
543,0.903033,144.31
544,0.9046999999999999,144.541
545,0.906367,144.385
546,0.908033,144.385
547,0.9097,144.161
548,0.911367,144.035
549,0.913033,144.064
550,0.9147,144.064
551,0.916367,143.997
552,0.918067,144.28
553,0.919717,144.154
554,0.921367,144.154
555,0.923017,143.729
556,0.924683,143.498
557,0.92635,143.498
558,0.928017,143.275
559,0.929683,143.372
560,0.93135,143.439
561,0.933017,143.439
562,0.934683,143.573
563,0.9364,143.67
564,0.938017,143.774
565,0.939683,143.774
566,0.94135,143.722
567,0.943017,143.878
568,0.9446830000000001,143.774
569,0.94635,143.774
570,0.948017,143.543
571,0.9496830000000001,143.528
572,0.95135,143.565
573,0.953017,143.565
574,0.9546829999999999,143.543
575,0.95635,143.349
576,0.958017,143.349
577,0.959683,143.565
578,0.96135,143.453
579,0.963017,143.349
580,0.964683,143.349
581,0.96635,143.737
582,0.968017,143.535
583,0.9698,143.595
584,0.97135,143.595
585,0.973017,143.506
586,0.974683,143.416
587,0.9763500000000001,143.372
588,0.978017,143.372
589,0.979667,143.439
590,0.9813499999999999,143.528
591,0.983,143.528
592,0.984667,143.2
593,0.986333,143.23
594,0.988,143.126
595,0.989667,143.126
596,0.991333,143.111
597,0.993,143.178
598,0.994667,143.312
599,0.996333,143.312
600,0.9980329999999999,143.096
601,0.999667,143.237
602,1.001333,143.357
603,1.003,143.357
604,1.004667,143.178
605,1.006333,143.126
606,1.008,142.887
607,1.009667,142.887
608,1.011333,142.85
609,1.013,142.723
610,1.014667,142.723
611,1.016333,142.798
612,1.018,142.716
613,1.019667,142.582
614,1.021333,142.582
615,1.023,142.775
616,1.024667,142.619
617,1.026333,142.753
618,1.028,142.753
619,1.029667,143.014
620,1.031333,142.969
621,1.033,143.148
622,1.034667,143.148
623,1.036333,143.312
624,1.038,143.23
625,1.039667,143.23
626,1.041317,143.394
627,1.042983,143.074
628,1.04465,142.619
629,1.046317,142.619
630,1.047983,142.492
631,1.04965,142.433
632,1.051317,142.612
633,1.052983,142.612
634,1.05465,142.597
635,1.056317,142.47
636,1.057983,142.328
637,1.059717,142.328
638,1.061317,142.291
639,1.062983,142.463
640,1.06465,142.679
641,1.066317,142.679
642,1.067983,142.515
643,1.069667,142.217
644,1.071417,142.217
645,1.072983,142.209
646,1.07465,142.202
647,1.076317,142.291
648,1.077983,142.291
649,1.07965,142.567
650,1.081317,142.44
651,1.082983,142.306
652,1.08465,142.306
653,1.086317,142.351
654,1.088067,142.306
655,1.08965,142.5
656,1.091317,142.5
657,1.092983,142.403
658,1.09465,142.246
659,1.096317,142.246
660,1.097967,142.276
661,1.09965,142.008
662,1.101317,142.105
663,1.102967,142.105
664,1.104633,141.993
665,1.1063,141.874
666,1.107967,142.001
667,1.109633,142.001
668,1.1113,141.904
669,1.112967,142.157
670,1.114633,142.157
671,1.1163,142.157
672,1.117967,142.306
673,1.119633,142.157
674,1.121317,141.896
675,1.122967,141.896
676,1.124633,141.829
677,1.1263,141.427
678,1.127967,141.427
679,1.129617,141.479
680,1.131283,141.427
681,1.132983,141.531
682,1.134617,141.531
683,1.136283,142.03
684,1.13795,142.246
685,1.139617,142.41
686,1.141283,142.41
687,1.14295,142.694
688,1.144617,142.626
689,1.146283,142.515
690,1.14795,142.515
691,1.149617,142.373
692,1.151283,142.016
693,1.152967,142.016
694,1.154617,141.621
695,1.156283,141.583
696,1.15795,141.919
697,1.159617,141.919
698,1.161283,141.881
699,1.162933,141.986
700,1.1646,141.926
701,1.166267,141.926
702,1.167933,141.747
703,1.1696,141.844
704,1.171267,141.963
705,1.172933,141.963
706,1.1746,142.15
707,1.176267,142.142
708,1.177933,142.142
709,1.1796,142.269
710,1.181267,142.03
711,1.182933,141.77
712,1.1846,141.77
713,1.186267,141.606
714,1.187933,141.427
715,1.1896,141.74
716,1.191267,141.74
717,1.192933,141.829
718,1.1946,142.209
719,1.196267,142.448
720,1.197933,142.448
721,1.1996,142.343
722,1.201267,142.299
723,1.20295,142.224
724,1.2046,142.224
725,1.206333,142.127
726,1.207933,141.926
727,1.2096,141.926
728,1.211267,141.829
729,1.212933,141.546
730,1.2146,141.285
731,1.216267,141.285
732,1.217933,141.248
733,1.2196,141.3
734,1.22125,141.241
735,1.223033,141.241
736,1.224583,141.345
737,1.22625,141.531
738,1.227917,141.636
739,1.229583,141.636
740,1.23125,141.621
741,1.232917,141.539
742,1.234583,141.539
743,1.23625,141.419
744,1.237917,141.65
745,1.239583,141.978
746,1.24125,141.978
747,1.242917,142.157
748,1.244583,142.522
749,1.24625,142.224
750,1.247933,142.224
751,1.249583,141.896
752,1.25125,141.71
753,1.252917,141.36
754,1.254583,141.36
755,1.25625,141.382
756,1.257917,141.524
757,1.259583,141.636
758,1.26125,141.636
759,1.262917,141.732
760,1.264583,141.561
761,1.26625,141.561
762,1.267917,141.628
763,1.269583,141.516
764,1.27125,141.725
765,1.272917,141.725
766,1.274583,142.023
767,1.276283,141.695
768,1.277917,141.755
769,1.279567,141.755
770,1.281233,141.464
771,1.2829,141.628
772,1.284567,141.859
773,1.286233,141.859
774,1.2879,141.762
775,1.289567,141.747
776,1.291233,141.747
777,1.2929,141.717
778,1.294567,141.926
779,1.29625,141.926
780,1.2979,141.926
781,1.299567,141.948
782,1.301233,141.71
783,1.3029,141.397
784,1.304567,141.397
785,1.306233,141.442
786,1.307917,141.218
787,1.309567,140.98
788,1.311233,140.98
789,1.3129,141.144
790,1.314567,141.151
791,1.316233,141.382
792,1.3179,141.382
793,1.319567,141.539
794,1.321233,141.568
795,1.3229,141.568
796,1.324633,141.539
797,1.326233,141.479
798,1.3279,141.315
799,1.329567,141.315
800,1.331267,141.189
801,1.3329,141.554
802,1.334567,141.755
803,1.336233,141.755
804,1.3379,141.993
805,1.33955,141.919
806,1.341333,141.606
807,1.342883,141.606
808,1.34455,141.397
809,1.346217,141.338
810,1.347883,141.338
811,1.34955,141.487
812,1.351217,141.501
813,1.35295,141.688
814,1.35455,141.688
815,1.356217,141.785
816,1.357883,141.673
817,1.35955,141.352
818,1.361217,141.352
819,1.362883,141.405
820,1.36455,141.263
821,1.366217,141.256
822,1.367883,141.256
823,1.36955,141.755
824,1.371217,141.568
825,1.372883,141.568
826,1.37455,141.695
827,1.376217,141.68
828,1.377883,141.688
829,1.37955,141.688
830,1.381217,141.777
831,1.382883,141.546
832,1.38455,141.71
833,1.386217,141.71
834,1.387883,141.352
835,1.38955,141.151
836,1.391217,141.36
837,1.392883,141.36
838,1.39455,141.121
839,1.396217,141.129
840,1.397883,141.218
841,1.39955,141.218
842,1.4012,141.084
843,1.402867,141.419
844,1.404533,141.419
845,1.4062,141.516
846,1.407867,141.472
847,1.409533,141.419
848,1.411233,141.419
849,1.412867,141.196
850,1.414533,141.315
851,1.4162,141.248
852,1.417883,141.248
853,1.419533,141.68
854,1.421183,141.695
855,1.42285,141.487
856,1.424517,141.487
857,1.426183,141.501
858,1.42785,141.174
859,1.429517,141.174
860,1.431183,141.084
861,1.43285,141.248
862,1.434517,141.226
863,1.436183,141.226
864,1.43785,141.054
865,1.439517,141.382
866,1.441183,141.561
867,1.44285,141.561
868,1.444517,141.68
869,1.446183,141.881
870,1.44785,141.792
871,1.449517,141.792
872,1.451183,141.576
873,1.45285,141.405
874,1.454517,141.434
875,1.456183,141.434
876,1.45785,141.099
877,1.459617,140.98
878,1.461183,140.98
879,1.462833,141.308
880,1.4645,141.39
881,1.466167,141.799
882,1.467833,141.799
883,1.4695,141.762
884,1.471183,141.621
885,1.472833,141.509
886,1.4745,141.509
887,1.476167,141.166
888,1.477833,141.323
889,1.4795,141.539
890,1.481167,141.539
891,1.482833,141.345
892,1.4845,141.352
893,1.486167,141.352
894,1.487833,141.248
895,1.4895,141.121
896,1.491167,141.203
897,1.492833,141.203
898,1.494517,141.144
899,1.496167,141.263
900,1.497833,141.181
901,1.4995,141.181
902,1.501167,141.121
903,1.502833,141.099
904,1.5045,140.995
905,1.506167,140.995
906,1.507833,140.861
907,1.5095,140.972
908,1.511167,141.226
909,1.512833,141.226
910,1.5145,141.136
911,1.516167,141.397
912,1.517833,141.397
913,1.5195,141.501
914,1.52115,141.211
915,1.522817,141.099
916,1.524483,141.099
917,1.52615,141.054
918,1.527817,140.868
919,1.529483,141.077
920,1.53115,141.077
921,1.532817,141.539
922,1.534483,141.419
923,1.53615,141.531
924,1.537817,141.531
925,1.539483,141.598
926,1.54115,141.144
927,1.542817,141.144
928,1.5445,141.121
929,1.54615,141.233
930,1.547817,141.256
931,1.549483,141.256
932,1.55115,141.546
933,1.552817,141.509
934,1.554483,141.114
935,1.55615,141.114
936,1.557817,141.166
937,1.559483,141.345
938,1.561167,141.278
939,1.562817,141.278
940,1.564483,141.561
941,1.56615,141.487
942,1.567817,141.487
943,1.569483,141.218
944,1.57115,141.375
945,1.572817,141.561
946,1.574483,141.561
947,1.57615,141.427
948,1.577917,141.241
949,1.579483,140.861
950,1.581133,140.861
951,1.5828,140.518
952,1.584467,140.22
953,1.586133,140.347
954,1.5878,140.347
955,1.589467,140.704
956,1.591133,140.853
957,1.5928,141.032
958,1.594467,141.032
959,1.596133,141.062
960,1.5978,141.032
961,1.599467,141.032
