"ID","sea_time","fid_signal"
1,0,140.697
2,0.001667,140.697
3,0.003333,140.697
4,0.005033,140.473
5,0.006667,140.473
6,0.008333,140.198
7,0.01,139.669
8,0.011667,139.549
9,0.013333,139.549
10,0.015,139.304
11,0.016667,139.4
12,0.018333,139.78
13,0.02,139.78
14,0.021667,139.877
15,0.023333,140.242
16,0.025,140.637
17,0.026667,140.637
18,0.028367,140.607
19,0.03,140.57
20,0.031667,140.376
21,0.033317,140.376
22,0.034983,140.034
23,0.03665,139.877
24,0.038333,139.877
25,0.039983,139.944
26,0.04165,140.108
27,0.043317,140.406
28,0.0451,140.406
29,0.04665,140.414
30,0.048317,140.145
31,0.049983,139.78
32,0.05165,139.78
33,0.053317,139.765
34,0.054983,139.885
35,0.05665,140.168
36,0.058317,140.168
37,0.059983,140.153
38,0.06175,139.728
39,0.063317,139.728
40,0.064983,139.572
41,0.06665,139.534
42,0.068317,139.9
43,0.069983,139.9
44,0.07165000000000001,140.056
45,0.07331699999999999,140.309
46,0.07498299999999999,140.421
47,0.07665,140.421
48,0.078317,140.399
49,0.079983,140.406
50,0.08165,140.414
51,0.08334999999999999,140.414
52,0.08500000000000001,140.369
53,0.08665,140.347
54,0.08831700000000001,140.347
55,0.08998299999999999,140.458
56,0.09163300000000001,140.145
57,0.09329999999999999,140.123
58,0.094967,140.123
59,0.096633,139.944
60,0.0983,139.944
61,0.099967,139.885
62,0.101633,139.885
63,0.1033,139.795
64,0.104967,139.78
65,0.106633,139.937
66,0.1083,139.937
67,0.109967,139.944
68,0.111633,139.758
69,0.1133,139.907
70,0.114967,139.907
71,0.116633,139.736
72,0.1183,140.101
73,0.119967,140.101
74,0.121633,140.369
75,0.1233,140.622
76,0.124967,140.749
77,0.126633,140.749
78,0.1283,140.488
79,0.129967,140.421
80,0.131633,140.272
81,0.1333,140.272
82,0.134967,140.212
83,0.136633,140.533
84,0.1383,140.473
85,0.139967,140.473
86,0.141633,140.227
87,0.1433,140.183
88,0.144967,140.183
89,0.1467,139.952
90,0.1483,140.071
91,0.149967,140.414
92,0.151633,140.414
93,0.153333,140.429
94,0.15495,140.622
95,0.156617,140.719
96,0.158283,140.719
97,0.15995,140.533
98,0.161617,140.645
99,0.163367,140.578
100,0.16495,140.578
101,0.166617,140.347
102,0.168283,140.466
103,0.16995,140.421
104,0.171617,140.421
105,0.173283,140.376
106,0.17495,140.54
107,0.176617,140.54
108,0.178283,140.227
109,0.179983,140.056
110,0.181617,139.855
111,0.183283,139.855
112,0.18495,139.579
113,0.186617,139.587
114,0.188283,139.691
115,0.18995,139.691
116,0.191617,139.922
117,0.193283,140.16
118,0.19495,140.309
119,0.196717,140.309
120,0.198283,140.078
121,0.19995,140.063
122,0.201617,140.063
123,0.203283,140.168
124,0.20495,140.205
125,0.206617,140.399
126,0.208283,140.399
127,0.20995,140.369
128,0.2116,140.131
129,0.213267,140.019
130,0.214933,140.019
131,0.2166,139.989
132,0.218267,140.265
133,0.219933,140.481
134,0.221583,140.481
135,0.22325,140.876
136,0.224933,141.256
137,0.22665,140.861
138,0.22825,140.861
139,0.229917,140.89
140,0.231583,140.637
141,0.23325,140.637
142,0.234917,140.28
143,0.236583,140.607
144,0.23825,141.01
145,0.239917,141.01
146,0.241583,141.315
147,0.24325,142.44
148,0.244917,143.602
149,0.246583,143.602
150,0.24825,145.167
151,0.249917,147.41
152,0.251583,149.824
153,0.25325,149.824
154,0.254917,152.901
155,0.256583,156.41
156,0.25825,156.41
157,0.259917,160.694
158,0.261583,165.544
159,0.26325,171.095
160,0.264917,171.095
161,0.266583,176.698
162,0.26825,183.068
163,0.2699,189.632
164,0.271567,189.632
165,0.273233,196.859
166,0.2749,204.869
167,0.276567,213.079
168,0.278233,213.079
169,0.2799,221.744
170,0.281633,230.35
171,0.283233,230.35
172,0.2849,239.111
173,0.286567,248.112
174,0.288233,257.358
175,0.2899,257.358
176,0.291567,266.984
177,0.293233,277.147
178,0.2949,287.384
179,0.296567,287.384
180,0.298317,298.426
181,0.2999,309.616
182,0.301567,321.433
183,0.303233,321.433
184,0.3049,333.495
185,0.306567,345.677
186,0.308233,358.79
187,0.3099,358.79
188,0.311567,371.888
189,0.313233,385.873
190,0.315017,400.037
191,0.316567,400.037
192,0.318233,414.111
193,0.3199,428.55
194,0.321567,428.55
195,0.323233,443.138
196,0.3249,458.091
197,0.326567,472.993
198,0.328233,472.993
199,0.3299,488.117
200,0.331567,503.957
201,0.333217,520.587
202,0.334883,520.587
203,0.33655,538.96
204,0.338217,560.105
205,0.339883,560.105
206,0.34155,585.213
207,0.343217,617.199
208,0.344883,659.578
209,0.34655,659.578
210,0.348217,716.284
211,0.349883,791.5119999999999
212,0.35155,889.279
213,0.353217,889.279
214,0.354883,1011.252
215,0.35655,1157.5
216,0.358217,1325.868
217,0.359883,1325.868
218,0.36155,1511.596
219,0.363217,1707.718
220,0.364883,1906.425
221,0.36655,1906.425
222,0.368233,2099.477
223,0.369933,2277.918
224,0.37155,2277.918
225,0.373217,2435.796
226,0.374883,2567.396
227,0.37655,2668.492
228,0.378217,2668.492
229,0.379883,2738.014
230,0.38155,2775.177
231,0.383217,2781.659
232,0.384883,2781.659
233,0.38655,2760.276
234,0.388217,2714.232
235,0.389883,2647.877
236,0.391533,2647.877
237,0.3932,2565.123
238,0.394867,2470.091
239,0.396533,2470.091
240,0.3982,2366.945
241,0.399883,2258.174
242,0.401533,2147.011
243,0.4032,2147.011
244,0.404867,2035.685
245,0.406533,1925.215
246,0.4082,1817.971
247,0.409867,1817.971
248,0.411533,1714.319
249,0.4132,1615.219
250,0.414867,1521.394
251,0.41655,1521.394
252,0.4182,1432.292
253,0.419867,1348.57
254,0.421533,1269.765
255,0.4232,1269.765
256,0.424867,1196.042
257,0.426533,1127.206
258,0.4282,1127.206
259,0.429867,1063.004
260,0.431533,1003.817
261,0.43325,948.623
262,0.434867,948.623
263,0.436533,897.9589999999999
264,0.4382,850.849
265,0.439867,806.6369999999999
266,0.441533,806.6369999999999
267,0.4432,765.897
268,0.444867,728.1900000000001
269,0.446533,693.351
270,0.448217,693.351
271,0.449867,661.269
272,0.451567,631.697
273,0.453183,631.697
274,0.45485,604.287
275,0.456517,578.724
276,0.458183,555.389
277,0.45985,555.389
278,0.461517,533.149
279,0.463183,512.756
280,0.46485,494.242
281,0.466517,494.242
282,0.468183,476.494
283,0.46985,460.297
284,0.471517,445.038
285,0.473183,445.038
286,0.47485,430.636
287,0.476517,417.471
288,0.478183,405.349
289,0.47985,405.349
290,0.481517,393.681
291,0.483183,382.453
292,0.48485,382.453
293,0.486517,372.06
294,0.488183,362.329
295,0.48985,353.418
296,0.491517,353.418
297,0.493183,345.208
298,0.494867,337.087
299,0.496517,329.554
300,0.498183,329.554
301,0.49985,322.215
302,0.501517,315.614
303,0.503183,309.557
304,0.50485,309.557
305,0.506517,303.529
306,0.5081830000000001,297.859
307,0.509833,297.859
308,0.5115,292.227
309,0.51315,287.056
310,0.514817,282.414
311,0.516483,282.414
312,0.518217,278.004
313,0.519817,273.749
314,0.521483,269.54
315,0.52315,269.54
316,0.524817,265.256
317,0.526483,261.24
318,0.52815,257.574
319,0.529817,257.574
320,0.531483,253.998
321,0.53315,250.645
322,0.534817,250.645
323,0.536483,247.352
324,0.53815,243.962
325,0.539817,240.9
326,0.541483,240.9
327,0.54315,237.837
328,0.544817,234.969
329,0.5464830000000001,232.197
330,0.54815,232.197
331,0.549817,229.783
332,0.5516,227.354
333,0.55315,224.888
334,0.554817,224.888
335,0.5564829999999999,222.78
336,0.55815,220.433
337,0.559817,218.138
338,0.561483,218.138
339,0.56315,216.32
340,0.564817,214.301
341,0.566483,214.301
342,0.56815,212.155
343,0.569817,209.942
344,0.5714669999999999,207.782
345,0.573133,207.782
346,0.5748,206.128
347,0.576467,204.28
348,0.578133,202.85
349,0.5798,202.85
350,0.581467,201.069
351,0.583133,199.363
352,0.5848,198.156
353,0.586467,198.156
354,0.588133,197.172
355,0.5898330000000001,196.069
356,0.591467,196.069
357,0.593133,194.766
358,0.5948,193.425
359,0.596467,191.882
360,0.598133,191.882
361,0.5998,190.392
362,0.601467,188.746
363,0.603133,187.211
364,0.604833,187.211
365,0.606467,186.011
366,0.608133,185.02
367,0.6098,184.096
368,0.611467,184.096
369,0.613133,183.195
370,0.6148,182.085
371,0.616467,180.908
372,0.618133,180.908
373,0.6198,180.006
374,0.621467,178.859
375,0.623133,178.859
376,0.6248,177.808
377,0.626467,177.07
378,0.6281330000000001,176.191
379,0.6298,176.191
380,0.63145,175.521
381,0.633117,174.776
382,0.634783,173.859
383,0.636467,173.859
384,0.638117,172.98
385,0.639783,172.317
386,0.64145,171.758
387,0.643117,171.758
388,0.644783,171.244
389,0.64645,170.894
390,0.6481170000000001,170.894
391,0.649783,170.238
392,0.65145,169.307
393,0.65315,168.383
394,0.654783,168.383
395,0.6565,167.429
396,0.658117,166.714
397,0.659783,166.178
398,0.66145,166.178
399,0.663117,165.895
400,0.664783,165.321
401,0.66645,164.688
402,0.668117,164.688
403,0.6699000000000001,163.89
404,0.67145,162.967
405,0.673117,162.594
406,0.674783,162.594
407,0.67645,162.244
408,0.678117,162.207
409,0.679783,162.207
410,0.68145,162.177
411,0.683117,161.64
412,0.684783,161.201
413,0.68645,161.201
414,0.688117,160.471
415,0.689783,159.755
416,0.691433,159.174
417,0.6931,159.174
418,0.694783,158.526
419,0.696483,158.325
420,0.6981000000000001,158.012
421,0.699767,158.012
422,0.701433,157.796
423,0.7030999999999999,157.423
424,0.704767,157.423
425,0.706433,156.961
426,0.7081,156.596
427,0.709767,156.425
428,0.711433,156.425
429,0.7131,156.313
430,0.714767,156.052
431,0.716433,155.903
432,0.7181,155.903
433,0.719767,155.672
434,0.721433,155.36
435,0.7231,155.032
436,0.7247670000000001,155.032
437,0.726467,154.614
438,0.7281,154.026
439,0.7297670000000001,154.026
440,0.731433,153.601
441,0.7331,153.452
442,0.7347669999999999,153.065
443,0.736433,153.065
444,0.7381,152.595
445,0.739767,152.074
446,0.741433,151.701
447,0.7431,151.701
448,0.744767,151.657
449,0.746433,151.679
450,0.7481,151.94
451,0.749767,151.94
452,0.751417,151.597
453,0.7530829999999999,151.008
454,0.754817,150.755
455,0.756417,150.755
456,0.758083,150.33
457,0.75975,150.517
458,0.761417,150.517
459,0.763083,150.695
460,0.76475,150.673
461,0.766417,150.755
462,0.768083,150.755
463,0.76975,150.464
464,0.771433,150.122
465,0.773083,149.839
466,0.774767,149.839
467,0.776417,149.503
468,0.778083,149.257
469,0.7797500000000001,149.161
470,0.781417,149.161
471,0.783083,149.265
472,0.7847499999999999,149.332
473,0.786417,149.332
474,0.7882,149.146
475,0.78975,149.041
476,0.791417,148.855
477,0.793083,148.855
478,0.79475,148.647
479,0.796417,148.661
480,0.798083,148.572
481,0.79975,148.572
482,0.801417,148.311
483,0.8031,148.252
484,0.804733,147.924
485,0.8064,147.924
486,0.808067,147.872
487,0.809733,147.76
488,0.811383,147.283
489,0.8130500000000001,147.283
490,0.814717,147.164
491,0.816383,147.134
492,0.8180500000000001,147.134
493,0.819717,147.156
494,0.821383,147.201
495,0.8230499999999999,147.119
496,0.824717,147.119
497,0.826383,146.821
498,0.82805,146.747
499,0.829717,146.583
500,0.831383,146.583
501,0.83305,146.508
502,0.834717,146.255
503,0.836383,146.195
504,0.83805,146.195
505,0.839717,146.121
506,0.841383,146.18
507,0.84305,146.18
508,0.844733,146.352
509,0.846383,145.875
510,0.84805,145.994
511,0.8497169999999999,145.994
512,0.851383,145.718
513,0.85305,145.681
514,0.8547169999999999,145.867
515,0.856383,145.867
516,0.858083,145.651
517,0.859717,145.532
518,0.861383,145.242
519,0.86305,145.242
520,0.864717,145.13
521,0.866383,145.234
522,0.86805,145.234
523,0.869717,145.525
524,0.871367,145.525
525,0.87305,145.637
526,0.8747,145.637
527,0.876367,145.324
528,0.878033,144.951
529,0.8797,144.869
530,0.881367,144.869
531,0.883033,144.497
532,0.8847,144.511
533,0.886367,144.586
534,0.888033,144.586
535,0.8897,144.467
536,0.891367,144.459
537,0.893033,144.444
538,0.8947000000000001,144.444
539,0.896367,144.318
540,0.898033,144.31
541,0.8997000000000001,144.31
542,0.901367,144.042
543,0.903033,143.789
544,0.9046999999999999,143.796
545,0.906483,143.796
546,0.908033,143.804
547,0.9097,144.206
548,0.911367,144.4
549,0.913033,144.4
550,0.9147,144.437
551,0.916367,144.28
552,0.918033,144.035
553,0.9197,144.035
554,0.921367,143.722
555,0.923033,143.662
556,0.9247,143.662
557,0.9263670000000001,143.99
558,0.928033,143.886
559,0.9297,143.819
560,0.93135,143.819
561,0.933017,143.565
562,0.934683,143.275
563,0.93635,143.23
564,0.938017,143.23
565,0.939683,143.267
566,0.94135,143.148
567,0.943017,143.2
568,0.9446830000000001,143.2
569,0.946367,143.282
570,0.948067,143.424
571,0.9496830000000001,143.692
572,0.95135,143.692
573,0.953017,143.498
574,0.9546829999999999,143.632
575,0.95635,143.632
576,0.958017,143.588
577,0.959683,143.409
578,0.96135,143.26
579,0.963017,143.26
580,0.964683,142.701
581,0.96635,142.761
582,0.968017,142.962
583,0.969683,142.962
584,0.97135,143.006
585,0.973017,143.178
586,0.974683,142.85
587,0.9763500000000001,142.85
588,0.978017,142.634
589,0.979683,142.559
590,0.9813499999999999,142.559
591,0.983017,142.857
592,0.984683,143.066
593,0.9863499999999999,142.88
594,0.988017,142.88
595,0.989683,143.021
596,0.991367,142.865
597,0.993,142.835
598,0.994667,142.835
599,0.996333,142.887
600,0.998,142.954
601,0.999667,142.999
602,1.001333,142.999
603,1.003,142.902
604,1.004667,142.865
605,1.006333,142.813
606,1.008067,142.813
607,1.009667,142.895
608,1.011333,142.947
609,1.013,142.947
610,1.014667,142.835
611,1.016333,142.455
612,1.018,141.896
613,1.019667,141.896
614,1.021333,141.665
615,1.023,141.822
616,1.024783,142.142
617,1.026333,142.142
618,1.028,142.44
619,1.029667,142.798
620,1.031333,142.79
621,1.033,142.79
622,1.034667,142.552
623,1.036333,142.463
624,1.038,142.463
625,1.039667,142.075
626,1.04145,141.874
627,1.043,142.179
628,1.044667,142.179
629,1.046333,142.261
630,1.048,142.299
631,1.04965,142.604
632,1.051317,142.604
633,1.052983,142.381
634,1.05465,142.045
635,1.056317,142.254
636,1.057983,142.254
637,1.05965,142.321
638,1.061317,142.492
639,1.062983,142.686
640,1.06465,142.686
641,1.066317,142.463
642,1.067983,142.232
643,1.06965,142.232
644,1.071317,142.097
645,1.073,142.373
646,1.07465,142.679
647,1.076317,142.679
648,1.077983,142.545
649,1.07965,142.552
650,1.081317,142.366
651,1.082983,142.366
652,1.08465,142.202
653,1.086317,142.239
654,1.087983,142.373
655,1.0897,142.373
656,1.091333,142.187
657,1.092983,141.986
658,1.09465,141.986
659,1.0963,141.859
660,1.097967,141.628
661,1.099633,141.941
662,1.1013,141.941
663,1.102967,142.165
664,1.104633,142.433
665,1.1063,142.477
666,1.107967,142.477
667,1.109633,142.209
668,1.111283,142.291
669,1.11295,142.448
670,1.114617,142.448
671,1.116283,142.448
672,1.11795,142.537
673,1.119617,142.537
674,1.121283,142.194
675,1.12295,141.777
676,1.124617,141.531
677,1.126283,141.531
678,1.12795,141.494
679,1.129617,141.628
680,1.131283,141.963
681,1.13295,141.963
682,1.134617,142.202
683,1.136283,142.246
684,1.13795,142.358
685,1.139617,142.358
686,1.141283,142.045
687,1.14305,141.904
688,1.144617,141.904
689,1.146283,141.904
690,1.14795,141.822
691,1.149617,141.941
692,1.151283,141.941
693,1.15295,142.105
694,1.154617,142.276
695,1.156283,142.403
696,1.15795,142.403
697,1.159717,142.232
698,1.161283,141.956
699,1.16295,141.874
700,1.164617,141.874
701,1.1663,141.911
702,1.168,142.157
703,1.169617,142.112
704,1.171267,142.112
705,1.172933,141.606
706,1.1746,141.501
707,1.176267,141.501
708,1.177933,141.487
709,1.1796,141.717
710,1.181267,141.867
711,1.182933,141.867
712,1.1846,141.889
713,1.186267,142.045
714,1.187933,141.919
715,1.1896,141.919
716,1.191267,141.881
717,1.192933,141.487
718,1.1946,141.278
719,1.196267,141.278
720,1.197933,141.233
721,1.1996,141.196
722,1.201267,141.248
723,1.202933,141.248
724,1.2046,141.092
725,1.206267,141.107
726,1.207933,141.107
727,1.2096,141.151
728,1.211267,141.069
729,1.212933,141.069
730,1.2146,141.069
731,1.216267,141.092
732,1.217933,141.136
733,1.2196,141.256
734,1.221267,141.256
735,1.222933,141.211
736,1.2246,141.285
737,1.226267,141.285
738,1.227933,141.285
739,1.229583,141.256
740,1.23125,141.3
741,1.232933,141.3
742,1.234633,141.323
743,1.23625,141.472
744,1.237917,141.568
745,1.239583,141.568
746,1.241283,141.419
747,1.242917,141.338
748,1.244583,141.352
749,1.24625,141.352
750,1.247933,141.315
751,1.249583,141.636
752,1.25125,141.852
753,1.252917,141.852
754,1.254583,141.732
755,1.25625,141.71
756,1.257917,141.621
757,1.259583,141.621
758,1.261283,141.375
759,1.262917,141.233
760,1.264583,141.233
761,1.26625,141.159
762,1.267917,141.002
763,1.269583,141.032
764,1.27125,141.032
765,1.272917,140.98
766,1.274583,141.047
767,1.27625,141.345
768,1.277917,141.345
769,1.279583,141.598
770,1.28125,141.732
771,1.282917,141.934
772,1.284583,141.934
773,1.28625,142.097
774,1.2879,142.045
775,1.289567,142.045
776,1.291233,142.246
777,1.2929,142.187
778,1.294567,141.747
779,1.296233,141.747
780,1.2979,141.427
781,1.299567,141.33
782,1.301233,141.174
783,1.3029,141.174
784,1.304567,141.039
785,1.306233,141.315
786,1.30795,141.196
787,1.309567,141.196
788,1.311233,141.241
789,1.3129,141.397
790,1.314567,141.397
791,1.316233,141.099
792,1.3179,141.308
793,1.319567,141.531
794,1.321233,141.531
795,1.3229,141.457
796,1.324567,141.576
797,1.326233,141.248
798,1.3279,141.248
799,1.329583,140.905
800,1.331233,140.958
801,1.3329,140.913
802,1.334567,140.913
803,1.336233,140.905
804,1.3379,141.181
805,1.339567,141.077
806,1.341233,141.077
807,1.3429,141.39
808,1.344567,141.747
809,1.346217,141.747
810,1.3479,141.822
811,1.34955,142.172
812,1.351217,142.06
813,1.352883,142.06
814,1.35455,141.941
815,1.356217,141.68
816,1.357883,141.285
817,1.35955,141.285
818,1.361217,141.211
819,1.362883,141.025
820,1.36455,140.98
821,1.366217,140.98
822,1.367883,141.136
823,1.36955,140.965
824,1.371217,140.965
825,1.372883,141.136
826,1.37455,140.861
827,1.376217,140.555
828,1.377883,140.555
829,1.3796,140.309
830,1.381217,140.429
831,1.382883,140.95
832,1.38455,140.95
833,1.386217,141.196
834,1.387867,141.516
835,1.389533,141.181
836,1.3912,141.181
837,1.392867,140.92
838,1.394533,140.57
839,1.3963,140.19
840,1.397867,140.19
841,1.399533,140.309
842,1.4012,140.324
843,1.402867,140.324
844,1.404533,140.548
845,1.4062,140.823
846,1.407867,140.965
847,1.409517,140.965
848,1.411183,140.898
849,1.41285,140.958
850,1.414517,141.107
851,1.416183,141.107
852,1.41785,140.928
853,1.419517,141.039
854,1.421183,141.084
855,1.4229,141.084
856,1.424517,140.89
857,1.426183,140.913
858,1.42785,140.913
859,1.429517,140.95
860,1.431183,141.114
861,1.43285,141.419
862,1.434517,141.419
863,1.436183,141.345
864,1.43785,141.203
865,1.439517,141.047
866,1.441183,141.047
867,1.44285,140.801
868,1.444517,140.838
869,1.446183,140.935
870,1.4479,140.935
871,1.449517,140.876
872,1.451183,140.965
873,1.45285,141.002
874,1.454517,141.002
875,1.456183,140.928
876,1.45785,141.196
877,1.459517,141.196
878,1.461183,141.166
879,1.46285,140.89
880,1.464517,140.712
881,1.466183,140.712
882,1.46785,140.667
883,1.469517,140.786
884,1.471167,141.405
885,1.472833,141.405
886,1.4745,141.665
887,1.476167,141.792
888,1.477833,141.65
889,1.4795,141.65
890,1.481183,141.144
891,1.482833,141.285
892,1.4845,141.285
893,1.486167,141.293
894,1.487833,141.256
895,1.4895,141.397
896,1.491167,141.397
897,1.492833,141.136
898,1.4945,141.077
899,1.496167,141.174
900,1.49785,141.174
901,1.4995,141.211
902,1.501167,141.27
903,1.502833,140.972
904,1.5045,140.972
905,1.506217,140.958
906,1.507833,140.652
907,1.5095,140.652
908,1.511167,140.51
909,1.512833,140.525
910,1.514633,140.712
911,1.516167,140.712
912,1.517833,141.01
913,1.5195,141.196
914,1.521167,141.203
915,1.522833,141.203
916,1.5245,141.129
917,1.5262,141.39
918,1.527833,141.189
919,1.5295,141.189
920,1.53115,141.442
921,1.532817,141.211
922,1.534483,140.689
923,1.53615,140.689
924,1.537817,140.935
925,1.539483,140.861
926,1.54115,140.861
927,1.542817,140.861
928,1.544483,141.151
929,1.54615,141.233
930,1.547817,141.233
931,1.549483,141.315
932,1.55115,141.71
933,1.552817,141.583
934,1.554483,141.583
935,1.55615,141.382
936,1.557817,141.397
937,1.559483,141.285
938,1.56115,141.285
939,1.562817,141.65
940,1.564483,141.941
941,1.56615,141.941
942,1.567817,141.867
943,1.569483,141.889
944,1.57115,141.68
945,1.572817,141.68
946,1.574483,141.561
947,1.57615,141.71
948,1.577817,141.345
949,1.579483,141.345
950,1.58115,141.576
951,1.582833,141.762
952,1.584483,141.524
953,1.586133,141.524
954,1.587833,141.628
955,1.589517,141.546
956,1.591133,141.501
957,1.5928,141.501
958,1.594467,141.405
959,1.596133,141.025
