"ID","sea_time","fid_signal"
1,0,1166.686
2,0.001667,1168.549
3,0.003333,1168.549
4,0.005,1171.306
5,0.006667,1172.572
6,0.008333,1170.635
7,0.01,1170.635
8,0.011667,1168.251
9,0.013333,1164.749
10,0.015,1163.334
11,0.016667,1163.334
12,0.01835,1166.165
13,0.02,1169.741
14,0.021667,1170.412
15,0.023333,1170.412
16,0.025,1169.667
17,0.026667,1167.432
18,0.028333,1167.432
19,0.030017,1166.761
20,0.031667,1167.879
21,0.033333,1172.051
22,0.035033,1172.051
23,0.036667,1172.498
24,0.038333,1170.114
25,0.04,1168.475
26,0.041667,1168.475
27,0.043333,1165.42
28,0.045,1164.749
29,0.046667,1163.706
30,0.048333,1163.706
31,0.049983,1163.706
32,0.051667,1164.973
33,0.053317,1164.973
34,0.054983,1166.165
35,0.05665,1168.177
36,0.058317,1172.647
37,0.059983,1172.647
38,0.06165,1174.659
39,0.063317,1175.478
40,0.064983,1177.862
41,0.06665,1177.862
42,0.06841700000000001,1174.957
43,0.069983,1171.753
44,0.07165000000000001,1169.145
45,0.07331699999999999,1169.145
46,0.07498299999999999,1165.122
47,0.07665,1165.345
48,0.078317,1167.282
49,0.08,1167.282
50,0.08165,1167.282
51,0.083317,1167.655
52,0.084983,1167.655
53,0.08665,1166.537
54,0.08831700000000001,1161.471
55,0.08998299999999999,1162.44
56,0.09165,1162.44
57,0.093317,1165.345
58,0.095017,1166.165
59,0.09665,1168.698
60,0.098317,1168.698
61,0.099983,1168.475
62,0.10165,1167.506
63,0.103317,1168.251
64,0.104983,1168.251
65,0.10665,1169.145
66,0.108317,1168.996
67,0.109967,1168.996
68,0.111633,1168.4
69,0.1133,1168.698
70,0.114967,1172.349
71,0.116633,1172.349
72,0.1183,1174.063
73,0.119967,1177.192
74,0.121633,1178.607
75,0.1233,1178.607
76,0.124967,1174.286
77,0.126633,1172.125
78,0.1283,1168.475
79,0.129967,1168.475
80,0.131633,1166.612
81,0.1333,1166.984
82,0.134967,1169.145
83,0.136633,1169.145
84,0.1383,1168.251
85,0.139967,1167.729
86,0.141633,1167.729
87,0.1433,1167.357
88,0.144967,1164.6
89,0.146633,1165.196
90,0.1483,1165.196
91,0.149967,1164.451
92,0.151633,1167.282
93,0.15335,1168.4
94,0.154967,1168.4
95,0.156633,1170.561
96,0.158317,1172.796
97,0.159967,1169.965
98,0.161633,1169.965
99,0.1633,1172.572
100,0.164967,1170.114
101,0.16665,1170.114
102,0.1683,1167.879
103,0.170017,1168.698
104,0.171617,1165.569
105,0.173283,1165.569
106,0.17495,1167.953
107,0.176617,1168.177
108,0.178283,1170.263
109,0.17995,1170.263
110,0.181617,1171.008
111,0.183283,1169.518
112,0.18495,1172.349
113,0.186617,1172.349
114,0.188283,1169.294
115,0.18995,1167.729
116,0.191617,1169.294
117,0.193283,1169.294
118,0.19495,1170.784
119,0.196617,1172.572
120,0.198283,1172.572
121,0.19995,1176.298
122,0.201617,1179.948
123,0.203383,1184.791
124,0.20495,1184.791
125,0.206617,1196.712
126,0.208267,1211.166
127,0.209933,1227.185
128,0.2116,1227.185
129,0.213267,1249.313
130,0.214933,1276.359
131,0.2166,1306.608
132,0.218267,1306.608
133,0.219933,1340.583
134,0.2216,1375.675
135,0.223267,1375.675
136,0.224933,1408.011
137,0.2266,1440.123
138,0.228267,1472.607
139,0.229917,1472.607
140,0.231583,1506.358
141,0.23325,1542.345
142,0.234917,1581.684
143,0.2366,1581.684
144,0.23825,1625.121
145,0.23995,1663.789
146,0.241583,1705.065
147,0.24325,1705.065
148,0.244917,1748.204
149,0.246583,1790.672
150,0.24825,1790.672
151,0.249917,1839.995
152,0.251583,1892.149
153,0.25325,1943.484
154,0.254917,1943.484
155,0.256583,1997.277
156,0.25825,2052.635
157,0.259917,2110.153
158,0.261583,2110.153
159,0.26325,2172.515
160,0.264917,2241.06
161,0.266583,2314.672
162,0.26825,2314.672
163,0.269917,2390.072
164,0.271583,2475.53
165,0.27325,2561.733
166,0.274917,2561.733
167,0.276583,2651.96
168,0.27825,2751.574
169,0.279917,2751.574
170,0.281583,2853.721
171,0.28325,2966.3
172,0.284917,3086.478
173,0.286583,3086.478
174,0.288317,3214.18
175,0.2899,3350.899
176,0.291567,3497.601
177,0.293233,3497.601
178,0.2949,3661.737
179,0.296567,3848.746
180,0.298233,4073.754
181,0.2999,4073.754
182,0.301567,4364.178
183,0.303233,4754.663
184,0.305017,5294.457
185,0.306567,5294.457
186,0.308233,6021.708
187,0.3099,6961.748
188,0.311583,6961.748
189,0.31325,8102.655
190,0.3149,9377.599
191,0.316567,10692.701
192,0.318233,10692.701
193,0.3199,11918.396
194,0.321683,12932.047
195,0.323233,13650.06
196,0.3249,13650.06
197,0.326567,14023.036
198,0.328233,14052.912
199,0.3299,13781.786
200,0.331567,13781.786
201,0.333233,13269.633
202,0.3349,12587.905
203,0.336567,12587.905
204,0.338233,11808.276
205,0.3399,10984.987
206,0.341567,10159.165
207,0.343233,10159.165
208,0.3449,9363.218999999999
209,0.346567,8610.933999999999
210,0.348217,7917.881
211,0.349883,7917.881
212,0.35155,7284.284
213,0.353217,6711.632
214,0.354883,6198.585
215,0.35655,6198.585
216,0.358217,5735.159
217,0.359883,5328.059
218,0.36155,5328.059
219,0.363217,4966.482
220,0.364883,4644.096
221,0.36655,4359.334
222,0.368217,4359.334
223,0.369883,4103.78
224,0.37155,3876.016
225,0.373217,3674.403
226,0.374883,3674.403
227,0.37655,3496.483
228,0.378217,3337.786
229,0.379883,3198.609
230,0.38155,3198.609
231,0.383267,3075.153
232,0.384883,2961.457
233,0.38655,2861.321
234,0.388217,2861.321
235,0.389917,2768.412
236,0.39155,2681.688
237,0.393217,2681.688
238,0.394883,2603.084
239,0.39655,2528.802
240,0.398217,2458.021
241,0.399883,2458.021
242,0.40155,2393.946
243,0.403217,2336.427
244,0.404883,2283.826
245,0.406567,2283.826
246,0.4082,2236.739
247,0.409867,2189.13
248,0.411533,2144.352
249,0.4132,2144.352
250,0.414867,2102.181
251,0.416533,2062.395
252,0.4182,2062.395
253,0.419867,2026.856
254,0.421533,1990.572
255,0.4232,1955.703
256,0.424867,1955.703
257,0.426533,1922.548
258,0.4282,1892.969
259,0.429867,1866.072
260,0.431533,1866.072
261,0.433217,1839.697
262,0.434867,1812.95
263,0.436533,1786.724
264,0.4382,1786.724
265,0.439983,1762.286
266,0.441533,1738.667
267,0.4432,1715.72
268,0.444867,1715.72
269,0.446533,1695.007
270,0.4482,1675.785
271,0.449867,1675.785
272,0.451533,1659.244
273,0.4532,1643.226
274,0.454867,1626.611
275,0.456533,1626.611
276,0.4582,1609.4
277,0.459867,1592.562
278,0.461567,1577.139
279,0.4632,1577.139
280,0.464867,1561.418
281,0.466533,1548.678
282,0.4682,1534.149
283,0.46985,1534.149
284,0.471517,1522.154
285,0.473183,1511.723
286,0.47485,1511.723
287,0.476517,1499.28
288,0.478183,1489.446
289,0.47985,1477.599
290,0.481517,1477.599
291,0.483217,1464.412
292,0.48485,1452.565
293,0.486517,1441.687
294,0.488183,1441.687
295,0.48985,1431.555
296,0.491517,1422.465
297,0.493183,1413.226
298,0.49485,1413.226
299,0.496517,1401.678
300,0.498167,1392.886
301,0.499833,1392.886
302,0.5014999999999999,1383.2
303,0.503167,1376.197
304,0.504833,1371.577
305,0.5065,1371.577
306,0.508167,1365.17
307,0.509833,1361.221
308,0.5115,1352.429
309,0.513167,1352.429
310,0.514833,1344.979
311,0.5165,1338.422
312,0.518167,1331.94
313,0.519833,1331.94
314,0.5215,1327.246
315,0.523167,1321.957
316,0.52485,1317.71
317,0.5265,1317.71
318,0.5281670000000001,1312.047
319,0.529817,1309.067
320,0.531533,1309.067
321,0.53315,1305.863
322,0.534817,1297.444
323,0.536483,1292.676
324,0.53815,1292.676
325,0.539817,1289.248
326,0.541483,1285.598
327,0.54315,1285.97
328,0.544817,1285.97
329,0.5464830000000001,1284.629
330,0.54815,1279.414
331,0.549817,1273.528
332,0.5514829999999999,1273.528
333,0.55315,1267.94
334,0.554817,1263.171
335,0.5564829999999999,1263.171
336,0.558267,1259.372
337,0.559817,1258.031
338,0.561483,1256.913
339,0.56315,1256.913
340,0.564817,1255.944
341,0.566483,1254.231
342,0.56815,1250.953
343,0.569817,1250.953
344,0.571483,1246.482
345,0.573183,1243.055
346,0.574817,1241.043
347,0.576483,1241.043
348,0.5781500000000001,1237.914
349,0.579817,1237.989
350,0.581483,1234.561
351,0.5831499999999999,1234.561
352,0.584817,1233.369
353,0.586483,1234.114
354,0.58815,1234.114
355,0.5898,1232.251
356,0.591467,1232.773
357,0.593133,1230.463
358,0.5948,1230.463
359,0.596467,1225.099
360,0.598133,1221.299
361,0.5998,1218.319
362,0.601467,1218.319
363,0.603133,1216.158
364,0.6048,1216.978
365,0.606517,1216.158
366,0.60815,1216.158
367,0.6098,1215.19
368,0.611467,1213.476
369,0.613133,1213.476
370,0.6148,1213.253
371,0.616467,1211.911
372,0.618133,1211.613
373,0.6198,1211.613
374,0.621467,1210.645
375,0.623133,1207.069
376,0.6248,1206.771
377,0.626467,1206.771
378,0.6281330000000001,1205.653
379,0.6298,1206.92
380,0.631467,1207.069
381,0.6331329999999999,1207.069
382,0.6348,1205.876
383,0.636467,1203.492
384,0.638133,1203.492
385,0.6398,1202.3
386,0.641467,1202.524
387,0.6432,1204.386
388,0.6448,1204.386
389,0.646467,1203.865
390,0.6481170000000001,1202.598
391,0.649783,1200.214
392,0.65145,1200.214
393,0.6531169999999999,1198.649
394,0.654783,1195.893
395,0.65645,1195.818
396,0.658117,1195.818
397,0.659817,1193.657
398,0.66145,1192.54
399,0.663117,1195.595
400,0.664783,1195.595
401,0.66645,1194.775
402,0.668117,1197.83
403,0.669783,1197.83
404,0.67145,1197.83
405,0.673117,1194.03
406,0.674783,1193.136
407,0.676517,1193.136
408,0.67815,1189.709
409,0.679783,1185.387
410,0.68145,1188.144
411,0.683117,1188.144
412,0.684783,1187.474
413,0.68645,1186.729
414,0.688117,1190.379
415,0.689783,1190.379
416,0.69145,1187.324
417,0.693117,1184.419
418,0.694783,1184.419
419,0.69645,1183.897
420,0.698117,1179.948
421,0.699783,1179.799
422,0.70145,1179.799
423,0.703117,1181.588
424,0.704783,1183.823
425,0.70645,1184.717
426,0.708117,1184.717
427,0.709767,1183.674
428,0.711433,1183.897
429,0.7131,1182.78
430,0.714767,1182.78
431,0.716433,1185.238
432,0.7181,1189.336
433,0.719767,1190.528
434,0.721433,1190.528
435,0.7231,1191.199
436,0.7247670000000001,1188.219
437,0.726433,1188.219
438,0.7281,1184.94
439,0.7297670000000001,1184.195
440,0.731433,1184.121
441,0.7331,1184.121
442,0.7347669999999999,1184.344
443,0.736433,1182.929
444,0.7381,1180.172
445,0.739767,1180.172
446,0.741433,1178.086
447,0.743117,1177.341
448,0.744767,1177.937
449,0.746467,1177.937
450,0.7481,1179.948
451,0.749767,1183.45
452,0.751433,1183.45
453,0.7531,1184.344
454,0.754767,1184.27
455,0.756433,1180.693
456,0.7581,1180.693
457,0.759767,1178.533
458,0.7615,1180.768
459,0.7631,1180.246
460,0.764767,1180.246
461,0.766433,1182.258
462,0.768083,1182.109
463,0.76975,1178.831
464,0.771417,1178.831
465,0.773083,1178.756
466,0.77475,1177.788
467,0.776417,1175.627
468,0.7781670000000001,1175.627
469,0.7797500000000001,1175.106
470,0.781417,1176.074
471,0.783083,1176.074
472,0.7847499999999999,1178.458
473,0.786417,1180.693
474,0.788083,1182.035
475,0.789733,1182.035
476,0.7914,1181.513
477,0.793067,1180.246
478,0.794817,1179.278
479,0.7964,1179.278
480,0.798067,1177.266
481,0.799733,1179.799
482,0.8014,1179.054
483,0.803067,1179.054
484,0.804733,1179.352
485,0.8064,1180.545
486,0.808067,1180.545
487,0.809733,1179.278
488,0.8114,1178.011
489,0.813067,1175.776
490,0.814733,1175.776
491,0.8164,1172.945
492,0.818083,1170.412
493,0.819783,1172.274
494,0.8214,1172.274
495,0.823067,1172.572
496,0.824733,1175.106
497,0.8264,1175.925
498,0.828067,1175.925
499,0.829717,1174.212
500,0.831383,1173.839
501,0.83305,1173.839
502,0.834717,1172.87
503,0.836383,1174.137
504,0.83805,1175.106
505,0.839717,1175.106
506,0.841383,1173.317
507,0.84305,1172.051
508,0.8447170000000001,1168.102
509,0.846383,1168.102
510,0.84805,1168.475
511,0.8497169999999999,1173.168
512,0.851383,1175.925
513,0.85305,1175.925
514,0.8547169999999999,1179.352
515,0.856383,1179.278
516,0.85805,1179.501
517,0.859717,1179.501
518,0.861383,1179.799
519,0.86305,1178.98
520,0.864717,1178.98
521,0.866383,1177.415
522,0.86805,1176.745
523,0.869717,1176.596
524,0.871383,1176.596
525,0.87305,1179.725
526,0.874717,1182.407
527,0.876383,1180.843
528,0.87805,1180.843
529,0.879767,1179.65
530,0.881383,1175.851
531,0.88305,1175.18
532,0.884717,1175.18
533,0.886383,1173.317
534,0.888083,1171.231
535,0.8897,1171.231
536,0.891367,1173.466
537,0.893033,1173.392
538,0.8947000000000001,1174.36
539,0.896483,1174.36
540,0.898033,1176.894
541,0.8997000000000001,1177.564
542,0.901367,1175.776
543,0.903033,1175.776
544,0.9046999999999999,1175.106
545,0.906367,1176.074
546,0.908033,1170.561
547,0.9097,1170.561
548,0.911367,1170.337
549,0.91315,1169.667
550,0.9147,1167.729
551,0.916367,1167.729
552,0.918033,1169.741
553,0.9197,1167.655
554,0.921367,1167.655
555,0.923033,1169.443
556,0.9247,1170.71
557,0.9263670000000001,1169.667
558,0.928033,1169.667
559,0.9297,1173.094
560,0.9313669999999999,1173.69
561,0.933033,1172.051
562,0.9347,1172.051
563,0.9363669999999999,1173.69
564,0.938033,1174.584
565,0.9397,1174.36
566,0.941367,1174.36
567,0.943033,1176.074
568,0.9447,1176.745
569,0.946367,1176.745
570,0.948033,1175.851
571,0.9496830000000001,1176.149
572,0.95135,1176.223
573,0.953017,1176.223
574,0.9546829999999999,1176.223
575,0.95635,1176.819
576,0.958017,1176.596
577,0.959683,1176.596
578,0.9614,1176
579,0.963017,1176.298
580,0.964683,1176.596
581,0.96635,1176.596
582,0.968017,1176.67
583,0.969683,1176.447
584,0.97135,1174.733
585,0.973017,1174.733
586,0.974683,1171.902
587,0.9763500000000001,1170.039
588,0.978017,1170.039
589,0.979683,1168.847
590,0.9813499999999999,1171.157
591,0.983017,1170.635
592,0.984683,1170.635
593,0.9863499999999999,1172.423
594,0.988017,1174.137
595,0.989683,1173.69
596,0.99135,1173.69
597,0.993017,1175.404
598,0.994683,1174.584
599,0.99635,1173.392
600,0.998017,1173.392
601,0.999683,1170.039
602,1.00135,1171.008
603,1.003017,1171.008
604,1.004683,1169.816
605,1.00635,1170.71
606,1.008017,1171.827
607,1.009667,1171.827
608,1.01135,1169.816
609,1.013,1172.721
610,1.01475,1173.094
611,1.016333,1173.094
612,1.018,1176.521
613,1.019667,1177.49
614,1.021333,1174.807
