"ID","sea_time","fid_signal"
1,0,140.868
2,0.0017,140.868
3,0.003333,140.823
4,0.005,140.66
5,0.006667,140.518
6,0.008333,140.518
7,0.01,140.384
8,0.011667,140.108
9,0.013333,140.302
10,0.015,140.302
11,0.016667,140.086
12,0.018333,139.877
13,0.02,140.004
14,0.021667,140.004
15,0.023433,140.019
16,0.025,140.324
17,0.026667,140.324
18,0.028333,140.272
19,0.029983,140.227
20,0.03165,140.294
21,0.033317,140.294
22,0.034983,140.414
23,0.03665,140.555
24,0.038317,140.749
25,0.039983,140.749
26,0.04165,140.54
27,0.043317,140.339
28,0.044983,140.339
29,0.04665,140.339
30,0.048317,140.481
31,0.049983,140.294
32,0.05165,140.294
33,0.053317,140.384
34,0.054983,140.518
35,0.05665,140.406
36,0.058317,140.406
37,0.059983,140.607
38,0.06165,140.615
39,0.063317,140.689
40,0.064983,140.689
41,0.06665,140.809
42,0.068317,140.63
43,0.069983,140.436
44,0.071683,140.436
45,0.07331699999999999,140.22
46,0.07498299999999999,139.937
47,0.07665,139.914
48,0.07835,139.914
49,0.079983,140.056
50,0.08165,140.078
51,0.083317,140.078
52,0.084983,139.974
53,0.08665,140.078
54,0.08831700000000001,139.855
55,0.08996700000000001,139.855
56,0.09163300000000001,139.706
57,0.09329999999999999,139.654
58,0.094967,139.534
59,0.096633,139.534
60,0.0983,139.639
61,0.099967,140.026
62,0.101633,140.28
63,0.1033,140.28
64,0.104967,140.585
65,0.106633,140.816
66,0.1083,140.816
67,0.109967,140.615
68,0.111633,140.503
69,0.1133,140.458
70,0.114967,140.458
71,0.116633,140.384
72,0.1183,140.369
73,0.119967,140.54
74,0.121633,140.54
75,0.1233,140.548
76,0.124967,140.309
77,0.126633,140.518
78,0.1283,140.518
79,0.129967,140.488
80,0.131633,140.429
81,0.1333,140.309
82,0.134967,140.309
83,0.136633,139.855
84,0.1383,139.698
85,0.139983,139.698
86,0.141733,139.512
87,0.1433,139.639
88,0.144967,139.728
89,0.146633,139.728
90,0.1483,139.937
91,0.14995,140.317
92,0.151617,140.257
93,0.1533,140.257
94,0.155,140.235
95,0.156683,140.145
96,0.158283,139.922
97,0.159933,139.922
98,0.1616,139.974
99,0.163267,140.063
100,0.164933,140.063
101,0.1666,139.803
102,0.168267,139.877
103,0.169933,140.056
104,0.1716,140.056
105,0.173267,140.294
106,0.174933,140.652
107,0.1766,140.607
108,0.178267,140.607
109,0.179933,140.302
110,0.1816,140.212
111,0.183267,140.056
112,0.184933,140.056
113,0.1866,140.451
114,0.188267,140.734
115,0.189933,140.734
116,0.1916,140.712
117,0.193267,140.935
118,0.194933,140.384
119,0.1966,140.384
120,0.198267,140.205
121,0.199933,140.257
122,0.2016,139.914
123,0.203267,139.914
124,0.204933,140.235
125,0.2066,140.548
126,0.20825,140.309
127,0.209917,140.309
128,0.211583,140.317
129,0.21325,140.168
130,0.214917,140.153
131,0.216583,140.153
132,0.21825,140.332
133,0.219917,140.548
134,0.221583,140.548
135,0.223267,140.533
136,0.224917,140.525
137,0.226633,140.719
138,0.22825,140.719
139,0.229917,140.913
140,0.231583,140.89
141,0.23325,140.89
142,0.234917,140.89
143,0.236583,140.913
144,0.23825,140.809
145,0.239917,140.995
146,0.241583,140.995
147,0.24325,141.293
148,0.244917,141.278
149,0.246583,141.278
150,0.24825,141.203
151,0.249917,141.174
152,0.251583,140.935
153,0.25325,140.935
154,0.254917,141.069
155,0.256583,141.434
156,0.25825,141.546
157,0.260017,141.546
158,0.261583,141.889
159,0.26325,142.016
160,0.264917,142.135
161,0.266583,142.135
162,0.26825,142.694
163,0.2699,143.021
164,0.271567,143.237
165,0.273233,143.237
166,0.2749,143.364
167,0.276567,143.67
168,0.278233,143.67
169,0.2799,143.632
170,0.281567,144.102
171,0.283233,144.653
172,0.2849,144.653
173,0.286567,145.309
174,0.288233,146.613
175,0.2899,148.028
176,0.291567,148.028
177,0.293233,150.338
178,0.2949,153.348
179,0.296567,157.96
180,0.298283,157.96
181,0.2999,164.121
182,0.301567,171.952
183,0.303233,171.952
184,0.3049,181.444
185,0.306567,192.076
186,0.308233,203.93
187,0.3099,203.93
188,0.311567,216.573
189,0.313233,229.381
190,0.314917,242.248
191,0.316567,242.248
192,0.318233,254.333
193,0.3199,265.449
194,0.321567,275.128
195,0.323233,275.128
196,0.3249,283.338
197,0.326567,290.021
198,0.328217,290.021
199,0.329883,295.036
200,0.33155,299.126
201,0.333217,301.54
202,0.334883,301.54
203,0.33655,303.09
204,0.338217,303.082
205,0.339883,301.436
206,0.34155,301.436
207,0.343217,298.314
208,0.344933,293.486
209,0.34655,287.89
210,0.348217,287.89
211,0.349883,281.461
212,0.35155,274.628
213,0.353217,267.424
214,0.354883,267.424
215,0.35655,260.368
216,0.358217,253.759
217,0.359883,253.759
218,0.36155,247.464
219,0.363217,242.68
220,0.364883,238.053
221,0.36655,238.053
222,0.368217,234.284
223,0.369933,231.691
224,0.37155,228.979
225,0.373217,228.979
226,0.374883,227.161
227,0.37655,225.954
228,0.378333,225.477
229,0.379883,225.477
230,0.38155,225.641
231,0.383217,226.915
232,0.384883,226.915
233,0.38655,228.517
234,0.388217,231.028
235,0.389883,234.827
236,0.391533,234.827
237,0.3932,239.991
238,0.394867,246.808
239,0.396533,255.756
240,0.3982,255.756
241,0.399867,267.491
242,0.401533,282.004
243,0.4032,300.84
244,0.404867,300.84
245,0.406533,324.368
246,0.4082,353.441
247,0.409867,388.95
248,0.411533,388.95
249,0.4132,431.523
250,0.414867,481.717
251,0.416533,481.717
252,0.4182,539.877
253,0.419867,606.5890000000001
254,0.421533,681.616
255,0.4232,681.616
256,0.424867,764.862
257,0.426533,855.722
258,0.4282,953.3390000000001
259,0.429867,953.3390000000001
260,0.431533,1057.595
261,0.4332,1167.26
262,0.434867,1281.582
263,0.436533,1281.582
264,0.438217,1399.659
265,0.439867,1520.291
266,0.44155,1520.291
267,0.4432,1642.369
268,0.444867,1765.281
269,0.446533,1887.91
270,0.4482,1887.91
271,0.44985,2009.019
272,0.4515,2127.856
273,0.453167,2243.407
274,0.454833,2243.407
275,0.4565,2354.95
276,0.458167,2461.858
277,0.459833,2563.037
278,0.4615,2563.037
279,0.463167,2657.92
280,0.464833,2745.71
281,0.4665,2825.513
282,0.468167,2825.513
283,0.469833,2897.099
284,0.4715,2959.393
285,0.473167,2959.393
286,0.474833,3011.957
287,0.4765,3054.269
288,0.478167,3085.755
289,0.479833,3085.755
290,0.4815,3106.296
291,0.483167,3115.52
292,0.484833,3113.307
293,0.4865,3113.307
294,0.488167,3099.941
295,0.48985,3075.711
296,0.4915,3040.932
297,0.493167,3040.932
298,0.494833,2996.244
299,0.496617,2942.458
300,0.498167,2942.458
301,0.499833,2879.977
302,0.5014999999999999,2810.337
303,0.503167,2734.602
304,0.504833,2734.602
305,0.5065,2653.867
306,0.508167,2569.877
307,0.509817,2483.711
308,0.511483,2483.711
309,0.51315,2396.748
310,0.514817,2309.546
311,0.516483,2223.127
312,0.51815,2223.127
313,0.51985,2138.063
314,0.521483,2054.632
315,0.52315,2054.632
316,0.524817,1973.622
317,0.526483,1895.383
318,0.52815,1820.199
319,0.529817,1820.199
320,0.531483,1748.726
321,0.53315,1680.508
322,0.534817,1615.405
323,0.536483,1615.405
324,0.53815,1553.625
325,0.539817,1494.706
326,0.541483,1438.975
327,0.54315,1438.975
328,0.544817,1386.031
329,0.5464830000000001,1335.956
330,0.54815,1288.444
331,0.549817,1288.444
332,0.5514829999999999,1243.495
333,0.55315,1200.967
334,0.554817,1200.967
335,0.5564829999999999,1160.339
336,0.55815,1121.67
337,0.559817,1084.827
338,0.561483,1084.827
339,0.56315,1049.69
340,0.564817,1016.49
341,0.566483,985.116
342,0.568133,985.116
343,0.5698,954.9930000000001
344,0.5714669999999999,926.383
345,0.573133,898.9349999999999
346,0.5748,898.9349999999999
347,0.576467,872.441
348,0.578133,847.377
349,0.5798,847.377
350,0.581467,823.691
351,0.583167,800.9
352,0.5848,779.1369999999999
353,0.586467,779.1369999999999
354,0.588133,758.372
355,0.5898,738.0549999999999
356,0.591467,718.9880000000001
357,0.593133,718.9880000000001
358,0.5948,700.735
359,0.596467,683.099
360,0.5982,666.283
361,0.5998,666.283
362,0.601467,649.713
363,0.603133,633.6420000000001
364,0.6048,618.354
365,0.606467,618.354
366,0.608133,603.929
367,0.6098,590.0410000000001
368,0.611467,590.0410000000001
369,0.613133,576.7569999999999
370,0.614883,563.979
371,0.616467,551.388
372,0.618133,551.388
373,0.6198,539.176
374,0.621467,527.374
375,0.623133,515.6849999999999
376,0.6248,515.6849999999999
377,0.626467,504.807
378,0.6281330000000001,494.622
379,0.629783,484.757
380,0.631567,484.757
381,0.633117,475.429
382,0.634783,466.168
383,0.63645,466.168
384,0.638117,457.19
385,0.639783,448.391
386,0.64145,439.711
387,0.643117,439.711
388,0.644783,431.135
389,0.64645,422.753
390,0.6481170000000001,415.02
391,0.649783,415.02
392,0.65145,407.666
393,0.653133,400.916
394,0.654783,394.225
395,0.65645,394.225
396,0.658117,387.527
397,0.659783,381.306
398,0.66145,374.839
399,0.663117,374.839
400,0.664783,368.848
401,0.66645,362.925
402,0.668117,362.925
403,0.669783,356.831
404,0.6714830000000001,351.049
405,0.673117,345.431
406,0.674783,345.431
407,0.67645,340.112
408,0.678117,335.097
409,0.679783,330.538
410,0.68145,330.538
411,0.683117,325.844
412,0.684783,321.366
413,0.68645,317.357
414,0.6881,317.357
415,0.689767,313.029
416,0.691433,308.864
417,0.6931,308.864
418,0.694767,304.878
419,0.696433,300.683
420,0.6981000000000001,296.995
421,0.699783,296.995
422,0.701433,293.456
423,0.7030999999999999,290.036
424,0.704767,286.393
425,0.706433,286.393
426,0.7081,282.571
427,0.709767,278.905
428,0.711433,275.455
429,0.7131,275.455
430,0.714767,272.177
431,0.716483,269.294
432,0.718117,266.47
433,0.719767,266.47
434,0.721433,263.423
435,0.7231,260.822
436,0.7247670000000001,260.822
437,0.726483,258.259
438,0.7281,255.652
439,0.7297670000000001,253.253
440,0.731433,253.253
441,0.733167,250.727
442,0.7347669999999999,247.985
443,0.736433,245.385
444,0.7381,245.385
445,0.739767,242.814
446,0.741433,240.266
447,0.743083,238.284
448,0.74475,238.284
449,0.7464,236.131
450,0.748067,233.918
451,0.74985,231.884
452,0.7514,231.884
453,0.753067,229.366
454,0.754733,227.265
455,0.7564,227.265
456,0.758067,225.529
457,0.759733,223.689
458,0.7614,222.02
459,0.763083,222.02
460,0.764733,220.776
461,0.7664,219.204
462,0.7680670000000001,217.952
463,0.769733,217.952
464,0.7714,216.439
465,0.7730669999999999,214.465
466,0.774733,214.465
467,0.7764,212.505
468,0.778067,210.866
469,0.779733,209.838
470,0.7814,209.838
471,0.783067,208.393
472,0.784733,207.387
473,0.7864,205.718
474,0.788067,205.718
475,0.789733,204.027
476,0.7914,202.887
477,0.793067,201.33
478,0.794733,201.33
479,0.7964,199.936
480,0.798067,198.7
481,0.79975,197.664
482,0.8014,197.664
483,0.803067,196.74
484,0.804733,196.211
485,0.806383,196.211
486,0.80805,195.093
487,0.809717,193.946
488,0.811383,193
489,0.8130500000000001,193
490,0.814717,191.927
491,0.816383,191.234
492,0.8180500000000001,190.303
493,0.819717,190.303
494,0.821383,189.155
495,0.8230499999999999,188.045
496,0.824717,186.801
497,0.826383,186.801
498,0.82805,185.534
499,0.829717,184.633
500,0.831383,184.633
501,0.83305,183.992
502,0.8347329999999999,183.567
503,0.8364,183.091
504,0.83805,183.091
505,0.839717,182.413
506,0.841383,181.444
507,0.84305,180.602
508,0.8447170000000001,180.602
509,0.846383,180.036
510,0.84805,179.492
511,0.8497169999999999,179.097
512,0.85145,179.097
513,0.85305,178.33
514,0.8547169999999999,177.436
515,0.856383,176.907
516,0.85805,176.907
517,0.859717,176.042
518,0.861383,175.379
519,0.86305,175.379
520,0.8647,174.791
521,0.866383,174.165
522,0.868167,173.599
523,0.8697,173.599
524,0.871367,172.973
525,0.8730329999999999,172.749
526,0.8747,171.892
527,0.876367,171.892
528,0.87805,171.192
529,0.879767,170.641
530,0.881367,169.635
531,0.883033,169.635
532,0.8847,169.314
533,0.886367,168.838
534,0.888033,168.838
535,0.8897,168.405
536,0.891367,168.145
537,0.89305,167.847
538,0.8947000000000001,167.847
539,0.896367,167.727
540,0.898033,167.266
541,0.8997000000000001,166.766
542,0.901367,166.766
543,0.903033,166.118
544,0.9046999999999999,165.597
545,0.906367,165.425
546,0.908033,165.425
547,0.9097,165.045
548,0.911367,164.844
549,0.913033,164.405
550,0.9147,164.405
551,0.916367,163.987
552,0.918033,163.808
553,0.9197,163.808
554,0.921367,163.198
555,0.923067,163.034
556,0.9247,162.557
557,0.9263670000000001,162.557
558,0.928017,162.221
559,0.929683,162.11
560,0.93135,161.506
561,0.933017,161.506
562,0.934683,161.335
563,0.93635,161.096
564,0.938017,160.873
565,0.939683,160.873
566,0.94135,160.716
567,0.943017,160.396
568,0.9446830000000001,160.396
569,0.9464,160.113
570,0.948017,159.793
571,0.9496830000000001,159.696
572,0.95135,159.696
573,0.953017,159.383
574,0.9546829999999999,159.048
575,0.95635,158.951
576,0.958017,158.951
577,0.959683,158.481
578,0.96135,158.377
579,0.963017,158.243
580,0.964683,158.243
581,0.96635,157.654
582,0.968017,157.341
583,0.969683,157.341
584,0.97135,156.797
585,0.973017,156.403
586,0.974683,156.417
587,0.9763500000000001,156.417
588,0.978017,156.231
589,0.979683,156.224
590,0.9813499999999999,156.045
591,0.983017,156.045
592,0.984683,155.777
593,0.986433,155.65
594,0.988017,155.3
595,0.989667,155.3
596,0.991333,155.032
597,0.993,154.689
598,0.994667,154.413
599,0.996333,154.413
600,0.998,154.302
601,0.999667,154.227
602,1.001333,154.227
603,1.003,154.22
604,1.004667,154.361
605,1.006333,154.48
606,1.008,154.48
607,1.009667,154.458
608,1.011333,154.339
609,1.013,153.951
610,1.014683,153.951
611,1.016333,153.705
612,1.018,153.586
613,1.0197,153.579
614,1.021333,153.579
615,1.023,153.571
616,1.024667,153.34
617,1.026333,153.34
618,1.028,152.901
619,1.029667,152.58
620,1.031333,152.357
621,1.033,152.357
622,1.03465,152.074
623,1.036317,152.111
624,1.037983,151.835
625,1.03965,151.835
626,1.041317,151.768
627,1.042983,151.925
628,1.04465,151.977
629,1.046317,151.977
630,1.047967,152.104
631,1.049633,152.081
632,1.0513,152.044
633,1.052967,152.044
634,1.054633,151.932
635,1.0563,151.91
636,1.057967,151.91
637,1.059633,151.634
638,1.0613,151.448
639,1.062967,151.157
640,1.064633,151.157
641,1.0663,150.718
642,1.067983,150.71
643,1.069633,150.271
644,1.071367,150.271
645,1.072967,149.98
646,1.074633,149.965
647,1.0763,149.846
648,1.077967,149.846
649,1.079633,150.204
650,1.0813,150.368
651,1.082967,150.368
652,1.084633,150.278
653,1.0863,150.256
654,1.087967,149.794
655,1.089667,149.794
656,1.0913,149.474
657,1.092967,149.161
658,1.094633,148.892
659,1.0963,148.892
660,1.097967,149.027
661,1.099633,148.945
662,1.1013,148.982
663,1.102967,148.982
664,1.104633,148.952
665,1.1063,148.647
666,1.10795,148.647
667,1.109617,148.639
668,1.111283,148.535
669,1.11295,148.684
670,1.114617,148.684
671,1.116283,148.959
672,1.11795,149.198
673,1.119617,149.287
674,1.121283,149.287
675,1.12295,149.101
676,1.124617,148.81
677,1.126283,148.527
678,1.12795,148.527
679,1.129617,148.252
680,1.131283,148.132
681,1.13295,147.864
682,1.134617,147.864
683,1.136283,147.432
684,1.13795,147.454
685,1.139617,147.454
686,1.141283,147.134
687,1.14295,147.216
688,1.144617,147.417
689,1.146283,147.417
690,1.14795,147.484
691,1.149617,147.462
692,1.151283,147.276
693,1.15295,147.276
694,1.154617,147.134
695,1.156283,147.164
696,1.157967,147.283
697,1.159617,147.283
698,1.161317,147.738
699,1.16295,147.685
700,1.164617,147.685
701,1.166283,147.589
702,1.16795,147.402
703,1.1696,146.888
704,1.171267,146.888
705,1.172933,146.97
706,1.1746,146.829
707,1.176267,146.784
708,1.177933,146.784
709,1.1796,146.814
710,1.181267,146.836
711,1.182933,146.985
712,1.1846,146.985
713,1.186267,147.06
714,1.187933,147.246
715,1.18965,147.313
716,1.191267,147.313
717,1.192933,147.127
718,1.1946,146.918
719,1.196267,146.918
720,1.197933,146.709
721,1.1996,146.762
722,1.201267,146.665
723,1.202933,146.665
724,1.2046,146.963
725,1.206267,146.955
726,1.207933,146.613
727,1.2096,146.613
728,1.211267,146.68
729,1.212933,146.434
730,1.2146,146.307
731,1.216267,146.307
732,1.217933,146.434
733,1.2196,146.419
734,1.221267,146.419
735,1.223033,146.426
736,1.2246,146.277
737,1.226267,146.203
738,1.227917,146.203
739,1.229583,146.173
740,1.23125,146.136
741,1.232917,146.322
742,1.234583,146.322
743,1.23625,146.069
744,1.237917,145.823
745,1.239633,145.48
746,1.24125,145.48
747,1.242917,145.301
748,1.244583,145.324
749,1.24625,145.249
750,1.247917,145.249
751,1.249583,145.383
752,1.25125,145.242
753,1.252917,145.242
754,1.254583,145.137
755,1.25625,145.376
756,1.257917,145.674
757,1.259583,145.674
758,1.26125,145.823
759,1.262917,145.912
760,1.264583,145.763
761,1.26625,145.763
762,1.267917,145.45
763,1.269583,145.555
764,1.27125,145.45
765,1.272917,145.45
766,1.274583,145.324
767,1.27625,145.219
768,1.277917,145.219
769,1.279583,145.033
770,1.28125,144.929
771,1.282917,144.891
772,1.284583,144.891
773,1.28625,144.921
774,1.2879,144.981
775,1.289567,145.011
776,1.291233,145.011
777,1.2929,145.011
778,1.294567,145.219
779,1.29625,145.338
780,1.2979,145.338
781,1.299567,145.391
782,1.301233,145.435
783,1.302933,145.294
784,1.304583,145.294
785,1.306283,145.078
786,1.307933,145.264
787,1.309567,145.264
788,1.311233,145.294
789,1.3129,145.033
790,1.314567,144.944
791,1.316233,144.944
792,1.3179,144.608
793,1.319567,144.37
794,1.321233,144.631
795,1.3229,144.631
796,1.324667,144.519
797,1.326217,144.824
798,1.327883,145.16
799,1.32955,145.16
800,1.331217,145.026
801,1.332883,144.906
802,1.33455,144.906
803,1.336217,144.735
804,1.337883,144.467
805,1.33955,144.571
806,1.341317,144.571
807,1.342883,144.735
808,1.34455,144.683
809,1.3462,144.675
810,1.347867,144.675
811,1.349533,144.698
812,1.3512,144.765
813,1.352867,144.497
814,1.354533,144.497
815,1.3562,144.273
816,1.357867,144.131
817,1.359533,144.131
818,1.3612,144.057
819,1.362867,144.266
820,1.364533,144.318
821,1.3662,144.318
822,1.367867,144.221
823,1.369533,143.953
824,1.3712,143.602
825,1.372867,143.602
826,1.374533,143.811
827,1.3762,144.154
828,1.377883,144.43
829,1.379583,144.43
830,1.3812,144.757
831,1.382867,144.593
832,1.384533,144.318
833,1.3862,144.318
834,1.387867,144.057
835,1.389533,143.744
836,1.3912,143.744
837,1.392867,143.58
838,1.394533,143.625
839,1.3962,143.975
840,1.397867,143.975
841,1.399533,144.288
842,1.4012,144.713
843,1.402867,144.564
844,1.404533,144.564
845,1.4062,144.34
846,1.40785,144.139
847,1.409517,143.781
848,1.411183,143.781
849,1.41285,143.662
850,1.414517,143.61
851,1.416183,143.61
852,1.41785,143.565
853,1.419517,143.543
854,1.421183,143.64
855,1.42285,143.64
856,1.424517,143.938
857,1.426183,144.139
858,1.42785,144.035
859,1.429517,144.035
860,1.431183,144.05
861,1.43285,143.729
862,1.434517,143.386
863,1.436183,143.386
864,1.43785,143.476
865,1.439517,143.2
866,1.441183,143.349
867,1.4429,143.349
868,1.444517,143.617
869,1.446183,143.863
870,1.44785,143.863
871,1.449517,144.176
872,1.451183,144.109
873,1.452883,144.042
874,1.454517,144.042
875,1.456183,143.677
876,1.45785,143.372
877,1.4596,143.364
878,1.461183,143.364
879,1.46285,143.498
880,1.464517,143.528
881,1.466183,143.729
882,1.467833,143.729
883,1.4695,143.692
884,1.471183,143.453
885,1.472833,143.453
886,1.4745,143.67
887,1.476167,143.722
888,1.477833,143.543
889,1.4795,143.543
890,1.481167,143.491
891,1.482833,143.446
892,1.4845,143.2
893,1.486167,143.2
894,1.487833,143.55
895,1.4895,143.737
896,1.491167,143.439
897,1.492833,143.439
898,1.4945,143.811
899,1.496167,143.401
900,1.497833,143.2
901,1.4995,143.2
902,1.501167,143.118
903,1.502833,142.694
904,1.5045,142.694
905,1.506167,142.992
906,1.507833,143.103
907,1.5095,143.208
908,1.511167,143.208
909,1.512833,142.895
910,1.5145,142.671
911,1.516167,142.582
912,1.517833,142.582
913,1.5195,142.582
914,1.521167,142.91
915,1.522833,142.924
916,1.524517,142.924
917,1.5262,143.096
918,1.52785,143.133
919,1.529483,143.133
920,1.53115,143.185
921,1.532817,143.357
922,1.534483,143.066
923,1.53615,143.066
924,1.537817,143.148
925,1.539483,143.088
926,1.54115,142.828
927,1.542817,142.828
928,1.544483,142.992
929,1.54615,143.103
930,1.547817,143.118
931,1.549483,143.118
932,1.55115,143.126
933,1.552817,142.984
934,1.554483,142.984
935,1.55615,142.887
936,1.557817,142.857
937,1.559483,142.79
938,1.561217,142.79
939,1.562817,142.805
940,1.564483,142.783
941,1.56615,142.768
942,1.567817,142.768
943,1.569483,142.932
944,1.57115,143.059
945,1.572817,143.126
946,1.574483,143.126
947,1.57615,143.409
948,1.5779,143.453
949,1.579483,143.565
950,1.58115,143.565
951,1.582817,143.401
952,1.584483,142.992
953,1.58615,142.992
954,1.5878,142.805
955,1.589467,142.582
