"ID","sea_time","fid_signal"
1,0,140.57
2,0.001667,140.205
3,0.003333,140.205
4,0.005,140.019
5,0.006667,139.87
6,0.008333,139.87
7,0.009983000000000001,139.87
8,0.01165,139.87
9,0.013317,139.907
10,0.014983,139.743
11,0.01665,139.743
12,0.018317,139.758
13,0.019983,140.183
14,0.0217,140.54
15,0.023317,140.54
16,0.024983,140.995
17,0.02665,141.136
18,0.028317,141.136
19,0.029983,140.816
20,0.03165,140.667
21,0.033317,140.57
22,0.034983,140.57
23,0.03665,140.272
24,0.038383,140.212
25,0.039983,140.026
26,0.04165,140.026
27,0.043317,139.967
28,0.044983,139.877
29,0.04665,140.086
30,0.048317,140.086
31,0.049983,140.198
32,0.05165,140.272
33,0.053317,140.354
34,0.055083,140.354
35,0.05665,140.555
36,0.058317,140.622
37,0.059983,140.622
38,0.06165,140.265
39,0.063317,140.391
40,0.064983,140.369
41,0.06665,140.369
42,0.0683,140.682
43,0.069967,140.95
44,0.071633,140.883
45,0.0733,140.883
46,0.07498299999999999,140.525
47,0.07665,140.227
48,0.07838299999999999,140.287
49,0.079967,140.287
50,0.081633,140.414
51,0.0833,140.645
52,0.084967,140.645
53,0.086633,140.674
54,0.0883,140.473
55,0.08996700000000001,140.376
56,0.09163300000000001,140.376
57,0.09329999999999999,140.324
58,0.094967,140.049
59,0.096633,139.847
60,0.0983,139.847
61,0.099967,139.698
62,0.101633,139.438
63,0.1033,139.46
64,0.104967,139.46
65,0.106633,139.944
66,0.1083,140.205
67,0.109967,140.399
68,0.111633,140.399
69,0.1133,140.756
70,0.114967,140.741
71,0.116633,140.741
72,0.1183,140.622
73,0.119967,140.63
74,0.121633,140.622
75,0.1233,140.622
76,0.124967,140.667
77,0.126633,140.749
78,0.1283,140.592
79,0.129967,140.592
80,0.131617,140.525
81,0.133283,140.026
82,0.13495,139.646
83,0.136617,139.646
84,0.138283,139.765
85,0.14,139.639
86,0.141617,139.639
87,0.143283,139.87
88,0.14495,140.496
89,0.146617,140.555
90,0.1483,140.555
91,0.14995,140.712
92,0.151617,140.734
93,0.153283,140.376
94,0.15495,140.376
95,0.156683,140.138
96,0.158283,139.989
97,0.15995,139.84
98,0.161617,139.84
99,0.163283,139.855
100,0.16495,140.093
101,0.166617,140.108
102,0.168283,140.108
103,0.16995,140.25
104,0.171617,140.108
105,0.17335,140.108
106,0.17495,140.198
107,0.176617,140.272
108,0.178283,140.399
109,0.17995,140.399
110,0.181617,140.488
111,0.183283,140.592
112,0.18495,140.28
113,0.186583,140.28
114,0.18825,140.309
115,0.190033,140.861
116,0.191583,141.241
117,0.19325,141.241
118,0.194917,142.775
119,0.196583,145.495
120,0.19825,145.495
121,0.199917,150.137
122,0.201583,158.66
123,0.20325,171.773
124,0.204917,171.773
125,0.206583,190.116
126,0.20825,214.77
127,0.209917,245.214
128,0.211617,245.214
129,0.21325,281.021
130,0.214917,321.142
131,0.216583,364.594
132,0.21825,364.594
133,0.219917,410.512
134,0.221583,457.846
135,0.22325,457.846
136,0.224917,506.662
137,0.226583,555.62
138,0.22825,604.51
139,0.229917,604.51
140,0.231583,653.274
141,0.23325,701.837
142,0.234917,750.773
143,0.236617,750.773
144,0.23825,799.604
145,0.239917,848.912
146,0.241583,898.525
147,0.24325,898.525
148,0.244917,948.764
149,0.246567,1000.002
150,0.24825,1052.313
151,0.2499,1052.313
152,0.251567,1105.994
153,0.253233,1160.905
154,0.2549,1160.905
155,0.256567,1217.745
156,0.258267,1276.486
157,0.2599,1337.223
158,0.261567,1337.223
159,0.263233,1400.396
160,0.2649,1465.782
161,0.266567,1534.276
162,0.268233,1534.276
163,0.2699,1605.839
164,0.271567,1680.754
165,0.273233,1759.768
166,0.274933,1759.768
167,0.276567,1842.096
168,0.278233,1928.359
169,0.2799,1928.359
170,0.281567,2018.772
171,0.283283,2113.268
172,0.2849,2212.48
173,0.286567,2212.48
174,0.288233,2316.669
175,0.2899,2426.207
176,0.2916,2541.423
177,0.293233,2541.423
178,0.2949,2662.569
179,0.296567,2790.734
180,0.298233,2927.385
181,0.2999,2927.385
182,0.301567,3075.92
183,0.303233,3243.037
184,0.3049,3439.128
185,0.306567,3439.128
186,0.308333,3680.274
187,0.309883,3985.479
188,0.31155,3985.479
189,0.313217,4372.708
190,0.314883,4850.954
191,0.31655,5411.2
192,0.318217,5411.2
193,0.319883,6020.3
194,0.32155,6626.159
195,0.323217,7166.609
196,0.324883,7166.609
197,0.32655,7582.374
198,0.328217,7831.484
199,0.3299,7895.216
200,0.33155,7895.216
201,0.333217,7778.637
202,0.334883,7507.354
203,0.33655,7507.354
204,0.338217,7119.455
205,0.339883,6654.59
206,0.34155,6149.918
207,0.343217,6149.918
208,0.344883,5634.673
209,0.34655,5130.425
210,0.348217,4652.307
211,0.349883,4652.307
212,0.35155,4208.334
213,0.353217,3802.694
214,0.354917,3436.386
215,0.35655,3436.386
216,0.358217,3108.01
217,0.359883,2815.783
218,0.36155,2557.24
219,0.363217,2557.24
220,0.364883,2329.23
221,0.36655,2128.609
222,0.368217,2128.609
223,0.369867,1951.821
224,0.371533,1796.216
225,0.3732,1659.535
226,0.374883,1659.535
227,0.376533,1539.275
228,0.3782,1433.268
229,0.379867,1339.749
230,0.381533,1339.749
231,0.3832,1256.466
232,0.384867,1182.72
233,0.386533,1117.028
234,0.3882,1117.028
235,0.389867,1057.886
236,0.391533,1005.046
237,0.393267,957.072
238,0.394867,957.072
239,0.396533,913.814
240,0.3982,874.832
241,0.399867,874.832
242,0.401533,839.107
243,0.4032,806.4880000000001
244,0.404867,776.596
245,0.406533,776.596
246,0.4082,748.739
247,0.4099,722.997
248,0.411533,698.827
249,0.4132,698.827
250,0.414867,676.17
251,0.416533,654.712
252,0.4182,634.5359999999999
253,0.419867,634.5359999999999
254,0.421533,615.7380000000001
255,0.4232,598.021
256,0.424867,598.021
257,0.426567,581.481
258,0.428183,565.529
259,0.42985,550.136
260,0.431517,550.136
261,0.433183,535.496
262,0.43485,521.3099999999999
263,0.436517,508.174
264,0.438183,508.174
265,0.43985,495.687
266,0.441517,483.371
267,0.443183,471.547
268,0.44485,471.547
269,0.446517,459.768
270,0.448183,448.801
271,0.44985,448.801
272,0.451517,438.28
273,0.453183,428.319
274,0.45485,419.08
275,0.456517,419.08
276,0.458183,409.506
277,0.45985,400.454
278,0.461517,391.997
279,0.463183,391.997
280,0.46485,383.854
281,0.466517,376.15
282,0.468183,368.506
283,0.46985,368.506
284,0.471517,360.951
285,0.473183,353.679
286,0.47485,353.679
287,0.476517,346.623
288,0.478167,340.007
289,0.479833,333.771
290,0.4815,333.771
291,0.483167,327.334
292,0.484833,321.493
293,0.4865,315.867
294,0.488183,315.867
295,0.489867,310.153
296,0.491483,304.505
297,0.493167,298.955
298,0.494867,298.955
299,0.496483,293.612
300,0.49815,288.628
301,0.499817,284.165
302,0.501483,284.165
303,0.50315,279.74
304,0.504817,275.321
305,0.506483,275.321
306,0.50815,271.223
307,0.509817,266.924
308,0.511483,262.998
309,0.51315,262.998
310,0.514817,259.37
311,0.516483,255.473
312,0.51815,251.964
313,0.519817,251.964
314,0.521483,248.231
315,0.52315,244.342
316,0.524817,240.78
317,0.526483,240.78
318,0.52815,237.569
319,0.529817,234.671
320,0.531483,234.671
321,0.53315,232.19
322,0.534817,229.985
323,0.536483,227.451
324,0.53815,227.451
325,0.539817,224.948
326,0.541483,222.042
327,0.54315,219.084
328,0.544917,219.084
329,0.5464830000000001,216.454
330,0.54815,213.929
331,0.549817,212.073
332,0.551467,212.073
333,0.553133,210.069
334,0.5548,207.864
335,0.556467,205.927
336,0.558133,205.927
337,0.5598,203.84
338,0.561467,201.799
339,0.563133,201.799
340,0.5648,200.294
341,0.5664670000000001,198.469
342,0.568217,196.606
343,0.5698,196.606
344,0.5714669999999999,195.079
345,0.573133,193.313
346,0.5748,191.323
347,0.576467,191.323
348,0.578133,189.401
349,0.5798,187.516
350,0.581467,185.892
351,0.583133,185.892
352,0.5848,184.909
353,0.586467,183.865
354,0.588133,183.865
355,0.5898,183.046
356,0.591467,182.01
357,0.593133,180.885
358,0.5948,180.885
359,0.596467,179.864
360,0.598133,178.747
361,0.5998,177.503
362,0.601467,177.503
363,0.603133,176.348
364,0.6048,175.238
365,0.606467,174.038
366,0.608133,174.038
367,0.609783,172.883
368,0.61145,171.818
369,0.613117,171.818
370,0.614783,170.894
371,0.6164500000000001,170.052
372,0.618117,169.419
373,0.619783,169.419
374,0.6214499999999999,168.584
375,0.623117,167.839
376,0.624783,167.251
377,0.62645,167.251
378,0.628117,166.513
379,0.6298,165.865
380,0.631483,165.202
381,0.63315,165.202
382,0.634783,164.263
383,0.63645,163.674
384,0.638117,163.019
385,0.639783,163.019
386,0.64145,162.229
387,0.643117,161.611
388,0.644783,161.611
389,0.64645,161.104
390,0.6481170000000001,160.612
391,0.649783,160.091
392,0.65145,160.091
393,0.6531169999999999,159.532
394,0.654783,158.831
395,0.65645,158.295
396,0.658117,158.295
397,0.659783,157.841
398,0.66145,157.349
399,0.663183,156.835
400,0.664783,156.835
401,0.66645,156.194
402,0.668117,155.799
403,0.669767,155.799
404,0.6714329999999999,155.672
405,0.6731,155.382
406,0.674767,155.218
407,0.676433,155.218
408,0.6781,154.92
409,0.679767,154.16
410,0.681433,153.542
411,0.6831,153.542
412,0.684767,153.072
413,0.686433,152.618
414,0.6881,152.491
415,0.689767,152.491
416,0.691433,152.245
417,0.6931,151.865
418,0.694767,151.597
419,0.696433,151.597
420,0.6981000000000001,151.478
421,0.699767,151.426
422,0.701433,151.426
423,0.7030999999999999,151.262
424,0.704783,151.157
425,0.706483,150.695
426,0.7081,150.695
427,0.709767,150.539
428,0.711433,150.591
429,0.7131,150.137
430,0.714767,150.137
431,0.716433,149.868
432,0.7181,149.652
433,0.719767,149.25
434,0.721433,149.25
435,0.7231,149.056
436,0.7247670000000001,148.974
437,0.726433,148.974
438,0.728083,148.691
439,0.72975,148.416
440,0.731417,148.334
441,0.733083,148.334
442,0.73475,148.17
443,0.736417,148.05
444,0.738083,148.155
445,0.73975,148.155
446,0.741417,147.887
447,0.743083,147.864
448,0.74475,147.879
449,0.746417,147.879
450,0.748133,147.432
451,0.74975,147.372
452,0.751417,147.298
453,0.7530829999999999,147.298
454,0.75475,146.836
455,0.756417,146.814
456,0.758083,146.814
457,0.75975,146.933
458,0.761417,146.694
459,0.763083,146.501
460,0.76475,146.501
461,0.766417,146.419
462,0.768083,146.344
463,0.769733,146.337
464,0.7714,146.337
465,0.7730669999999999,146.449
466,0.774733,146.404
467,0.7764,146.054
468,0.778083,146.054
469,0.779733,145.651
470,0.7814,145.391
471,0.783083,145.391
472,0.784733,145.264
473,0.7864,145.175
474,0.788067,145.301
475,0.789717,145.301
476,0.7913829999999999,145.502
477,0.79305,145.532
478,0.794717,145.502
479,0.796383,145.502
480,0.79805,145.376
481,0.799717,145.13
482,0.801383,144.534
483,0.80305,144.534
484,0.804717,144.43
485,0.806383,144.593
486,0.80805,144.593
487,0.809717,144.415
488,0.811383,144.78
489,0.8130500000000001,144.809
490,0.814717,144.809
491,0.816383,144.601
492,0.8180500000000001,144.869
493,0.819717,144.809
494,0.821383,144.809
495,0.8230499999999999,144.668
496,0.824717,144.564
497,0.826383,144.459
498,0.82805,144.459
499,0.829717,144.37
500,0.831383,144.288
501,0.83305,144.012
502,0.834717,144.012
503,0.836383,143.692
504,0.83805,143.304
505,0.839717,143.304
506,0.841383,143.342
507,0.84305,143.632
508,0.8447170000000001,143.901
509,0.846383,143.901
510,0.84805,144.124
511,0.8497,143.886
512,0.851383,143.416
513,0.85305,143.416
514,0.85475,143.237
515,0.856367,143.275
516,0.858033,143.431
517,0.8597,143.431
518,0.861367,143.878
519,0.8630330000000001,143.751
520,0.8647,143.751
521,0.866383,143.506
522,0.8680330000000001,143.357
523,0.8697,142.947
524,0.871367,142.947
525,0.8730329999999999,142.79
526,0.8747,142.887
527,0.876367,142.88
528,0.878033,142.88
529,0.8797,142.992
530,0.881367,143.155
531,0.8831,143.17
532,0.8847,143.17
533,0.886367,143.021
534,0.888033,142.828
535,0.8897,142.567
536,0.891367,142.567
537,0.893033,142.492
538,0.8947000000000001,142.306
539,0.896367,142.306
540,0.898033,142.016
541,0.899817,142.06
542,0.901367,141.755
543,0.903033,141.755
544,0.9046999999999999,141.978
545,0.906367,142.388
546,0.908033,142.373
547,0.909683,142.373
548,0.91135,142.656
549,0.913017,142.455
550,0.914683,142.194
551,0.91635,142.194
552,0.918017,141.971
553,0.919683,141.852
554,0.92135,141.852
555,0.923017,142.09
556,0.924683,142.328
557,0.92635,142.552
558,0.928033,142.552
559,0.929683,142.306
560,0.93135,142.15
561,0.933017,142.157
562,0.934683,142.157
563,0.93635,142.12
564,0.938017,142.574
565,0.939683,142.552
566,0.94135,142.552
567,0.943017,142.418
568,0.9446830000000001,142.47
569,0.94635,142.269
570,0.948017,142.269
571,0.9496830000000001,142.03
572,0.95135,141.889
573,0.953017,141.889
574,0.9546829999999999,141.77
575,0.95635,141.695
576,0.958017,142.053
577,0.959683,142.053
578,0.96135,142.12
579,0.963017,142.261
580,0.964683,142.254
581,0.96635,142.254
582,0.968,142.03
583,0.9696669999999999,142.157
584,0.971333,142.232
585,0.973,142.232
586,0.974667,142.343
587,0.976333,142.306
588,0.978,142.306
589,0.979667,142.157
590,0.981333,141.695
591,0.983,141.449
592,0.984667,141.449
593,0.986333,141.501
594,0.988,141.352
595,0.989667,141.472
596,0.991333,141.472
597,0.993,141.434
598,0.994667,141.412
599,0.99635,141.375
600,0.998017,141.375
601,0.9997,141.3
602,1.0014,141.442
603,1.003,141.658
604,1.004667,141.658
605,1.00635,141.926
606,1.008,142.016
607,1.009667,142.016
608,1.011333,141.971
609,1.013,142.083
610,1.014667,141.956
611,1.016333,141.956
612,1.018083,141.934
613,1.019667,141.673
614,1.021333,141.568
615,1.023,141.568
616,1.024667,141.732
617,1.026333,141.911
618,1.028,142.008
619,1.02965,142.008
620,1.031317,141.695
621,1.032983,141.427
622,1.034783,141.315
623,1.036317,141.315
624,1.037983,141.397
625,1.03965,141.434
626,1.041317,141.434
627,1.042983,141.643
628,1.04465,141.777
629,1.046317,141.725
630,1.047983,141.725
631,1.04965,142.053
632,1.051317,142.135
633,1.052983,142.165
634,1.05465,142.165
635,1.056317,142.537
636,1.057983,142.194
637,1.05965,142.194
638,1.0613,141.822
639,1.062967,141.725
640,1.064633,141.36
641,1.0663,141.36
642,1.067967,141.419
643,1.069667,141.717
644,1.0713,141.77
645,1.072967,141.77
646,1.074633,141.844
647,1.0763,141.77
648,1.077967,141.568
649,1.079633,141.568
650,1.081317,141.568
651,1.082967,141.531
652,1.084633,141.494
653,1.0863,141.494
654,1.087967,141.636
655,1.089617,141.479
656,1.091283,141.479
657,1.09295,141.531
658,1.094617,141.658
659,1.096283,141.487
660,1.09795,141.487
661,1.099617,141.382
662,1.101283,141.189
663,1.10295,140.905
664,1.104617,140.905
665,1.106283,140.95
666,1.10795,141.218
667,1.109617,141.576
668,1.111283,141.576
669,1.11295,141.77
670,1.114617,141.747
671,1.116283,141.747
672,1.11795,141.799
673,1.119717,141.546
674,1.121283,141.442
675,1.12295,141.442
676,1.124617,141.367
677,1.126283,141.203
678,1.12795,141.203
679,1.129617,141.203
680,1.131283,141.323
681,1.13295,141.27
682,1.134617,141.241
683,1.136333,141.241
684,1.13795,141.33
685,1.13965,141.323
686,1.141283,141.509
687,1.14295,141.509
688,1.144617,141.658
689,1.146283,141.755
690,1.147933,141.755
691,1.1496,141.77
692,1.151267,141.911
693,1.153033,141.77
694,1.1546,141.77
695,1.156267,141.591
696,1.157933,141.77
697,1.1596,141.546
698,1.161267,141.546
699,1.162933,141.345
700,1.1646,141.375
701,1.166267,141.419
702,1.167933,141.419
703,1.1696,141.583
704,1.171267,141.621
705,1.172933,141.621
706,1.1746,141.747
707,1.176283,141.479
708,1.177933,141.174
709,1.1796,141.174
710,1.181283,141.121
711,1.182933,140.95
712,1.1846,140.727
713,1.186267,140.727
714,1.187933,140.823
715,1.1896,140.838
716,1.191267,140.741
717,1.192933,140.741
718,1.1946,140.853
719,1.196267,140.846
720,1.197933,140.98
721,1.1996,140.98
722,1.201267,141.367
723,1.202933,141.323
724,1.2046,141.323
725,1.206267,141.367
726,1.207917,141.3
727,1.209583,140.98
728,1.21125,140.98
729,1.212967,141.196
730,1.214583,141.457
731,1.21625,141.74
732,1.217917,141.74
733,1.219583,141.814
734,1.22125,141.792
735,1.222917,141.606
736,1.224583,141.606
737,1.22625,141.189
738,1.227917,140.809
739,1.229583,140.809
740,1.23125,140.838
741,1.232917,140.749
742,1.234583,140.89
743,1.23625,140.89
744,1.237983,141.144
745,1.239583,141.092
746,1.24125,141.121
747,1.242917,141.121
748,1.244583,141.025
749,1.24625,141.107
750,1.247917,141.047
751,1.249583,141.047
752,1.25125,140.965
753,1.252917,141.27
754,1.254583,141.27
755,1.256283,141.226
756,1.257917,141.144
757,1.259583,141.01
758,1.26125,141.01
759,1.262917,140.749
760,1.264583,140.682
761,1.26625,140.838
762,1.2679,140.838
763,1.269567,141.144
764,1.2713,141.241
765,1.2729,141.352
766,1.274567,141.352
767,1.276233,141.449
768,1.2779,141.419
769,1.279567,141.665
770,1.281233,141.665
771,1.2829,141.785
772,1.284567,141.606
773,1.28625,141.606
774,1.2879,141.226
775,1.289567,140.905
776,1.291233,140.734
777,1.2929,140.734
778,1.294567,141.032
779,1.296233,141.285
780,1.2979,141.345
781,1.299567,141.345
782,1.301233,141.3
783,1.3029,140.995
784,1.304567,140.987
785,1.306233,140.987
786,1.3079,140.868
787,1.309567,140.771
788,1.311233,140.771
789,1.3129,140.853
790,1.314567,140.816
791,1.316233,140.928
792,1.3179,140.928
793,1.319567,140.898
794,1.321233,140.95
795,1.3229,140.98
796,1.324567,140.98
797,1.326233,140.809
798,1.327883,140.831
799,1.32955,140.704
800,1.331217,140.704
801,1.332883,140.741
802,1.33455,140.749
803,1.336217,140.876
804,1.337883,140.876
805,1.33955,140.928
806,1.341217,141.002
807,1.342917,141.002
808,1.34455,141.092
809,1.346217,141.092
810,1.347883,140.98
811,1.349567,140.98
812,1.3512,140.913
813,1.352867,140.943
814,1.354533,141.189
815,1.356283,141.189
816,1.357867,141.539
817,1.359533,141.427
818,1.3612,141.442
819,1.362867,141.442
820,1.364533,141.181
821,1.3662,140.607
822,1.367867,140.607
823,1.369533,140.473
824,1.3712,140.421
825,1.372867,140.384
826,1.374533,140.384
827,1.3762,140.712
828,1.377867,140.816
829,1.379533,140.794
830,1.3812,140.794
831,1.382867,140.801
832,1.384533,140.578
833,1.3862,140.704
834,1.387867,140.704
835,1.38965,140.704
836,1.391183,140.57
837,1.39285,140.57
838,1.394517,140.734
839,1.396183,140.63
840,1.39785,140.645
841,1.399517,140.645
842,1.401183,140.898
843,1.40285,141.136
844,1.404517,141.233
845,1.406183,141.233
846,1.40785,141.375
847,1.409517,141.509
848,1.411183,141.151
849,1.41285,141.151
850,1.414517,140.861
851,1.416183,140.66
852,1.41785,140.384
853,1.419517,140.384
854,1.421183,140.741
855,1.422883,140.913
856,1.424533,140.913
857,1.426183,141.27
858,1.42785,141.412
859,1.429517,141.285
860,1.431183,141.285
861,1.43285,141.345
862,1.434517,140.943
863,1.436183,140.898
864,1.43785,140.898
865,1.439517,140.816
866,1.441183,140.846
867,1.44285,141.203
868,1.444517,141.203
869,1.446183,141.412
870,1.447833,141.509
871,1.4495,141.509
872,1.451167,141.665
873,1.452833,141.501
874,1.4545,141.382
875,1.456167,141.382
876,1.457833,141.174
877,1.4595,141.032
878,1.461167,141.039
879,1.462833,141.039
880,1.4645,141.189
881,1.466167,141.27
882,1.467833,141.241
883,1.4695,141.241
884,1.471167,141.189
885,1.472833,141.211
886,1.47455,141.181
887,1.476167,141.181
888,1.477833,141.203
889,1.4795,141.405
890,1.481167,141.405
891,1.482833,141.263
892,1.4845,141.3
893,1.486167,141.278
894,1.487833,141.278
895,1.4895,140.995
896,1.4912,140.779
897,1.492833,140.98
898,1.494533,140.98
899,1.496167,141.062
900,1.497833,141.434
901,1.499517,141.487
902,1.501167,141.487
903,1.502833,141.196
904,1.5045,140.898
905,1.506167,140.898
906,1.50795,140.421
907,1.509483,140.399
908,1.51115,140.488
909,1.512817,140.488
910,1.514483,140.727
911,1.51615,140.883
912,1.517817,141.002
913,1.519483,141.002
914,1.52115,141.293
915,1.522817,141.196
916,1.524483,141.218
917,1.52615,141.218
918,1.527817,141.092
919,1.529483,141.025
920,1.53115,141.01
921,1.532817,141.01
922,1.534483,141.077
923,1.53615,141.069
924,1.537817,141.069
925,1.539483,141.039
926,1.54115,141.375
927,1.542817,141.159
928,1.544483,141.159
929,1.54615,141.457
930,1.547817,141.039
931,1.549483,140.622
932,1.55115,140.622
933,1.552817,140.741
934,1.554483,140.488
935,1.55615,140.682
936,1.557817,140.682
937,1.559483,140.51
938,1.56115,140.6
939,1.562817,140.6
940,1.564483,140.54
941,1.56615,140.481
942,1.5678,140.913
943,1.5695,140.913
944,1.571167,140.935
945,1.57285,141.054
946,1.574467,141.159
947,1.576133,141.159
948,1.5778,141.017
949,1.579467,140.585
950,1.581133,140.414
951,1.5828,140.414
952,1.584483,140.093
953,1.586133,139.847
954,1.5878,140.227
955,1.589467,140.227
956,1.591133,140.503
957,1.59285,140.712
958,1.594467,140.712
959,1.596133,141.121
960,1.5978,140.89
961,1.599467,140.652
962,1.601133,140.652
