"ID","sea_time","fid_signal"
1,0,1165.196
2,0.0017,1166.537
3,0.003333,1166.537
4,0.005,1167.655
5,0.006717,1165.494
6,0.00835,1166.91
7,0.009983000000000001,1166.91
8,0.01165,1165.345
9,0.013317,1164.973
10,0.014983,1164.153
11,0.01665,1164.153
12,0.018317,1162.812
13,0.019983,1163.781
14,0.02165,1163.781
15,0.023317,1164.079
16,0.024983,1163.036
17,0.02665,1164.451
18,0.028317,1164.451
19,0.029983,1162.44
20,0.03165,1160.353
21,0.033317,1162.216
22,0.034983,1162.216
23,0.03665,1162.142
24,0.038317,1163.334
25,0.040083,1163.632
26,0.04165,1163.632
27,0.043317,1162.514
28,0.044983,1161.546
29,0.04665,1161.546
30,0.048317,1161.546
31,0.049983,1161.844
32,0.05165,1163.334
33,0.053317,1163.334
34,0.054983,1162.067
35,0.05665,1162.216
36,0.058317,1161.918
37,0.059983,1161.918
38,0.06165,1161.173
39,0.063317,1163.036
40,0.064983,1165.718
41,0.066633,1165.718
42,0.0683,1171.082
43,0.069967,1171.604
44,0.071633,1173.988
45,0.0733,1173.988
46,0.07496700000000001,1174.063
47,0.07663300000000001,1172.125
48,0.07829999999999999,1172.125
49,0.079967,1171.976
50,0.08165,1169.071
51,0.083383,1166.835
52,0.084967,1166.835
53,0.086633,1165.643
54,0.0883,1168.475
55,0.08996700000000001,1168.102
56,0.09163300000000001,1168.102
57,0.09329999999999999,1168.102
58,0.094967,1170.188
59,0.096633,1168.549
60,0.0983,1168.549
61,0.099967,1169.071
62,0.101633,1168.177
63,0.1033,1165.196
64,0.104967,1165.196
65,0.106633,1163.632
66,0.1083,1165.941
67,0.109983,1165.941
68,0.111633,1166.612
69,0.1133,1166.984
70,0.114967,1168.698
71,0.116633,1168.698
72,0.1183,1166.761
73,0.119967,1168.773
74,0.121633,1168.177
75,0.1233,1168.177
76,0.124983,1169.145
77,0.126617,1168.996
78,0.128283,1167.729
79,0.12995,1167.729
80,0.131617,1168.326
81,0.133283,1165.42
82,0.13495,1165.42
83,0.136617,1166.09
84,0.138267,1167.208
85,0.139933,1167.879
86,0.1416,1167.879
87,0.143267,1166.686
88,0.144933,1166.835
89,0.1466,1164.675
90,0.148267,1164.675
91,0.149933,1164.6
92,0.1516,1165.792
93,0.153267,1163.334
94,0.15495,1163.334
95,0.156633,1162.216
96,0.158383,1162.663
97,0.159933,1162.663
98,0.1616,1163.93
99,0.163267,1167.506
100,0.164933,1171.455
101,0.1666,1171.455
102,0.168267,1172.87
103,0.169933,1174.807
104,0.1716,1175.776
105,0.173267,1175.776
106,0.174933,1174.137
107,0.1766,1174.063
108,0.178267,1170.933
109,0.179933,1170.933
110,0.1816,1169.667
111,0.183267,1170.561
112,0.184933,1167.879
113,0.186583,1167.879
114,0.18825,1170.188
115,0.189917,1168.624
116,0.191583,1168.624
117,0.19325,1167.059
118,0.194917,1168.027
119,0.196583,1170.784
120,0.19825,1170.784
121,0.199917,1175.18
122,0.201583,1184.791
123,0.20325,1199.543
124,0.204917,1199.543
125,0.206583,1216.158
126,0.20825,1245.141
127,0.209917,1282.319
128,0.211583,1282.319
129,0.21325,1327.395
130,0.214917,1384.69
131,0.216583,1384.69
132,0.21825,1445.711
133,0.21995,1507.252
134,0.221583,1571.7
135,0.22325,1571.7
136,0.224917,1635.775
137,0.226583,1701.415
138,0.22825,1768.768
139,0.229917,1768.768
140,0.231583,1835.674
141,0.23325,1901.686
142,0.234917,1966.432
143,0.236583,1966.432
144,0.238267,2030.805
145,0.239917,2099.201
146,0.241583,2166.778
147,0.24325,2166.778
148,0.244917,2235.919
149,0.246567,2309.829
150,0.248233,2309.829
151,0.2499,2381.727
152,0.251567,2455.413
153,0.253233,2529.472
154,0.2549,2529.472
155,0.256567,2603.68
156,0.258233,2683.699
157,0.259983,2767.742
158,0.261567,2767.742
159,0.263233,2856.552
160,0.2649,2949.238
161,0.266567,3042.146
162,0.268233,3042.146
163,0.2699,3138.93
164,0.271567,3237.277
165,0.273233,3237.277
166,0.2749,3341.362
167,0.276683,3449.395
168,0.278233,3564.358
169,0.2799,3564.358
170,0.281567,3688.261
171,0.283233,3816.188
172,0.284917,3952.458
173,0.286567,3952.458
174,0.288233,4095.51
175,0.2899,4246.831
176,0.291567,4406.72
177,0.293333,4406.72
178,0.2949,4576.146
179,0.296583,4754.215
180,0.298233,4948.75
181,0.2999,4948.75
182,0.301567,5165.264
183,0.303233,5423.576
184,0.3049,5423.576
185,0.30655,5763.844
186,0.308217,6246.865
187,0.309883,6969.273
188,0.31155,6969.273
189,0.313217,8031.875
190,0.314883,9530.111999999999
191,0.31655,11498.481
192,0.318217,11498.481
193,0.319883,13883.412
194,0.32155,16533.807
195,0.323217,19192.695
196,0.324883,19192.695
197,0.32655,21573.529
198,0.328233,23417.547
199,0.329883,23417.547
200,0.33155,24544.672
201,0.333217,24900.883
202,0.334883,24544.373
203,0.33655,24544.373
204,0.338217,23607.238
205,0.339883,22265.314
206,0.34155,20689.666
207,0.343217,20689.666
208,0.344883,19015.447
209,0.34655,17348.305
210,0.348217,15757.01
211,0.349883,15757.01
212,0.35155,14274.642
213,0.353217,12924.149
214,0.354883,12924.149
215,0.35655,11704.266
216,0.358217,10611.266
217,0.359883,9638.369000000001
218,0.361583,9638.369000000001
219,0.363217,8779.615
220,0.364883,8026.063
221,0.366533,7361.621
222,0.3682,7361.621
223,0.369867,6780.922
224,0.371533,6264.076
225,0.3732,5813.241
226,0.374867,5813.241
227,0.376533,5417.764
228,0.378267,5069.3
229,0.379867,4765.019
230,0.381533,4765.019
231,0.3832,4494.265
232,0.384867,4255.25
233,0.386533,4255.25
234,0.3882,4041.717
235,0.389867,3851.95
236,0.391533,3684.461
237,0.3932,3684.461
238,0.394933,3534.034
239,0.396533,3399.774
240,0.3982,3282.353
241,0.399867,3282.353
242,0.401533,3173.128
243,0.4032,3074.035
244,0.404867,2981.052
245,0.406533,2981.052
246,0.4082,2893.284
247,0.409867,2812.52
248,0.411633,2738.833
249,0.4132,2738.833
250,0.414867,2675.578
251,0.416533,2616.271
252,0.418233,2616.271
253,0.419867,2563.223
254,0.421533,2507.195
255,0.4232,2453.774
256,0.42485,2453.774
257,0.426517,2406.016
258,0.428183,2353.713
259,0.429833,2310.276
260,0.4315,2310.276
261,0.433167,2267.435
262,0.434833,2225.786
263,0.4365,2190.471
264,0.4382,2190.471
265,0.439833,2155.677
266,0.4415,2121.553
267,0.443167,2121.553
268,0.444833,2088.845
269,0.4465,2059.415
270,0.448167,2028.868
271,0.449833,2028.868
272,0.4515,1999.81
273,0.453167,1969.933
274,0.454833,1939.759
275,0.4565,1939.759
276,0.458167,1915.544
277,0.45985,1890.51
278,0.4615,1867.041
279,0.463167,1867.041
280,0.464833,1845.285
281,0.4665,1821.741
282,0.468167,1821.741
283,0.469833,1801.103
284,0.4715,1780.242
285,0.473167,1757.815
286,0.474833,1757.815
287,0.4765,1737.475
288,0.478167,1718.923
289,0.479833,1702.309
290,0.4815,1702.309
291,0.483167,1687.109
292,0.484817,1671.463
293,0.486483,1654.476
294,0.48815,1654.476
295,0.489817,1635.477
296,0.491483,1619.905
297,0.49315,1619.905
298,0.494817,1603.812
299,0.49655,1592.264
300,0.49815,1581.311
301,0.499817,1581.311
302,0.501517,1568.198
303,0.50315,1556.948
304,0.504817,1541.674
305,0.506483,1541.674
306,0.50815,1530.796
307,0.50985,1519.471
308,0.511483,1507.998
309,0.5131829999999999,1507.998
310,0.514817,1499.802
311,0.516483,1488.626
312,0.51815,1478.344
313,0.519817,1478.344
314,0.521483,1467.243
315,0.52315,1455.918
316,0.524817,1455.918
317,0.526483,1445.711
318,0.52815,1436.695
319,0.529917,1428.425
320,0.531483,1428.425
321,0.53315,1420.006
322,0.534817,1410.991
323,0.536483,1402.721
324,0.53815,1402.721
325,0.539817,1398.474
326,0.541483,1391.619
327,0.543133,1388.49
328,0.544817,1388.49
329,0.5464830000000001,1382.679
330,0.548133,1372.546
331,0.5498,1372.546
332,0.551467,1366.66
333,0.553133,1357.57
334,0.5548,1351.014
335,0.556467,1351.014
336,0.558133,1348.108
337,0.5598,1345.202
338,0.561467,1339.242
339,0.563133,1339.242
340,0.5648,1332.76
341,0.5664670000000001,1328.215
342,0.568133,1323.149
343,0.5698,1323.149
344,0.5714669999999999,1319.572
345,0.573133,1317.486
346,0.5748,1308.993
347,0.576467,1308.993
348,0.578167,1300.424
349,0.579833,1299.009
350,0.581467,1299.009
351,0.583133,1294.24
352,0.5848,1292.899
353,0.586467,1289.472
354,0.588133,1289.472
355,0.5898,1281.798
356,0.591467,1279.786
357,0.593133,1276.21
358,0.5948,1276.21
359,0.596467,1274.124
360,0.598133,1269.951
361,0.5998,1266.226
362,0.601467,1266.226
363,0.603133,1264.885
364,0.604783,1261.756
365,0.60645,1261.756
366,0.608117,1258.999
367,0.609783,1253.784
368,0.61145,1250.207
369,0.613117,1250.207
370,0.6148169999999999,1248.345
371,0.6164500000000001,1247.823
372,0.618117,1245.961
373,0.619783,1245.961
374,0.6214499999999999,1241.416
375,0.623117,1238.137
376,0.624783,1237.914
377,0.62645,1237.914
378,0.628117,1239.031
379,0.629783,1236.498
380,0.63145,1234.785
381,0.633117,1234.785
382,0.634783,1232.177
383,0.63645,1228.899
384,0.638117,1228.899
385,0.639783,1230.24
386,0.64145,1228.526
387,0.643117,1224.875
388,0.644783,1224.875
389,0.64645,1221.895
390,0.648217,1218.021
391,0.649783,1214.445
392,0.65145,1214.445
393,0.6531169999999999,1214.966
394,0.654783,1216.158
395,0.65645,1214.147
396,0.65815,1214.147
397,0.659783,1216.084
398,0.66145,1214.296
399,0.663117,1214.296
400,0.664783,1212.359
401,0.6664330000000001,1213.7
402,0.6681,1210.347
403,0.669767,1210.347
404,0.6714329999999999,1209.453
405,0.6731,1207.665
406,0.674767,1207.516
407,0.676433,1207.516
408,0.6781,1210.645
409,0.679767,1208.261
410,0.681433,1205.951
411,0.6831,1205.951
412,0.684767,1202.822
413,0.686433,1198.724
414,0.688117,1199.767
415,0.689767,1199.767
416,0.691433,1199.469
417,0.6931,1201.257
418,0.694767,1201.257
419,0.696433,1200.959
420,0.6981000000000001,1199.394
421,0.699767,1199.171
422,0.701433,1199.171
423,0.7030999999999999,1195.967
424,0.704767,1196.191
425,0.706433,1194.775
426,0.7081,1194.775
427,0.709767,1192.018
428,0.711433,1192.614
429,0.7131,1192.987
430,0.714767,1192.987
431,0.716433,1194.924
432,0.7181,1196.787
433,0.719767,1196.787
434,0.721417,1193.509
435,0.723083,1192.167
436,0.724733,1190.379
437,0.7264,1190.379
438,0.728067,1192.391
439,0.729733,1193.956
440,0.7314000000000001,1194.924
441,0.733067,1194.924
442,0.734733,1193.956
443,0.7364000000000001,1189.634
444,0.738067,1191.646
445,0.739733,1191.646
446,0.7413999999999999,1187.772
447,0.743067,1186.281
448,0.744733,1186.281
449,0.7464,1185.834
450,0.748067,1182.929
451,0.749733,1181.737
452,0.7514,1181.737
453,0.753067,1182.109
454,0.754733,1183.525
455,0.7564,1182.929
456,0.758067,1182.929
457,0.759733,1183.003
458,0.7614,1182.929
459,0.7630670000000001,1181.96
460,0.764733,1181.96
461,0.7665,1183.003
462,0.7680670000000001,1184.866
463,0.769733,1185.611
464,0.7714,1185.611
465,0.7730669999999999,1185.015
466,0.774733,1181.811
467,0.7764,1181.811
468,0.778067,1179.65
469,0.779733,1179.948
470,0.7814,1182.184
471,0.783067,1182.184
472,0.784733,1183.748
473,0.7863830000000001,1184.493
474,0.78805,1182.184
475,0.789717,1182.184
476,0.7913829999999999,1177.639
477,0.79305,1177.341
478,0.794717,1176.968
479,0.796383,1176.968
480,0.798133,1178.086
481,0.799717,1180.097
482,0.801383,1180.097
483,0.80305,1178.756
484,0.804717,1178.235
485,0.806383,1173.913
486,0.80805,1173.913
487,0.809717,1171.38
488,0.811383,1171.008
489,0.8130500000000001,1171.008
490,0.814717,1171.008
491,0.816383,1171.38
492,0.8180500000000001,1172.945
493,0.819717,1175.18
494,0.821383,1175.18
495,0.8230499999999999,1176.298
496,0.824717,1179.203
497,0.826383,1179.874
498,0.82805,1179.874
499,0.829717,1179.203
500,0.831383,1175.031
501,0.83305,1175.031
502,0.834717,1174.807
503,0.836383,1172.796
504,0.83805,1173.69
505,0.839717,1173.69
506,0.841383,1177.117
507,0.84305,1176.521
508,0.8447,1176.521
509,0.846367,1176.521
510,0.848033,1174.36
511,0.8497,1172.796
512,0.85145,1170.859
513,0.853033,1170.859
514,0.8547,1171.827
515,0.856367,1170.784
516,0.858033,1170.784
517,0.8597,1170.71
518,0.861383,1173.317
519,0.863067,1174.733
520,0.8647,1174.733
521,0.866367,1173.913
522,0.8680330000000001,1173.168
523,0.8697,1173.392
524,0.871367,1173.392
525,0.8730329999999999,1174.584
526,0.8747,1177.49
527,0.876367,1176.596
528,0.878033,1176.596
529,0.8797,1176.298
530,0.881367,1172.572
531,0.883033,1172.274
532,0.8848,1172.274
533,0.886367,1174.957
534,0.888033,1174.137
535,0.8897,1174.137
536,0.891367,1175.776
537,0.893033,1174.286
538,0.8947000000000001,1175.925
539,0.896367,1175.925
540,0.898033,1177.341
541,0.8997000000000001,1176.596
542,0.901367,1179.352
543,0.903033,1179.352
544,0.9046999999999999,1176.596
545,0.90635,1174.882
546,0.908017,1172.051
547,0.909683,1172.051
548,0.91135,1171.306
549,0.913017,1174.286
550,0.914683,1174.286
551,0.91635,1172.274
552,0.918017,1173.615
553,0.919683,1173.243
554,0.92135,1173.243
555,0.923017,1169.145
556,0.924683,1172.125
557,0.92635,1172.721
558,0.928017,1172.721
559,0.929683,1173.317
560,0.9313669999999999,1175.776
561,0.93305,1174.957
562,0.934683,1174.957
563,0.93635,1174.435
564,0.938017,1171.38
565,0.939683,1171.38
566,0.94135,1169.369
567,0.943017,1168.996
568,0.9446830000000001,1170.784
569,0.94635,1170.784
570,0.948067,1169.741
571,0.9496830000000001,1171.082
572,0.95135,1170.784
573,0.953017,1170.784
574,0.9546829999999999,1170.337
575,0.95635,1170.635
576,0.958017,1170.71
577,0.959683,1170.71
578,0.96135,1171.008
579,0.963017,1170.188
580,0.964683,1171.455
581,0.966333,1171.455
582,0.968,1171.604
583,0.9697170000000001,1172.796
584,0.971333,1172.796
585,0.973,1171.753
586,0.974667,1169.741
587,0.976333,1168.624
588,0.978,1168.624
589,0.979667,1165.569
590,0.981333,1167.506
591,0.983,1168.996
592,0.984667,1168.996
593,0.986333,1170.114
594,0.988,1172.051
595,0.989667,1171.902
596,0.991333,1171.902
597,0.993,1173.243
598,0.994667,1171.306
599,0.996333,1171.306
600,0.998,1169.22
601,0.999667,1168.027
602,1.001333,1166.165
603,1.003033,1166.165
604,1.004667,1164.973
605,1.006333,1168.326
606,1.008,1167.729
607,1.009667,1167.729
608,1.011333,1170.561
609,1.012983,1171.678
610,1.01465,1170.635
611,1.016317,1170.635
612,1.017983,1170.412
613,1.01965,1168.027
614,1.021317,1167.059
615,1.022983,1167.059
616,1.02465,1165.494
617,1.0263,1164.749
618,1.027967,1164.749
619,1.029633,1167.357
620,1.0313,1171.529
621,1.032967,1172.945
622,1.034633,1172.945
623,1.0363,1174.286
624,1.037983,1171.529
625,1.03965,1166.91
626,1.0413,1166.91
627,1.042967,1167.282
628,1.044633,1169.22
629,1.0463,1173.243
630,1.047967,1173.243
631,1.049633,1174.435
632,1.0513,1172.2
633,1.052967,1172.2
634,1.054633,1173.168
635,1.0563,1168.624
636,1.057967,1167.953
637,1.059633,1167.953
638,1.0613,1171.082
639,1.062967,1167.804
640,1.064633,1167.208
641,1.0663,1167.208
642,1.067967,1167.506
643,1.069633,1164.153
644,1.071317,1166.09
645,1.072967,1166.09
646,1.074633,1169.518
647,1.0763,1173.094
648,1.077967,1173.094
649,1.079633,1174.286
650,1.0813,1172.051
651,1.082967,1168.996
652,1.084633,1168.996
653,1.086283,1167.432
654,1.088,1165.941
655,1.089617,1165.494
656,1.091283,1165.494
657,1.09295,1166.09
658,1.094617,1166.09
659,1.096283,1165.569
660,1.09795,1165.569
661,1.099617,1164.749
662,1.101283,1165.643
663,1.10295,1164.004
664,1.104617,1164.004
665,1.106283,1164.526
666,1.10795,1167.655
667,1.109617,1167.655
668,1.111283,1170.188
669,1.11295,1170.635
670,1.114617,1170.635
671,1.116283,1170.635
672,1.11795,1171.306
673,1.119617,1171.38
674,1.121383,1171.306
675,1.12295,1171.306
676,1.124617,1172.87
677,1.126317,1173.615
678,1.12795,1173.019
679,1.129617,1173.019
680,1.131283,1173.243
681,1.13295,1172.647
682,1.134617,1172.647
683,1.136283,1168.773
684,1.13795,1165.792
685,1.139617,1166.165
686,1.141283,1166.165
687,1.14295,1164.973
688,1.144617,1164.898
689,1.146267,1164.973
690,1.147967,1164.973
691,1.14965,1163.259
692,1.151267,1162.216
693,1.152933,1162.887
694,1.1546,1162.887
695,1.156267,1165.494
696,1.157933,1165.643
697,1.1596,1169.145
698,1.161267,1169.145
699,1.162933,1168.102
700,1.1646,1164.898
701,1.166267,1164.898
702,1.167933,1165.643
703,1.1696,1164.526
704,1.171267,1166.984
705,1.172933,1166.984
706,1.1746,1169.145
707,1.176267,1167.059
708,1.177933,1167.953
709,1.1796,1167.953
710,1.181267,1167.506
711,1.182933,1165.494
712,1.1846,1167.059
713,1.186267,1167.059
714,1.187933,1168.475
715,1.1896,1170.859
716,1.191267,1170.859
717,1.192933,1171.678
718,1.1946,1171.231
719,1.196267,1169.667
720,1.197933,1169.667
721,1.1996,1166.09
722,1.201267,1164.749
723,1.20295,1164.749
724,1.204633,1164.749
725,1.206283,1165.718
726,1.207917,1168.698
727,1.209583,1170.859
728,1.21125,1170.859
729,1.21295,1172.423
730,1.214583,1172.87
731,1.21625,1169.443
732,1.217917,1169.443
733,1.219583,1167.506
734,1.22125,1166.239
735,1.223,1166.239
736,1.224583,1162.44
737,1.22625,1165.867
738,1.227917,1166.239
739,1.229583,1166.239
740,1.23125,1166.612
741,1.232917,1167.953
742,1.234583,1165.867
743,1.23625,1165.867
744,1.237917,1168.624
745,1.23965,1170.412
746,1.24125,1170.188
747,1.242917,1170.188
748,1.244583,1169.369
749,1.24625,1166.165
750,1.247917,1166.165
751,1.249583,1163.93
752,1.25125,1165.047
753,1.252917,1166.388
754,1.254583,1166.388
755,1.256367,1166.463
756,1.257917,1167.282
757,1.259583,1167.282
758,1.26125,1167.282
759,1.262917,1168.922
760,1.264583,1169.071
761,1.26625,1166.388
762,1.2679,1166.388
763,1.269567,1164.898
764,1.271233,1161.546
765,1.2729,1161.322
766,1.274567,1161.322
767,1.276233,1163.408
768,1.2779,1163.483
769,1.279567,1163.483
770,1.281233,1166.984
771,1.2829,1167.879
772,1.284567,1168.549
773,1.286233,1168.549
774,1.287917,1169.89
775,1.289667,1170.114
776,1.291233,1173.392
777,1.2929,1173.392
778,1.294567,1172.274
779,1.296233,1173.69
780,1.2979,1171.678
781,1.299567,1171.678
782,1.301233,1167.506
783,1.302883,1167.059
784,1.30455,1167.059
785,1.306217,1163.93
786,1.307883,1163.557
787,1.30955,1168.326
788,1.311217,1168.326
789,1.312883,1172.796
790,1.31455,1173.765
791,1.316217,1172.498
792,1.317883,1172.498
793,1.31955,1168.102
794,1.321217,1164.675
795,1.322883,1163.408
796,1.324567,1163.408
797,1.3262,1164.898
798,1.327867,1167.432
799,1.329533,1167.432
800,1.3312,1166.463
801,1.332867,1166.91
802,1.334533,1166.761
803,1.3362,1166.761
804,1.337867,1163.855
805,1.339533,1165.718
806,1.3412,1165.792
807,1.342867,1165.792
808,1.344533,1167.953
809,1.3462,1170.486
810,1.347867,1171.604
811,1.349533,1171.604
812,1.3512,1172.498
813,1.352867,1169.294
814,1.354533,1168.475
815,1.3562,1168.475
816,1.357983,1166.761
817,1.359533,1165.122
818,1.3612,1165.122
819,1.362867,1167.506
820,1.364533,1165.941
821,1.3662,1164.228
822,1.367867,1164.228
823,1.369533,1165.047
824,1.3712,1166.09
825,1.372867,1167.506
826,1.374633,1167.506
827,1.3762,1168.996
828,1.377867,1169.071
829,1.379533,1165.196
830,1.3812,1165.196
831,1.382867,1164.004
832,1.384517,1163.036
833,1.386183,1163.036
834,1.38785,1164.898
835,1.389517,1168.475
836,1.391183,1167.804
837,1.39285,1167.804
838,1.394517,1167.282
839,1.396183,1163.855
840,1.39785,1162.887
841,1.399517,1162.887
842,1.401183,1166.686
843,1.40285,1171.529
844,1.404517,1173.615
845,1.406183,1173.615
846,1.40785,1171.976
847,1.409517,1168.4
848,1.411183,1165.047
849,1.41285,1165.047
850,1.414517,1164.675
851,1.416183,1164.004
852,1.41785,1164.004
853,1.419517,1166.686
854,1.421183,1166.165
855,1.42285,1166.537
856,1.424517,1166.537
857,1.426183,1166.612
858,1.42785,1163.855
859,1.429517,1162.961
860,1.431217,1162.961
861,1.43285,1162.067
862,1.434517,1161.844
863,1.436183,1164.6
864,1.43785,1164.6
865,1.439517,1166.612
866,1.441183,1167.506
867,1.44285,1167.506
868,1.444517,1166.984
869,1.446167,1163.036
870,1.447833,1163.483
871,1.4495,1163.483
872,1.451167,1164.898
873,1.452833,1168.624
874,1.4545,1170.933
875,1.456167,1170.933
876,1.457833,1168.847
877,1.4595,1169.294
878,1.461167,1166.984
879,1.462833,1166.984
880,1.4645,1166.165
881,1.466167,1166.612
882,1.467833,1167.879
883,1.4695,1167.879
884,1.471167,1171.455
885,1.472833,1173.839
886,1.4745,1173.839
887,1.476183,1176.447
888,1.477833,1176.521
889,1.4795,1174.957
890,1.481167,1174.957
891,1.482833,1174.733
892,1.4845,1175.553
893,1.486167,1172.721
894,1.487833,1172.721
895,1.4895,1172.721
896,1.491167,1171.082
897,1.492933,1168.698
898,1.494517,1168.698
899,1.496167,1171.008
900,1.497833,1168.027
901,1.4995,1168.027
902,1.501167,1169.667
903,1.502833,1171.38
904,1.5045,1170.114
905,1.50615,1170.114
906,1.507817,1173.094
907,1.509517,1172.796
908,1.51115,1172.87
909,1.512817,1172.87
910,1.514483,1174.137
911,1.51615,1172.87
912,1.517817,1171.306
913,1.519483,1171.306
914,1.52115,1167.282
915,1.522817,1163.781
916,1.524483,1163.781
