"ID","sea_time","fid_signal"
1,0,37.8
2,0.001667,37.788
3,0.003333,37.818
4,0.005,37.871
5,0.006667,37.871
6,0.008333,37.835
7,0.010067,37.691
8,0.011667,37.51
9,0.013333,37.51
10,0.015,37.412
11,0.016667,37.436
12,0.018333,37.59
13,0.02,37.59
14,0.021667,37.772
15,0.023333,37.839
16,0.025,37.839
17,0.026783,37.846
18,0.028333,37.853
19,0.03,37.807
20,0.031667,37.807
21,0.033333,37.788
22,0.035033,37.786
23,0.036667,37.777
24,0.038333,37.777
25,0.04,37.821
26,0.041667,37.861
27,0.043333,37.848
28,0.044983,37.848
29,0.04665,37.824
30,0.048333,37.805
31,0.049983,37.805
32,0.05165,37.778
33,0.053333,37.787
34,0.054983,37.795
35,0.05665,37.795
36,0.058317,37.801
37,0.059983,37.821
38,0.06165,37.821
39,0.063317,37.821
40,0.064983,37.843
41,0.06665,37.823
42,0.068317,37.779
43,0.069983,37.779
44,0.07165000000000001,37.751
45,0.07331699999999999,37.745
46,0.07498299999999999,37.751
47,0.07665,37.751
48,0.078317,37.779
49,0.079983,37.815
50,0.08165,37.815
51,0.083317,37.818
52,0.084983,37.839
53,0.08665,37.817
54,0.08831700000000001,37.817
55,0.08998299999999999,37.802
56,0.09165,37.795
57,0.093317,37.759
58,0.094983,37.759
59,0.09665,37.768
60,0.098317,37.747
61,0.099983,37.756
62,0.10165,37.756
63,0.103333,37.794
64,0.104967,37.807
65,0.106633,37.807
66,0.1083,37.825
67,0.109967,37.831
68,0.11165,37.824
69,0.1133,37.824
70,0.114967,37.793
71,0.116633,37.827
72,0.1183,37.818
73,0.119967,37.818
74,0.121633,37.814
75,0.1233,37.842
76,0.124967,37.808
77,0.126633,37.808
78,0.1283,37.784
79,0.129967,37.766
80,0.131633,37.766
81,0.1333,37.739
82,0.134967,37.745
83,0.136633,37.791
84,0.138333,37.791
85,0.139967,37.783
86,0.141633,37.792
87,0.1433,37.795
88,0.14505,37.795
89,0.146633,37.799
90,0.1483,37.825
91,0.149967,37.822
92,0.151633,37.822
93,0.1533,37.809
94,0.154967,37.757
95,0.156633,37.76
96,0.1583,37.76
97,0.159967,37.806
98,0.161617,37.856
99,0.163283,37.856
100,0.16495,37.906
101,0.166617,37.908
102,0.168283,37.88
103,0.16995,37.88
104,0.171617,37.856
105,0.173283,37.841
106,0.17495,37.865
107,0.176667,37.865
108,0.178283,37.876
109,0.17995,37.871
110,0.181617,37.866
111,0.183283,37.866
112,0.18495,37.844
113,0.186617,37.832
114,0.188283,37.832
115,0.18995,37.836
116,0.191617,37.833
117,0.193283,37.83
118,0.19495,37.83
119,0.196617,37.823
120,0.198283,37.817
121,0.19995,37.855
122,0.201617,37.855
123,0.203283,37.917
124,0.20495,38.024
125,0.206617,38.277
126,0.208283,38.277
127,0.20995,38.709
128,0.211617,39.472
129,0.213283,40.779
130,0.21495,40.779
131,0.21665,42.75
132,0.218283,45.639
133,0.21995,45.639
134,0.221617,49.563
135,0.223267,54.647
136,0.224933,60.888
137,0.2266,60.888
138,0.228267,68.265
139,0.23,76.72199999999999
140,0.231583,86.06999999999999
141,0.23325,86.06999999999999
142,0.234917,96.242
143,0.236583,107.005
144,0.23825,118.232
145,0.239917,118.232
146,0.241583,129.766
147,0.24325,141.469
148,0.24495,141.469
149,0.246583,153.343
150,0.24825,165.257
151,0.249917,177.212
152,0.251583,177.212
153,0.25325,189.196
154,0.254917,201.178
155,0.256583,213.23
156,0.25825,213.23
157,0.259917,225.402
158,0.261583,237.647
159,0.263367,250.044
160,0.264917,250.044
161,0.266583,262.647
162,0.26825,275.495
163,0.269917,288.662
164,0.271583,288.662
165,0.27325,302.136
166,0.274917,315.95
167,0.276583,315.95
168,0.27825,330.146
169,0.279917,344.796
170,0.281583,359.96
171,0.283233,359.96
172,0.2849,375.648
173,0.286567,391.863
174,0.288233,408.661
175,0.2899,408.661
176,0.291567,426.05
177,0.293233,444.136
178,0.2949,462.981
179,0.296567,462.981
180,0.298233,482.621
181,0.2999,503.13
182,0.301567,503.13
183,0.303233,524.516
184,0.3049,546.843
185,0.306583,570.191
186,0.308233,570.191
187,0.3099,594.683
188,0.311567,620.484
189,0.313233,647.87
190,0.314933,647.87
191,0.316567,677.264
192,0.318233,709.239
193,0.3199,744.658
194,0.321567,744.658
195,0.323233,784.346
196,0.3249,828.991
197,0.326567,828.991
198,0.328233,878.7190000000001
199,0.3299,932.638
200,0.331567,988.749
201,0.333233,988.749
202,0.3349,1043.82
203,0.336567,1093.879
204,0.338233,1134.796
205,0.3399,1134.796
206,0.341567,1162.951
207,0.343217,1175.897
208,0.344883,1172.593
209,0.34655,1172.593
210,0.348283,1153.524
211,0.349883,1120.393
212,0.35155,1075.707
213,0.353217,1075.707
214,0.354883,1022.388
215,0.35655,963.2859999999999
216,0.358217,963.2859999999999
217,0.359883,901.018
218,0.36155,837.817
219,0.363217,775.408
220,0.364883,775.408
221,0.36655,715.139
222,0.368217,657.936
223,0.369883,604.395
224,0.37155,604.395
225,0.373217,554.86
226,0.374883,509.445
227,0.37655,468.076
228,0.378217,468.076
229,0.379883,430.606
230,0.38165,396.826
231,0.383217,396.826
232,0.384883,366.49
233,0.38655,339.351
234,0.388217,315.101
235,0.3899,315.101
236,0.391567,293.45
237,0.393217,274.066
238,0.394883,256.734
239,0.39655,256.734
240,0.398217,241.257
241,0.399883,227.413
242,0.40155,215.027
243,0.4032,215.027
244,0.404867,203.893
245,0.406533,193.875
246,0.4082,184.811
247,0.409867,184.811
248,0.411533,176.609
249,0.4132,169.197
250,0.414867,169.197
251,0.416533,162.413
252,0.4182,156.27
253,0.419867,150.65
254,0.421533,150.65
255,0.4232,145.47
256,0.424867,140.728
257,0.426533,136.308
258,0.4282,136.308
259,0.429867,132.219
260,0.431533,128.423
261,0.4332,124.872
262,0.434867,124.872
263,0.436533,121.54
264,0.4382,118.42
265,0.439867,118.42
266,0.441533,115.489
267,0.4432,112.73
268,0.444867,110.134
269,0.446533,110.134
270,0.4482,107.653
271,0.449867,105.266
272,0.451533,102.992
273,0.4532,102.992
274,0.4549,100.834
275,0.4566,98.754
276,0.4582,96.80500000000001
277,0.459867,96.80500000000001
278,0.461533,94.91200000000001
279,0.463183,93.08199999999999
280,0.46485,91.345
281,0.4666,91.345
282,0.468183,89.66
283,0.46985,88.09
284,0.471517,88.09
285,0.473183,86.575
286,0.47485,85.101
287,0.476517,83.64700000000001
288,0.478183,83.64700000000001
289,0.47985,82.232
290,0.481517,80.88
291,0.483183,79.584
292,0.48485,79.584
293,0.486517,78.375
294,0.488183,77.18300000000001
295,0.48985,76.01900000000001
296,0.491517,76.01900000000001
297,0.493183,74.908
298,0.49485,73.82299999999999
299,0.496517,73.82299999999999
300,0.498183,72.741
301,0.4999,71.694
302,0.501517,70.696
303,0.503183,70.696
304,0.504867,69.756
305,0.506517,68.842
306,0.5081830000000001,67.97499999999999
307,0.50985,67.97499999999999
308,0.511517,67.12
309,0.5131829999999999,66.259
310,0.51485,65.452
311,0.516517,65.452
312,0.5181829999999999,64.664
313,0.51985,63.894
314,0.5215,63.894
315,0.52315,63.133
316,0.524817,62.391
317,0.526483,61.677
318,0.52815,61.677
319,0.529817,60.981
320,0.5315,60.36
321,0.5331669999999999,59.758
322,0.534867,59.758
323,0.536483,59.164
324,0.53815,58.591
325,0.539817,58.01
326,0.541483,58.01
327,0.54315,57.468
328,0.544817,56.894
329,0.5464830000000001,56.375
330,0.54815,56.375
331,0.549817,55.845
332,0.5514829999999999,55.332
333,0.55315,55.332
334,0.554817,54.865
335,0.5564829999999999,54.376
336,0.55815,53.947
337,0.559817,53.947
338,0.561483,53.502
339,0.56315,53.058
340,0.564817,52.673
341,0.566483,52.673
342,0.56815,52.278
343,0.569817,51.908
344,0.571483,51.58
345,0.57315,51.58
346,0.574817,51.212
347,0.576483,50.838
348,0.5781500000000001,50.838
349,0.579817,50.478
350,0.581483,50.126
351,0.583133,49.8
352,0.584867,49.8
353,0.586467,49.477
354,0.588133,49.174
355,0.5898,48.879
356,0.591467,48.879
357,0.593133,48.611
358,0.5948,48.334
359,0.596467,48.056
360,0.598133,48.056
361,0.5998,47.804
362,0.601567,47.543
363,0.603167,47.302
364,0.6048,47.302
365,0.606467,47.077
366,0.608133,46.851
367,0.6098,46.851
368,0.611467,46.596
369,0.613133,46.389
370,0.6148,46.187
371,0.616467,46.187
372,0.61825,45.989
373,0.6198,45.791
374,0.621467,45.574
375,0.623133,45.574
376,0.6248,45.368
377,0.626467,45.141
378,0.6281330000000001,44.958
379,0.6298,44.958
380,0.631467,44.775
381,0.6331329999999999,44.606
382,0.6348,44.606
383,0.636467,44.468
384,0.638133,44.319
385,0.6398,44.192
386,0.641467,44.192
387,0.643117,44.017
388,0.644783,43.864
389,0.64645,43.719
390,0.6481170000000001,43.719
391,0.649783,43.583
392,0.65145,43.5
393,0.6531169999999999,43.373
394,0.654783,43.373
395,0.65645,43.244
396,0.658117,43.099
397,0.659783,42.95
398,0.66145,42.95
399,0.663117,42.807
400,0.664783,42.696
401,0.66645,42.696
402,0.668117,42.605
403,0.669783,42.482
404,0.67145,42.423
405,0.67315,42.423
406,0.674783,42.345
407,0.6764829999999999,42.253
408,0.678117,42.184
409,0.6798,42.184
410,0.68145,42.088
411,0.683117,41.98
412,0.684783,41.877
413,0.68645,41.877
414,0.688117,41.775
415,0.689783,41.66
416,0.69145,41.66
417,0.693117,41.572
418,0.694783,41.507
419,0.69645,41.463
420,0.698117,41.463
421,0.699783,41.4
422,0.701433,41.346
423,0.703133,41.29
424,0.704767,41.29
425,0.706433,41.192
426,0.7081,41.163
427,0.709767,41.115
428,0.711433,41.115
429,0.7131,41.038
430,0.714767,40.957
431,0.716433,40.957
432,0.7181,40.849
433,0.71985,40.757
434,0.721433,40.691
435,0.7231,40.691
436,0.7247670000000001,40.648
437,0.726433,40.602
438,0.7281,40.556
439,0.7297670000000001,40.556
440,0.731433,40.503
441,0.7331,40.463
442,0.7347669999999999,40.404
443,0.736533,40.404
444,0.7381,40.351
445,0.739767,40.311
446,0.741433,40.282
447,0.7431,40.282
448,0.744767,40.249
449,0.746433,40.182
450,0.7481,40.182
451,0.7498,40.127
452,0.751433,40.067
453,0.753233,40.038
454,0.754767,40.038
455,0.756433,40.042
456,0.7581,40.002
457,0.759767,39.971
458,0.761417,39.971
459,0.763083,39.908
460,0.76475,39.865
461,0.766417,39.855
462,0.768083,39.855
463,0.76975,39.829
464,0.771417,39.81
465,0.773083,39.81
466,0.77475,39.748
467,0.776417,39.687
468,0.778083,39.624
469,0.7797500000000001,39.624
470,0.781417,39.599
471,0.783083,39.588
472,0.7847499999999999,39.563
473,0.786417,39.563
474,0.788083,39.527
475,0.78975,39.483
476,0.791417,39.463
477,0.793083,39.463
478,0.79475,39.472
479,0.796417,39.458
480,0.798083,39.47
481,0.79975,39.47
482,0.801417,39.428
483,0.803083,39.374
484,0.80475,39.374
485,0.8064170000000001,39.369
486,0.808083,39.329
487,0.80975,39.314
488,0.8114170000000001,39.314
489,0.813067,39.308
490,0.814767,39.298
491,0.8164,39.268
492,0.818067,39.268
493,0.819733,39.276
494,0.8214,39.238
495,0.8230499999999999,39.2
496,0.824717,39.2
497,0.826383,39.187
498,0.82805,39.133
499,0.829717,39.133
500,0.831383,39.102
501,0.83305,39.08
502,0.834717,39.055
503,0.836383,39.055
504,0.8381,39.044
505,0.839717,39.063
506,0.841383,39.052
507,0.84305,39.052
508,0.8447170000000001,39.046
509,0.846383,39.028
510,0.84805,38.996
511,0.8497169999999999,38.996
512,0.851383,39.001
513,0.85305,39.022
514,0.8548,39.048
515,0.856383,39.048
516,0.85805,39.018
517,0.859717,38.987
518,0.861383,38.987
519,0.86305,38.931
520,0.864717,38.87
521,0.866383,38.859
522,0.86805,38.859
523,0.869717,38.862
524,0.8715000000000001,38.872
525,0.87305,38.872
526,0.874717,38.872
527,0.876383,38.865
528,0.87805,38.838
529,0.879717,38.821
530,0.881383,38.821
531,0.883033,38.838
532,0.8847,38.836
533,0.886367,38.836
534,0.888033,38.83
535,0.8897,38.812
536,0.8914,38.791
537,0.8931,38.791
538,0.8947000000000001,38.791
539,0.896367,38.789
540,0.898033,38.807
541,0.8997000000000001,38.807
542,0.901367,38.806
543,0.903033,38.764
544,0.9046999999999999,38.732
545,0.906367,38.732
546,0.908033,38.704
547,0.9097,38.685
548,0.911367,38.685
549,0.913033,38.723
550,0.9147,38.75
551,0.916367,38.745
552,0.918033,38.745
553,0.9197,38.745
554,0.921367,38.733
555,0.923033,38.726
556,0.9247,38.726
557,0.9263670000000001,38.707
558,0.928033,38.687
559,0.9297,38.648
560,0.9313669999999999,38.648
561,0.933033,38.619
562,0.9347,38.606
563,0.9363669999999999,38.592
564,0.938033,38.592
565,0.939683,38.59
566,0.94135,38.61
567,0.943017,38.61
568,0.9446830000000001,38.616
569,0.94635,38.606
570,0.948017,38.605
571,0.9496830000000001,38.605
572,0.95135,38.578
573,0.953017,38.601
574,0.9546829999999999,38.642
575,0.95645,38.642
576,0.958017,38.628
577,0.959683,38.623
578,0.96135,38.584
579,0.963017,38.584
580,0.964683,38.552
581,0.96635,38.55
582,0.968017,38.55
583,0.969683,38.552
584,0.97135,38.553
585,0.97305,38.552
586,0.974683,38.552
587,0.9763500000000001,38.561
588,0.978017,38.557
589,0.979683,38.527
590,0.9813499999999999,38.527
591,0.983017,38.498
592,0.984683,38.47
593,0.9863499999999999,38.444
594,0.988017,38.444
595,0.9898,38.47
596,0.99135,38.466
597,0.993017,38.472
598,0.994683,38.472
599,0.99635,38.493
600,0.998017,38.469
601,0.999683,38.469
602,1.001333,38.496
603,1.003,38.515
604,1.004667,38.511
605,1.006333,38.511
606,1.008,38.517
607,1.009667,38.491
608,1.011333,38.465
609,1.013,38.465
610,1.014667,38.435
611,1.016333,38.423
612,1.018,38.42
613,1.019667,38.42
614,1.021333,38.414
615,1.023,38.446
616,1.024667,38.446
617,1.02635,38.451
618,1.02805,38.443
619,1.029667,38.443
620,1.031333,38.443
621,1.033,38.401
622,1.034667,38.389
623,1.036333,38.37
624,1.038,38.37
625,1.039667,38.333
626,1.041333,38.347
627,1.043,38.381
628,1.044667,38.381
629,1.046333,38.395
630,1.048,38.459
631,1.049667,38.486
632,1.051333,38.486
633,1.053,38.461
634,1.054667,38.504
635,1.056333,38.504
636,1.058,38.471
637,1.059667,38.426
638,1.061333,38.42
639,1.062983,38.42
640,1.06465,38.385
641,1.066317,38.401
642,1.067983,38.412
643,1.06965,38.412
644,1.071317,38.411
645,1.072983,38.405
646,1.074733,38.368
647,1.076317,38.368
648,1.077983,38.335
649,1.07965,38.306
650,1.081317,38.306
651,1.083,38.282
652,1.08465,38.275
653,1.086317,38.275
654,1.087983,38.275
655,1.08965,38.294
656,1.091383,38.328
657,1.092983,38.353
658,1.09465,38.353
659,1.096317,38.382
660,1.097983,38.366
661,1.0997,38.318
662,1.101333,38.318
663,1.102983,38.286
664,1.104633,38.276
665,1.1063,38.276
666,1.108083,38.268
667,1.109633,38.309
668,1.1113,38.309
669,1.112967,38.309
670,1.114633,38.287
671,1.1163,38.273
672,1.117967,38.262
673,1.119633,38.262
674,1.1213,38.282
675,1.12295,38.311
676,1.124617,38.325
677,1.126283,38.325
678,1.12795,38.319
679,1.129617,38.304
680,1.131283,38.275
681,1.13295,38.275
682,1.134617,38.307
683,1.136283,38.311
684,1.13795,38.311
685,1.139617,38.333
686,1.141283,38.353
687,1.14295,38.316
688,1.144617,38.316
689,1.146283,38.295
690,1.14795,38.3
691,1.149617,38.278
692,1.151283,38.278
693,1.15295,38.27
694,1.154617,38.26
695,1.156283,38.233
696,1.15795,38.233
697,1.159617,38.227
698,1.161283,38.242
699,1.163,38.271
700,1.164617,38.271
701,1.166283,38.255
702,1.16795,38.28
703,1.169617,38.28
704,1.1713,38.281
705,1.17295,38.258
706,1.174617,38.288
707,1.176283,38.288
708,1.17795,38.271
709,1.179617,38.257
710,1.181267,38.248
711,1.182933,38.248
712,1.1846,38.255
713,1.186267,38.281
714,1.187933,38.284
715,1.1896,38.284
716,1.191267,38.286
717,1.193017,38.252
718,1.1946,38.252
719,1.196267,38.24
720,1.197933,38.237
721,1.1996,38.21
722,1.201267,38.21
723,1.202933,38.178
724,1.2046,38.15
725,1.206267,38.153
726,1.207933,38.153
727,1.2096,38.181
728,1.211267,38.227
729,1.212933,38.212
730,1.2146,38.212
731,1.216267,38.216
732,1.217933,38.25
733,1.2196,38.25
734,1.221267,38.27
735,1.222933,38.316
736,1.2246,38.346
737,1.226367,38.346
738,1.227933,38.336
739,1.2296,38.328
740,1.231267,38.306
741,1.232933,38.306
742,1.2346,38.273
743,1.236267,38.262
744,1.237933,38.238
745,1.2396,38.238
746,1.2413,38.221
747,1.242917,38.221
748,1.244583,38.226
749,1.24625,38.226
750,1.247917,38.225
751,1.249583,38.234
752,1.25125,38.234
753,1.252917,38.231
754,1.254583,38.209
755,1.25625,38.21
756,1.257933,38.21
757,1.259583,38.211
758,1.26125,38.215
759,1.262917,38.201
760,1.264583,38.201
761,1.266283,38.178
762,1.267917,38.151
763,1.269583,38.126
764,1.27125,38.126
765,1.272917,38.12
766,1.274583,38.116
767,1.27625,38.116
768,1.277917,38.129
769,1.279583,38.124
770,1.28125,38.142
771,1.282917,38.142
772,1.284583,38.174
773,1.28625,38.206
774,1.287917,38.23
775,1.289583,38.23
776,1.29125,38.21
777,1.292917,38.167
778,1.294583,38.121
779,1.29625,38.121
780,1.2979,38.121
781,1.299583,38.157
782,1.301233,38.157
783,1.3029,38.187
784,1.304567,38.211
785,1.30625,38.218
786,1.30795,38.218
787,1.309567,38.201
788,1.3113,38.198
789,1.3129,38.201
790,1.314567,38.201
791,1.316233,38.188
792,1.3179,38.152
793,1.319567,38.125
794,1.321233,38.125
795,1.3229,38.096
796,1.324567,38.102
797,1.326233,38.147
798,1.3279,38.147
799,1.329567,38.19
800,1.331233,38.21
801,1.3329,38.21
802,1.334567,38.184
803,1.336233,38.16
804,1.3379,38.116
805,1.339567,38.116
806,1.341233,38.114
807,1.3429,38.129
808,1.344667,38.125
809,1.346233,38.125
810,1.3479,38.133
811,1.349567,38.122
812,1.351233,38.111
813,1.3529,38.111
814,1.354583,38.116
815,1.356233,38.127
816,1.3579,38.127
817,1.359567,38.145
818,1.361233,38.16
819,1.362883,38.163
820,1.36455,38.163
821,1.366217,38.16
822,1.367883,38.119
823,1.36955,38.096
824,1.371217,38.096
825,1.372883,38.075
826,1.37455,38.061
827,1.376217,38.071
828,1.377883,38.071
829,1.37955,38.078
830,1.381217,38.087
831,1.3829,38.093
832,1.38455,38.093
833,1.386217,38.087
834,1.387883,38.093
835,1.38955,38.093
836,1.391217,38.078
837,1.392883,38.076
838,1.39455,38.096
839,1.3962,38.096
840,1.397867,38.111
841,1.399533,38.112
842,1.4012,38.103
843,1.402867,38.103
844,1.404533,38.105
845,1.4062,38.093
846,1.407867,38.1
847,1.409533,38.1
848,1.4112,38.114
849,1.412867,38.091
850,1.414533,38.091
851,1.4162,38.094
852,1.417867,38.122
853,1.419533,38.131
854,1.4212,38.131
855,1.42285,38.149
856,1.424517,38.128
857,1.426183,38.118
858,1.42785,38.118
859,1.4296,38.089
860,1.431183,38.081
861,1.432867,38.069
862,1.43455,38.069
863,1.436183,38.043
864,1.43785,38.058
865,1.439517,38.069
866,1.441183,38.069
867,1.44285,38.113
868,1.444517,38.132
869,1.446183,38.132
870,1.44785,38.143
871,1.449517,38.123
872,1.451183,38.086
873,1.45285,38.086
874,1.454517,38.073
875,1.456233,38.056
876,1.45785,38.054
877,1.459517,38.054
878,1.461183,38.086
879,1.462967,38.103
880,1.464517,38.097
881,1.466183,38.097
882,1.46785,38.077
883,1.469517,38.046
884,1.471183,38.046
885,1.47285,38.02
886,1.474517,38.03
887,1.476183,38.055
888,1.47785,38.055
889,1.479517,38.054
890,1.481183,38.058
891,1.482833,38.087
892,1.4845,38.087
893,1.486167,38.089
894,1.487833,38.123
895,1.4895,38.134
896,1.491167,38.134
897,1.492833,38.096
898,1.4945,38.115
899,1.496167,38.115
900,1.497833,38.082
901,1.4995,38.074
902,1.501167,38.07
903,1.502833,38.07
904,1.5045,38.042
905,1.506167,38.037
906,1.507833,38.058
907,1.5095,38.058
908,1.511167,38.074
909,1.512833,38.08
910,1.5145,38.096
911,1.516167,38.096
912,1.517833,38.062
913,1.519517,38.056
914,1.521167,38.035
915,1.522833,38.035
916,1.5245,37.991
917,1.526167,38.003
918,1.527867,38.003
919,1.5295,38.018
920,1.531167,38.043
921,1.532833,38.076
922,1.5345,38.076
923,1.536167,38.106
924,1.537833,38.085
925,1.5395,38.081
926,1.54115,38.081
927,1.542817,38.087
928,1.544483,38.074
929,1.54615,38.059
930,1.547833,38.059
931,1.549483,38.037
932,1.55115,38.024
933,1.552817,38.024
934,1.554483,38.034
935,1.55615,38.057
936,1.557817,38.112
937,1.559483,38.112
938,1.56115,38.148
939,1.562817,38.131
940,1.564483,38.109
941,1.56615,38.109
942,1.567817,38.07
943,1.569483,38.067
944,1.57115,38.063
945,1.572817,38.063
946,1.574483,38.088
947,1.57615,38.091
948,1.577817,38.065
949,1.579483,38.065
950,1.58125,38.058
951,1.582817,38.046
952,1.584483,38.046
953,1.58615,38.017
954,1.587817,37.993
955,1.589483,38.008
956,1.59115,38.008
957,1.592817,38.005
958,1.594483,38.02
959,1.59615,38.04
960,1.597817,38.04
961,1.599483,38.031
962,1.601133,38.03
963,1.602833,38.041
964,1.604517,38.041
965,1.606217,38.062
966,1.6078,38.061
967,1.609467,38.061
968,1.611133,38.061
969,1.6128,38.053
970,1.614467,38.033
971,1.616133,38.033
972,1.6178,38.011
973,1.619467,38.016
974,1.621133,38.027
975,1.6228,38.027
976,1.624467,38.024
977,1.626133,38.029
978,1.6278,38.04
979,1.629467,38.04
980,1.631133,38.061
981,1.6328,38.058
982,1.634467,38.074
983,1.636133,38.074
984,1.6378,38.087
985,1.639467,38.091
986,1.641133,38.091
987,1.6428,38.127
988,1.644467,38.128
989,1.646133,38.099
990,1.6478,38.099
991,1.649467,38.087
992,1.651133,38.047
993,1.6528,38.026
994,1.654467,38.026
995,1.656133,38.002
996,1.6578,38.004
997,1.659467,38.035
998,1.661133,38.035
