"ID","sea_time","fid_signal"
1,0,1163.781
2,0.001667,1162.812
3,0.003333,1162.887
4,0.005,1162.887
5,0.006667,1164.6
6,0.008333,1166.612
7,0.01,1167.506
8,0.011667,1167.506
9,0.013333,1167.133
10,0.015,1166.314
11,0.016667,1166.388
12,0.018333,1166.388
13,0.02,1164.6
14,0.021667,1166.314
15,0.023333,1165.494
16,0.025,1165.494
17,0.026667,1162.216
18,0.028333,1164.377
19,0.03,1162.738
20,0.031667,1162.738
21,0.033333,1164.153
22,0.035,1166.91
23,0.0367,1166.91
24,0.038317,1165.42
25,0.039983,1162.291
26,0.04165,1159.385
27,0.043317,1159.385
28,0.044983,1156.926
29,0.0467,1156.554
30,0.048317,1158.118
31,0.049983,1158.118
32,0.05165,1160.13
33,0.053317,1163.334
34,0.054983,1165.42
35,0.05665,1165.42
36,0.0583,1167.729
37,0.059967,1166.016
38,0.061633,1166.016
39,0.0633,1165.569
40,0.065,1164.675
41,0.066633,1165.494
42,0.0683,1165.494
43,0.069967,1166.761
44,0.071633,1163.93
45,0.0733,1161.396
46,0.07496700000000001,1161.396
47,0.07663300000000001,1162.812
48,0.07829999999999999,1163.557
49,0.080067,1164.526
50,0.081633,1164.526
51,0.083317,1165.42
52,0.084967,1163.93
53,0.086633,1165.196
54,0.0883,1165.196
55,0.08996700000000001,1166.686
56,0.09163300000000001,1170.486
57,0.09329999999999999,1170.486
58,0.094967,1171.678
59,0.096633,1171.38
60,0.0983,1172.87
61,0.099967,1172.87
62,0.101633,1173.392
63,0.1033,1172.274
64,0.104967,1170.263
65,0.106633,1170.263
66,0.1083,1166.612
67,0.109967,1162.738
68,0.111633,1161.396
69,0.1133,1161.396
70,0.114967,1161.546
71,0.116633,1162.887
72,0.118283,1162.887
73,0.11995,1163.259
74,0.121617,1162.44
75,0.123283,1162.812
76,0.12495,1162.812
77,0.126617,1163.11
78,0.128283,1161.769
79,0.129967,1162.067
80,0.131617,1162.067
81,0.133283,1161.173
82,0.13495,1159.683
83,0.13665,1161.099
84,0.138283,1161.099
85,0.13995,1160.949
86,0.141617,1163.781
87,0.143283,1163.781
88,0.14495,1167.282
89,0.146617,1168.027
90,0.148283,1169.145
91,0.14995,1169.145
92,0.151617,1167.208
93,0.153283,1165.792
94,0.15495,1165.047
95,0.156617,1165.047
96,0.158283,1165.569
97,0.15995,1166.016
98,0.161617,1167.059
99,0.163283,1167.059
100,0.165,1168.475
101,0.166617,1170.561
102,0.168283,1169.965
103,0.16995,1169.965
104,0.171617,1168.698
105,0.173283,1169.071
106,0.17495,1169.071
107,0.176617,1166.09
108,0.178267,1166.388
109,0.179933,1164.749
110,0.1816,1164.749
111,0.183267,1162.961
112,0.184933,1161.396
113,0.1866,1162.216
114,0.188267,1162.216
115,0.189933,1162.589
116,0.1916,1162.663
117,0.193267,1164.377
118,0.194933,1164.377
119,0.1966,1163.483
120,0.198383,1163.185
121,0.199933,1163.185
122,0.2016,1165.345
123,0.203267,1164.973
124,0.204933,1165.196
125,0.2066,1165.196
126,0.208267,1165.569
127,0.209933,1162.44
128,0.211633,1162.812
129,0.213267,1162.812
130,0.214967,1163.259
131,0.2166,1164.898
132,0.218267,1165.42
133,0.219933,1165.42
134,0.2216,1165.867
135,0.223267,1164.675
136,0.224933,1161.993
137,0.2266,1161.993
138,0.228267,1164.153
139,0.229933,1164.153
140,0.2316,1164.153
141,0.233267,1164.228
142,0.234933,1164.973
143,0.2366,1164.228
144,0.23825,1164.228
145,0.239917,1166.537
146,0.241583,1167.208
147,0.24325,1165.941
148,0.244917,1165.941
149,0.246583,1166.686
150,0.24825,1163.706
151,0.249917,1162.589
152,0.251583,1162.589
153,0.25325,1163.185
154,0.254917,1160.651
155,0.256583,1160.651
156,0.25825,1160.726
157,0.259917,1161.769
158,0.261583,1162.216
159,0.26325,1162.216
160,0.264917,1163.855
161,0.266583,1164.377
162,0.26825,1164.377
163,0.269917,1164.377
164,0.271583,1166.314
165,0.27325,1166.835
166,0.274917,1170.188
167,0.276583,1170.188
168,0.27825,1172.572
169,0.279917,1173.466
170,0.281617,1171.678
171,0.283317,1171.678
172,0.284917,1168.773
173,0.286583,1168.177
174,0.288267,1168.177
175,0.289917,1168.177
176,0.291583,1172.721
177,0.29325,1176.819
178,0.294917,1176.819
179,0.296583,1182.705
180,0.298233,1190.826
181,0.299967,1199.842
182,0.301567,1199.842
183,0.303233,1211.241
184,0.3049,1225.024
185,0.306567,1239.404
186,0.308233,1239.404
187,0.3099,1257.881
188,0.311583,1274.124
189,0.313233,1274.124
190,0.3149,1287.833
191,0.31665,1302.51
192,0.318233,1316.741
193,0.3199,1316.741
194,0.321567,1331.344
195,0.323233,1343.936
196,0.3249,1355.484
197,0.326567,1355.484
198,0.328217,1365.691
199,0.329883,1374.93
200,0.33155,1383.722
201,0.333217,1383.722
202,0.334883,1389.608
203,0.33655,1388.565
204,0.338217,1388.565
205,0.339883,1388.565
206,0.34155,1385.659
207,0.343217,1383.275
208,0.344883,1383.275
209,0.34655,1377.687
210,0.348217,1367.182
211,0.349883,1356.08
212,0.35155,1356.08
213,0.353217,1340.21
214,0.354917,1327.246
215,0.356533,1315.251
216,0.3582,1315.251
217,0.359867,1307.577
218,0.361533,1298.115
219,0.3632,1290.441
220,0.364867,1290.441
221,0.366533,1285.151
222,0.3682,1276.583
223,0.369867,1276.583
224,0.371533,1276.359
225,0.3732,1273.751
226,0.374867,1270.995
227,0.376533,1270.995
228,0.378233,1271.665
229,0.379867,1268.163
230,0.381533,1269.951
231,0.3832,1269.951
232,0.384867,1271.144
233,0.386533,1274.943
234,0.3882,1279.19
235,0.389867,1279.19
236,0.391533,1282.916
237,0.3932,1290.217
238,0.394867,1290.217
239,0.396533,1298.711
240,0.3982,1313.165
241,0.399867,1331.866
242,0.401583,1331.866
243,0.4032,1357.347
244,0.404867,1385.584
245,0.406533,1421.198
246,0.4082,1421.198
247,0.409867,1464.486
248,0.411533,1516.715
249,0.4132,1584.739
250,0.414867,1584.739
251,0.416533,1663.119
252,0.41825,1751.557
253,0.41985,1848.564
254,0.421517,1848.564
255,0.4232,1951.456
256,0.4249,2063.438
257,0.426517,2063.438
258,0.428183,2187.118
259,0.42985,2322.57
260,0.431517,2466.068
261,0.433183,2466.068
262,0.434933,2612.919
263,0.436517,2763.942
264,0.438183,2918.243
265,0.43985,2918.243
266,0.441517,3075.302
267,0.443183,3235.34
268,0.44485,3393.74
269,0.446517,3393.74
270,0.448183,3553.107
271,0.44985,3709.271
272,0.451567,3868.863
273,0.453183,3868.863
274,0.45485,4025.772
275,0.456517,4176.572
276,0.458183,4176.572
277,0.45985,4322.156
278,0.461517,4460.439
279,0.463183,4596.188
280,0.46485,4596.188
281,0.46655,4721.209
282,0.468183,4839.748
283,0.46985,4948.676
284,0.471517,4948.676
285,0.473183,5049.184
286,0.47485,5138.74
287,0.4765,5217.493
288,0.478167,5217.493
289,0.479833,5283.207
290,0.4815,5332.455
291,0.483167,5332.455
292,0.484833,5373.731
293,0.486517,5399.51
294,0.488167,5412.4
295,0.489833,5412.4
296,0.4915,5406.291
297,0.493167,5378.053
298,0.494867,5334.243
299,0.4965,5334.243
300,0.498167,5268.678
301,0.499833,5191.341
302,0.5014999999999999,5102.381
303,0.503167,5102.381
304,0.504833,4994.124
305,0.5065,4874.468
306,0.508167,4874.468
307,0.509833,4741.4
308,0.5115,4598.722
309,0.513167,4454.627
310,0.514833,4454.627
311,0.5165,4310.683
312,0.518167,4164.875
313,0.519833,4018.992
314,0.5215,4018.992
315,0.523167,3875.792
316,0.524833,3736.019
317,0.5265,3604.814
318,0.5281670000000001,3604.814
319,0.529833,3481.135
320,0.5315,3365.874
321,0.5331669999999999,3365.874
322,0.534833,3253.296
323,0.536517,3151
324,0.53815,3053.918
325,0.539817,3053.918
326,0.541483,2964.363
327,0.54315,2883.151
328,0.544817,2801.791
329,0.5464830000000001,2801.791
330,0.548167,2728.403
331,0.549817,2660.528
332,0.5514829999999999,2592.281
333,0.553183,2592.281
334,0.554817,2533.495
335,0.5564829999999999,2475.083
336,0.55815,2420.768
337,0.559817,2420.768
338,0.561483,2374.127
339,0.56315,2327.561
340,0.564817,2327.561
341,0.566483,2284.348
342,0.56815,2239.198
343,0.5699,2197.474
344,0.571483,2197.474
345,0.57315,2161.19
346,0.574817,2126.321
347,0.576483,2094.88
348,0.5781500000000001,2094.88
349,0.579817,2063.736
350,0.581483,2030.73
351,0.5831499999999999,1999.885
352,0.584817,1999.885
353,0.586483,1968.965
354,0.58815,1942.739
355,0.589817,1942.739
356,0.591483,1917.332
357,0.59315,1893.193
358,0.594817,1872.852
359,0.596483,1872.852
360,0.598133,1849.309
361,0.5998,1824.498
362,0.601467,1806.17
363,0.603133,1806.17
364,0.6048,1786.053
365,0.606467,1769.289
366,0.608133,1754.537
367,0.6098,1754.537
368,0.611467,1735.538
369,0.613133,1719.445
370,0.6148,1700.446
371,0.616467,1700.446
372,0.618133,1683.235
373,0.619783,1669.228
374,0.6214499999999999,1669.228
375,0.623117,1655.296
376,0.624783,1641.512
377,0.62645,1627.728
378,0.6281330000000001,1627.728
379,0.629783,1613.051
380,0.631483,1597.33
381,0.633117,1586.676
382,0.634783,1586.676
383,0.63645,1576.096
384,0.638117,1566.336
385,0.639783,1553.521
386,0.64145,1553.521
387,0.643117,1542.494
388,0.644783,1532.063
389,0.64645,1532.063
390,0.6481170000000001,1523.718
391,0.649783,1516.193
392,0.65145,1505.092
393,0.6531169999999999,1505.092
394,0.654817,1495.704
395,0.656433,1484.23
396,0.6581,1477.301
397,0.659767,1477.301
398,0.66145,1471.937
399,0.6631,1465.753
400,0.664767,1456.886
401,0.6664330000000001,1456.886
402,0.6681,1450.032
403,0.669767,1441.985
404,0.67145,1430.586
405,0.6731,1430.586
406,0.674767,1424.253
407,0.676433,1415.61
408,0.6781,1415.61
409,0.679767,1410.32
410,0.681433,1409.128
411,0.6831,1403.838
412,0.684767,1403.838
413,0.686433,1397.207
414,0.6882,1390.8
415,0.689767,1383.051
416,0.691433,1383.051
417,0.6931,1376.495
418,0.694767,1372.248
419,0.696433,1368.672
420,0.6981000000000001,1368.672
421,0.699767,1364.127
422,0.701433,1358.986
423,0.7030999999999999,1358.986
424,0.704767,1354.292
425,0.706433,1348.853
426,0.708117,1345.351
427,0.709817,1345.351
428,0.711433,1341.775
429,0.7131,1336.485
430,0.714767,1330.152
431,0.716433,1330.152
432,0.718083,1325.384
433,0.71975,1321.882
434,0.721417,1320.988
435,0.723083,1320.988
436,0.72475,1320.168
437,0.726417,1317.263
438,0.728083,1317.263
439,0.72975,1315.698
440,0.731417,1312.941
441,0.733083,1310.781
442,0.73475,1310.781
443,0.736417,1306.981
444,0.738083,1303.032
445,0.73975,1296.625
446,0.741417,1296.625
447,0.743083,1293.197
448,0.74475,1290.59
449,0.746417,1287.386
450,0.7480830000000001,1287.386
451,0.74975,1287.46
452,0.751417,1282.394
453,0.7530829999999999,1279.339
454,0.75475,1279.339
455,0.756417,1277.03
456,0.758083,1274.496
457,0.75975,1274.496
458,0.761417,1273.677
459,0.763083,1273.751
460,0.76475,1273.006
461,0.766417,1273.006
462,0.768083,1273.006
463,0.76975,1272.634
464,0.771417,1271.516
465,0.773133,1271.516
466,0.77475,1270.92
467,0.77645,1267.195
468,0.778067,1263.32
469,0.779733,1263.32
470,0.7814,1261.532
471,0.783067,1261.458
472,0.784733,1261.458
473,0.7864,1257.583
474,0.788067,1256.913
475,0.789733,1252.294
476,0.7914,1252.294
477,0.793067,1246.482
478,0.794733,1245.588
479,0.7964,1239.479
480,0.798067,1239.479
481,0.799733,1237.765
482,0.8014,1232.997
483,0.803067,1230.538
484,0.804733,1230.538
485,0.806517,1230.91
486,0.808067,1228.601
487,0.809733,1228.154
488,0.8114,1228.154
489,0.813067,1229.867
490,0.814733,1229.718
491,0.8164,1229.718
492,0.818067,1233.369
493,0.819733,1236.051
494,0.8214,1234.412
495,0.823067,1234.412
496,0.824733,1236.349
497,0.8264,1234.561
498,0.828067,1231.059
499,0.8297330000000001,1231.059
500,0.8314,1230.165
501,0.833067,1223.758
502,0.8347329999999999,1219.437
503,0.8364,1219.437
504,0.83805,1220.778
505,0.839717,1218.021
506,0.841383,1218.021
507,0.84305,1221.15
508,0.8447170000000001,1220.331
509,0.846383,1218.692
510,0.84805,1218.692
511,0.849783,1219.362
512,0.851383,1215.264
513,0.85305,1215.041
514,0.8547169999999999,1215.041
515,0.856383,1214.594
516,0.85805,1212.284
517,0.859717,1212.806
518,0.861383,1212.806
519,0.86305,1210.868
520,0.864717,1208.559
521,0.866383,1209.453
522,0.868067,1209.453
523,0.869717,1208.186
524,0.871383,1206.1
525,0.87305,1206.1
526,0.874717,1206.994
527,0.876383,1206.92
528,0.87805,1206.622
529,0.879717,1206.622
530,0.881383,1207.665
531,0.88305,1204.908
532,0.884717,1202.896
533,0.886383,1202.896
534,0.88805,1203.865
535,0.889717,1205.802
536,0.89145,1205.28
537,0.89305,1205.28
538,0.894717,1202.449
539,0.896383,1200.363
540,0.89805,1200.363
541,0.8997000000000001,1195.446
542,0.901367,1195.148
543,0.903033,1194.179
544,0.9046999999999999,1194.179
545,0.906367,1193.359
546,0.908033,1197.383
547,0.9097,1196.191
548,0.91135,1196.191
549,0.913017,1199.842
550,0.914683,1199.693
551,0.91635,1194.626
552,0.918017,1194.626
553,0.919683,1194.701
554,0.921383,1193.509
555,0.923017,1193.509
556,0.9248,1192.242
557,0.92635,1195.371
558,0.928017,1196.861
559,0.929683,1196.861
560,0.93135,1196.414
561,0.933017,1197.83
562,0.934683,1198.053
563,0.93635,1198.053
564,0.938017,1198.5
565,0.939683,1197.904
566,0.94135,1195.595
567,0.943017,1195.595
568,0.9446830000000001,1195.818
569,0.94635,1193.657
570,0.948017,1194.104
571,0.9496830000000001,1194.104
572,0.95135,1194.254
573,0.953017,1191.944
574,0.9546829999999999,1191.944
575,0.956383,1191.124
576,0.958,1189.485
577,0.959667,1188.74
578,0.961333,1188.74
579,0.963,1187.324
580,0.9646670000000001,1187.176
581,0.966333,1188.219
582,0.968,1188.219
583,0.9696669999999999,1191.05
584,0.971333,1192.54
585,0.973,1191.571
586,0.974667,1191.571
587,0.976333,1188.964
588,0.978,1187.026
589,0.979667,1187.026
590,0.981333,1184.046
591,0.983,1183.972
592,0.984667,1183.972
593,0.986333,1183.972
594,0.988,1185.685
595,0.989667,1185.611
596,0.991333,1183.823
597,0.9930330000000001,1183.823
598,0.994667,1182.929
599,0.996333,1179.352
600,0.998,1179.725
601,0.999667,1179.725
602,1.001333,1180.396
603,1.003,1181.513
604,1.004667,1183.897
605,1.006333,1183.897
606,1.008,1184.046
607,1.009767,1183.897
608,1.011333,1183.897
609,1.013,1185.238
610,1.014667,1183.674
611,1.016317,1185.834
612,1.017983,1185.834
613,1.01965,1186.654
614,1.021317,1183.748
615,1.022983,1182.333
616,1.02465,1182.333
617,1.026317,1180.172
618,1.027983,1180.172
619,1.02965,1181.886
620,1.031317,1181.886
621,1.032983,1182.929
622,1.03465,1182.333
623,1.036317,1182.333
624,1.037983,1181.364
625,1.03965,1180.693
626,1.041317,1180.843
627,1.043083,1180.843
628,1.04465,1181.364
629,1.046317,1180.396
630,1.048017,1182.258
631,1.04965,1182.258
632,1.051317,1182.333
633,1.052983,1183.45
634,1.05465,1187.697
635,1.056317,1187.697
636,1.057983,1186.058
637,1.05965,1184.121
638,1.061317,1182.035
639,1.062983,1182.035
640,1.06465,1178.682
641,1.066317,1174.957
642,1.067983,1174.957
643,1.069683,1175.404
644,1.071317,1175.478
645,1.072983,1174.882
646,1.07465,1174.882
647,1.076317,1179.948
648,1.077983,1181.364
649,1.079633,1182.333
650,1.0813,1182.333
651,1.082967,1183.45
652,1.084633,1180.172
653,1.0863,1179.203
654,1.087967,1179.203
655,1.089633,1179.576
656,1.0913,1178.98
657,1.092967,1178.98
658,1.094633,1180.693
659,1.0963,1181.737
660,1.097967,1179.352
661,1.099633,1179.352
662,1.1013,1179.352
663,1.102967,1178.086
664,1.104633,1177.192
665,1.1063,1177.192
666,1.107967,1178.235
667,1.109633,1176.298
668,1.1113,1172.945
669,1.112967,1172.945
670,1.114633,1174.286
671,1.1163,1174.51
672,1.117983,1173.615
673,1.119633,1173.615
674,1.1213,1176.894
675,1.122967,1174.51
676,1.124633,1174.51
677,1.1263,1173.094
678,1.128017,1176.298
679,1.129633,1175.776
680,1.1313,1175.776
681,1.132983,1177.341
682,1.134617,1177.937
683,1.1363,1175.404
684,1.13795,1175.404
685,1.139617,1173.466
686,1.141283,1171.082
687,1.14295,1172.423
688,1.1447,1172.423
689,1.146283,1174.882
690,1.14795,1175.329
691,1.149617,1175.329
692,1.151283,1176.745
693,1.15295,1178.235
694,1.154617,1178.235
695,1.156283,1178.235
696,1.15795,1180.843
697,1.159617,1179.799
698,1.161383,1176.074
699,1.16295,1176.074
700,1.164617,1173.168
701,1.166283,1172.423
702,1.16795,1174.137
703,1.169617,1174.137
704,1.171283,1174.882
705,1.17295,1177.49
706,1.174617,1177.49
707,1.176283,1177.564
708,1.17795,1175.702
709,1.179617,1175.627
710,1.181283,1175.627
711,1.18295,1176.074
712,1.184617,1173.615
713,1.186283,1174.807
714,1.18795,1174.807
715,1.189617,1175.553
716,1.191283,1176.447
717,1.19295,1177.862
718,1.1946,1177.862
719,1.196267,1177.862
720,1.197933,1176.149
721,1.1996,1171.306
722,1.201267,1171.306
723,1.202917,1172.423
724,1.204583,1171.976
725,1.20625,1171.976
726,1.207917,1171.008
727,1.209583,1168.326
728,1.211267,1164.898
729,1.212917,1164.898
730,1.214583,1162.961
731,1.21625,1161.918
732,1.217917,1166.09
733,1.219583,1166.09
734,1.22125,1166.463
735,1.222917,1168.027
736,1.224583,1171.753
737,1.22625,1171.753
738,1.227917,1171.231
739,1.229583,1173.094
740,1.23125,1173.094
741,1.232917,1174.063
742,1.234583,1172.647
743,1.23625,1172.721
744,1.237917,1172.721
745,1.239583,1171.38
746,1.24125,1169.294
747,1.242917,1169.369
748,1.244583,1169.369
749,1.246317,1171.157
750,1.247917,1172.572
751,1.249583,1172.349
752,1.25125,1172.349
753,1.2529,1174.286
754,1.254583,1171.455
755,1.256233,1170.561
756,1.2579,1170.561
757,1.259567,1172.125
758,1.261233,1171.678
759,1.262917,1171.678
760,1.264567,1173.913
761,1.266233,1173.615
762,1.2679,1171.455
763,1.269567,1171.455
764,1.271233,1167.133
765,1.2729,1166.388
766,1.274567,1165.494
767,1.276233,1165.494
768,1.2779,1164.377
769,1.27965,1168.847
770,1.28125,1168.251
771,1.282917,1168.251
772,1.284567,1168.251
773,1.286233,1169.741
774,1.2879,1169.741
775,1.289567,1165.792
776,1.291233,1168.177
777,1.292917,1169.294
778,1.294567,1169.294
779,1.2963,1169.369
780,1.2979,1171.157
781,1.299567,1170.114
782,1.301233,1170.114
783,1.3029,1171.231
784,1.304567,1172.498
785,1.306233,1172.87
786,1.3079,1172.87
787,1.309567,1171.082
788,1.311233,1168.847
789,1.3129,1168.847
790,1.314567,1166.463
791,1.316217,1164.451
792,1.317883,1164.153
793,1.31955,1164.153
794,1.321217,1164.6
795,1.322883,1166.463
796,1.32455,1166.314
797,1.326217,1166.314
798,1.327883,1167.729
799,1.32955,1170.337
800,1.331217,1170.784
801,1.332883,1170.784
802,1.33455,1173.243
803,1.336217,1173.615
804,1.337883,1172.87
805,1.33955,1172.87
806,1.341217,1173.094
807,1.342883,1173.69
808,1.34455,1173.69
809,1.346217,1175.18
810,1.347883,1173.243
811,1.349583,1171.529
812,1.351217,1171.529
813,1.352883,1171.753
814,1.35455,1172.2
815,1.356217,1175.255
816,1.357883,1175.255
817,1.35955,1176.819
818,1.36125,1174.212
819,1.362883,1172.87
820,1.36455,1172.87
821,1.366217,1170.263
822,1.367883,1170.859
823,1.36955,1170.859
824,1.371217,1174.51
825,1.372883,1174.807
826,1.37455,1172.87
827,1.376217,1172.87
828,1.377867,1170.114
829,1.379533,1165.345
830,1.38125,1163.036
831,1.382867,1163.036
832,1.384533,1166.537
833,1.3862,1167.282
834,1.387867,1170.635
835,1.389533,1170.635
836,1.3912,1172.796
837,1.392867,1174.36
838,1.394533,1176
839,1.3962,1176
840,1.3979,1178.309
841,1.399533,1178.533
842,1.4012,1178.533
843,1.402867,1178.011
844,1.404533,1177.788
845,1.4062,1172.87
846,1.407867,1172.87
847,1.409533,1171.976
848,1.4112,1167.953
849,1.412867,1167.133
850,1.41465,1167.133
851,1.4162,1169.667
852,1.417867,1169.145
853,1.419533,1172.498
854,1.4212,1172.498
855,1.422867,1173.392
856,1.424533,1172.87
857,1.426217,1172.87
858,1.427867,1176.074
859,1.429533,1175.478
860,1.4312,1174.584
861,1.432867,1174.584
862,1.434533,1173.839
863,1.436183,1171.082
864,1.43785,1169.369
865,1.439517,1169.369
866,1.441183,1168.251
867,1.44285,1166.388
868,1.444517,1167.655
869,1.446183,1167.655
870,1.44785,1169.443
871,1.449517,1171.306
872,1.451183,1173.541
873,1.45285,1173.541
874,1.454517,1173.541
875,1.456183,1170.71
876,1.457883,1170.71
877,1.459517,1172.051
878,1.461183,1173.615
879,1.46285,1172.498
880,1.464517,1172.498
881,1.466183,1175.031
882,1.46785,1174.659
883,1.469517,1174.882
884,1.471183,1174.882
885,1.47285,1174.286
886,1.474517,1174.063
887,1.476183,1171.082
888,1.47785,1171.082
889,1.479517,1168.549
890,1.481183,1166.388
891,1.48285,1166.388
892,1.484517,1161.247
893,1.486183,1161.62
894,1.48785,1163.483
895,1.489517,1163.483
896,1.491183,1166.314
897,1.49285,1173.317
898,1.494517,1174.435
899,1.49615,1174.435
900,1.497817,1170.859
901,1.499533,1170.561
902,1.50115,1167.059
903,1.502817,1167.059
904,1.504483,1165.718
905,1.50615,1166.91
906,1.507817,1166.91
907,1.509483,1165.643
908,1.51115,1167.804
909,1.512817,1168.102
910,1.514483,1168.102
911,1.516183,1171.604
912,1.517817,1171.082
913,1.519483,1171.753
914,1.52115,1171.753
915,1.522817,1172.051
916,1.524483,1168.624
917,1.52615,1169.294
918,1.527817,1169.294
919,1.529483,1169.443
920,1.53115,1171.604
921,1.532917,1173.541
922,1.534483,1173.541
