"ID","sea_time","fid_signal"
1,0,1166.239
2,0.001667,1167.729
3,0.003333,1167.729
4,0.005,1168.624
5,0.006667,1171.306
6,0.00835,1171.306
7,0.01,1171.976
8,0.011667,1172.2
9,0.013333,1170.933
10,0.015,1170.933
11,0.016667,1171.082
12,0.018333,1171.455
13,0.02,1169.22
14,0.021667,1169.22
15,0.023383,1163.706
16,0.024983,1161.695
17,0.02665,1161.247
18,0.028317,1161.247
19,0.029983,1163.483
20,0.03165,1167.282
21,0.033317,1167.282
22,0.034983,1168.102
23,0.03665,1167.357
24,0.038317,1165.271
25,0.04,1165.271
26,0.04165,1164.973
27,0.043317,1164.079
28,0.044983,1164.675
29,0.04665,1164.675
30,0.048317,1167.282
31,0.049983,1166.835
32,0.05165,1166.686
33,0.053317,1166.686
34,0.054983,1165.718
35,0.05675,1164.675
36,0.058317,1164.824
37,0.059983,1164.824
38,0.06165,1164.302
39,0.063317,1165.196
40,0.064983,1165.196
41,0.06665,1165.122
42,0.068317,1168.027
43,0.069983,1169.816
44,0.07165000000000001,1169.816
45,0.07331699999999999,1172.349
46,0.07498299999999999,1171.082
47,0.07665,1168.549
48,0.078317,1168.549
49,0.079983,1166.686
50,0.081633,1163.706
51,0.0833,1163.259
52,0.084967,1163.259
53,0.086633,1165.271
54,0.0883,1167.655
55,0.08996700000000001,1167.655
56,0.09163300000000001,1170.337
57,0.09329999999999999,1171.753
58,0.094967,1168.251
59,0.09665,1168.251
60,0.098367,1169.667
61,0.099967,1169.816
62,0.101633,1171.082
63,0.1033,1171.082
64,0.104967,1172.796
65,0.106633,1168.996
66,0.1083,1168.549
67,0.109967,1168.549
68,0.111633,1165.345
69,0.1133,1163.855
70,0.114967,1164.526
71,0.116633,1164.526
72,0.1183,1163.259
73,0.119967,1163.706
74,0.121633,1163.706
75,0.1233,1162.663
76,0.124967,1162.663
77,0.126633,1161.62
78,0.1283,1161.62
79,0.129967,1163.855
80,0.131633,1165.42
81,0.1333,1164.526
82,0.134967,1164.526
83,0.136633,1165.494
84,0.1383,1166.165
85,0.139967,1166.761
86,0.141683,1166.761
87,0.143283,1167.208
88,0.14495,1167.208
89,0.146617,1167.208
90,0.148283,1164.004
91,0.14995,1165.345
92,0.151617,1164.6
93,0.153283,1164.6
94,0.15495,1164.749
95,0.156617,1163.781
96,0.158333,1162.142
97,0.15995,1162.142
98,0.161617,1165.42
99,0.163283,1167.432
100,0.16495,1171.157
101,0.166617,1171.157
102,0.1683,1173.243
103,0.169967,1173.094
104,0.17165,1169.518
105,0.173283,1169.518
106,0.17505,1166.984
107,0.176617,1167.432
108,0.178283,1167.432
109,0.17995,1166.016
110,0.181617,1167.208
111,0.183283,1170.561
112,0.184967,1170.561
113,0.186617,1167.432
114,0.188283,1168.624
115,0.18995,1168.549
116,0.191617,1168.549
117,0.193283,1166.016
118,0.19495,1165.345
119,0.196617,1165.867
120,0.198283,1165.867
121,0.19995,1174.584
122,0.2016,1186.43
123,0.203267,1186.43
124,0.204933,1206.174
125,0.2066,1227.632
126,0.208267,1254.454
127,0.209933,1254.454
128,0.2116,1288.727
129,0.213267,1331.121
130,0.214933,1379.997
131,0.2166,1379.997
132,0.218267,1435.056
133,0.219933,1493.469
134,0.2216,1552.403
135,0.223267,1552.403
136,0.224933,1614.168
137,0.2266,1674.667
138,0.228267,1674.667
139,0.229933,1738.37
140,0.2316,1800.433
141,0.233267,1864.284
142,0.234933,1864.284
143,0.2366,1928.657
144,0.238267,1989.827
145,0.239933,2053.678
146,0.24165,2053.678
147,0.243283,2117.306
148,0.244933,2179.667
149,0.2466,2244.487
150,0.248267,2244.487
151,0.249933,2311.617
152,0.2516,2379.045
153,0.253267,2449.9
154,0.254933,2449.9
155,0.2566,2521.798
156,0.258267,2597.049
157,0.259967,2597.049
158,0.2616,2676.174
159,0.26325,2757.534
160,0.264917,2844.11
161,0.266583,2844.11
162,0.26825,2932.25
163,0.269917,3022.403
164,0.271583,3117.546
165,0.27325,3117.546
166,0.274917,3214.33
167,0.276583,3314.689
168,0.278233,3424.585
169,0.2799,3424.585
170,0.281567,3539.026
171,0.283233,3663.302
172,0.2849,3663.302
173,0.286567,3792.718
174,0.288233,3924.519
175,0.2899,4062.28
176,0.291567,4062.28
177,0.293333,4207.492
178,0.2949,4363.73
179,0.296567,4531.071
180,0.298233,4531.071
181,0.2999,4710.928
182,0.301567,4910.38
183,0.303233,5142.391
184,0.3049,5142.391
185,0.306567,5433.336
186,0.308233,5828.738
187,0.3099,6380.23
188,0.311567,6380.23
189,0.313233,7152.11
190,0.3149,8189.604
191,0.316567,8189.604
192,0.31825,9486.601000000001
193,0.319933,10990.054
194,0.3216,12579.039
195,0.323217,12579.039
196,0.324883,14092.4
197,0.32655,15368.313
198,0.328217,16270.578
199,0.329883,16270.578
200,0.33155,16725.66
201,0.333217,16730.801
202,0.334883,16336.143
203,0.33655,16336.143
204,0.338217,15633.106
205,0.339883,14722.422
206,0.34155,14722.422
207,0.343217,13695.583
208,0.344883,12628.659
209,0.34655,11574.179
210,0.348217,11574.179
211,0.349883,10569.468
212,0.35155,9632.855
213,0.353217,8778.125
214,0.354883,8778.125
215,0.35655,8003.339
216,0.358217,7305.443
217,0.3599,6688.088
218,0.36155,6688.088
219,0.363217,6140.545
220,0.364883,5656.555
221,0.36655,5231.798
222,0.368217,5231.798
223,0.369883,4854.724
224,0.37155,4522.205
225,0.373217,4522.205
226,0.374883,4235.059
227,0.37655,3984.645
228,0.378267,3762.618
229,0.379883,3762.618
230,0.38155,3566.146
231,0.3832,3390.834
232,0.384867,3232.658
233,0.386533,3232.658
234,0.3882,3092.885
235,0.389867,2969.652
236,0.391583,2860.054
237,0.3932,2860.054
238,0.394983,2762.377
239,0.396533,2676.994
240,0.398217,2676.994
241,0.399867,2598.762
242,0.401533,2523.884
243,0.4032,2457.5
244,0.404867,2457.5
245,0.406533,2392.605
246,0.4082,2334.639
247,0.409867,2284.497
248,0.411633,2284.497
249,0.4132,2238.378
250,0.414867,2195.016
251,0.416533,2154.857
252,0.4182,2154.857
253,0.419867,2112.985
254,0.421533,2074.391
255,0.4232,2074.391
256,0.424867,2041.981
257,0.426533,2011.657
258,0.4282,1983.568
259,0.429867,1983.568
260,0.431533,1952.946
261,0.4332,1923.591
262,0.434867,1894.012
263,0.436533,1894.012
264,0.4382,1867.935
265,0.439867,1843.274
266,0.441533,1821.667
267,0.443183,1821.667
268,0.44485,1798.198
269,0.446517,1775.324
270,0.448183,1754.388
271,0.44985,1754.388
272,0.451517,1734.793
273,0.453183,1716.539
274,0.45485,1716.539
275,0.456517,1699.626
276,0.458183,1683.086
277,0.45985,1661.927
278,0.461517,1661.927
279,0.4632,1643.375
280,0.46485,1626.164
281,0.466517,1612.604
282,0.468183,1612.604
283,0.46985,1599.565
284,0.471517,1589.209
285,0.473183,1577.735
286,0.47485,1577.735
287,0.476517,1566.187
288,0.478217,1552.403
289,0.47985,1552.403
290,0.481517,1536.31
291,0.483183,1523.346
292,0.48485,1506.656
293,0.486517,1506.656
294,0.488183,1497.567
295,0.48985,1488.03
296,0.491517,1475.885
297,0.493183,1475.885
298,0.49485,1466.423
299,0.496533,1455.992
300,0.498183,1447.424
301,0.49985,1447.424
302,0.501517,1440.421
303,0.503167,1432.896
304,0.504833,1425.296
305,0.5065,1425.296
306,0.508167,1413.524
307,0.509833,1402.795
308,0.5115,1402.795
309,0.5132330000000001,1393.706
310,0.514833,1385.063
311,0.5165,1380.965
312,0.518167,1380.965
313,0.519833,1379.177
314,0.5215,1374.632
315,0.523167,1369.864
316,0.524833,1369.864
317,0.5265,1362.562
318,0.5281670000000001,1351.833
319,0.529883,1345.053
320,0.5315,1345.053
321,0.5331669999999999,1335.591
322,0.534867,1328.588
323,0.5365,1328.588
324,0.538167,1324.713
325,0.539833,1322.553
326,0.5415,1319.945
327,0.543167,1319.945
328,0.544833,1316.145
329,0.5465,1312.345
330,0.548167,1305.044
331,0.549833,1305.044
332,0.5515,1299.977
333,0.553167,1296.028
334,0.554833,1290.888
335,0.5565,1290.888
336,0.558167,1287.535
337,0.559833,1285.672
338,0.5615,1283.139
339,0.56315,1283.139
340,0.564817,1280.233
341,0.566483,1275.837
342,0.56815,1275.837
343,0.569817,1269.951
344,0.5715170000000001,1267.567
345,0.573133,1262.948
346,0.5748,1262.948
347,0.576467,1261.532
348,0.578133,1259.819
349,0.5798,1254.678
350,0.581467,1254.678
351,0.583133,1252.89
352,0.5848,1251.027
353,0.586467,1250.654
354,0.588133,1250.654
355,0.5898,1249.388
356,0.591467,1247.451
357,0.593133,1247.451
358,0.5948,1243.129
359,0.596467,1237.318
360,0.598133,1236.498
361,0.5998329999999999,1236.498
362,0.601467,1236.349
363,0.603133,1235.455
364,0.6048,1234.561
365,0.606467,1234.561
366,0.608133,1233.22
367,0.6098,1230.165
368,0.611467,1228.824
369,0.613133,1228.824
370,0.6148,1228.228
371,0.616467,1225.323
372,0.618133,1225.323
373,0.6198,1222.715
374,0.6214499999999999,1219.362
375,0.623117,1214.668
376,0.624783,1214.668
377,0.62645,1212.359
378,0.628117,1212.433
379,0.629783,1209.08
380,0.631517,1209.08
381,0.633117,1208.037
382,0.634783,1206.249
383,0.63645,1204.386
384,0.638117,1204.386
385,0.639783,1204.684
386,0.64145,1203.641
387,0.643117,1203.343
388,0.644783,1203.343
389,0.64645,1201.183
390,0.6482329999999999,1200.587
391,0.649783,1200.587
392,0.65145,1201.704
393,0.6531169999999999,1201.481
394,0.654783,1201.853
395,0.65645,1201.853
396,0.658117,1202.896
397,0.659783,1201.108
398,0.661467,1199.842
399,0.663117,1199.842
400,0.664883,1196.712
401,0.66645,1194.924
402,0.668117,1192.242
403,0.669783,1192.242
404,0.67145,1193.21
405,0.673117,1196.265
406,0.674783,1196.265
407,0.676467,1195.818
408,0.678117,1196.265
409,0.679767,1194.477
410,0.68145,1194.477
411,0.6831,1192.018
412,0.684767,1190.826
413,0.686433,1192.614
414,0.6881,1192.614
415,0.689767,1189.858
416,0.691433,1188.144
417,0.6931,1187.176
418,0.694767,1187.176
419,0.696433,1187.25
420,0.6981000000000001,1187.399
421,0.699767,1186.356
422,0.701433,1186.356
423,0.7030999999999999,1184.94
424,0.704767,1182.482
425,0.706433,1182.482
426,0.7081,1182.705
427,0.709767,1185.164
428,0.711433,1185.313
429,0.7131,1185.313
430,0.714767,1184.27
431,0.716433,1182.78
432,0.7181,1180.396
433,0.719767,1180.396
434,0.721433,1180.545
435,0.7231,1179.203
436,0.7247670000000001,1180.619
437,0.726433,1180.619
438,0.7281,1181.066
439,0.7297670000000001,1179.352
440,0.731433,1179.352
441,0.733117,1180.619
442,0.7347669999999999,1181.811
443,0.73645,1183.897
444,0.7381,1183.897
445,0.739767,1187.324
446,0.7414500000000001,1186.281
447,0.743083,1183.897
448,0.74475,1183.897
449,0.746417,1183.376
450,0.7480830000000001,1182.556
451,0.749783,1181.96
452,0.751417,1181.96
453,0.7530829999999999,1180.693
454,0.75475,1178.905
455,0.756417,1178.458
456,0.758083,1178.458
457,0.75975,1179.129
458,0.761417,1180.321
459,0.7631,1180.321
460,0.76475,1177.564
461,0.76645,1176.298
462,0.768083,1176.968
463,0.76975,1176.968
464,0.771417,1175.851
465,0.773083,1178.458
466,0.77475,1177.564
467,0.776417,1177.564
468,0.778083,1175.627
469,0.7797500000000001,1174.807
470,0.781417,1175.255
471,0.78315,1175.255
472,0.7847499999999999,1176.819
473,0.786417,1178.607
474,0.788083,1178.607
475,0.78975,1181.737
476,0.791417,1180.992
477,0.793083,1177.117
478,0.79475,1177.117
479,0.796417,1175.851
480,0.798083,1173.541
481,0.79975,1170.039
482,0.801417,1170.039
483,0.803067,1173.69
484,0.804733,1173.541
485,0.8064,1173.019
486,0.808067,1173.019
487,0.809733,1175.627
488,0.8114,1174.584
489,0.813067,1174.584
490,0.814733,1174.584
491,0.8164670000000001,1174.584
492,0.818067,1175.925
493,0.819733,1175.925
494,0.8214,1172.796
495,0.823067,1170.71
496,0.824733,1168.549
497,0.8264,1168.549
498,0.828067,1165.867
499,0.8297330000000001,1167.432
500,0.8314,1170.933
501,0.833067,1170.933
502,0.8347329999999999,1173.988
503,0.8364,1173.615
504,0.838067,1175.925
505,0.839733,1175.925
506,0.8414,1172.423
507,0.843067,1173.019
508,0.844733,1173.019
509,0.8464,1174.957
510,0.848067,1170.635
511,0.849733,1170.784
512,0.8514,1170.784
513,0.853067,1170.188
514,0.854733,1167.059
515,0.8564000000000001,1171.008
516,0.858067,1171.008
517,0.859733,1171.604
518,0.861367,1170.784
519,0.8630330000000001,1173.765
520,0.8647,1173.765
521,0.866367,1173.765
522,0.868083,1174.584
523,0.8697,1174.584
524,0.871367,1177.043
525,0.8730329999999999,1176.67
526,0.8747,1173.839
527,0.876367,1173.839
528,0.878033,1174.36
529,0.8797,1174.286
530,0.881367,1174.807
531,0.883083,1174.807
532,0.884817,1174.733
533,0.886367,1172.796
534,0.888033,1170.337
535,0.8897,1170.337
536,0.891367,1168.102
537,0.893033,1168.177
538,0.8947000000000001,1170.933
539,0.896367,1170.933
540,0.898033,1171.231
541,0.8997000000000001,1173.019
542,0.901467,1173.019
543,0.903033,1174.286
544,0.9046999999999999,1171.976
545,0.906367,1170.486
546,0.908033,1170.486
547,0.9097,1167.282
548,0.911367,1167.58
549,0.913033,1167.506
550,0.9147,1167.506
551,0.916367,1167.059
552,0.918033,1167.506
553,0.9197,1167.357
554,0.921367,1167.357
555,0.923017,1170.71
556,0.924683,1171.529
557,0.92635,1171.529
558,0.928017,1172.721
559,0.929683,1173.466
560,0.93135,1172.87
561,0.933017,1172.87
562,0.934683,1171.604
563,0.93635,1171.082
564,0.938033,1168.847
565,0.939683,1168.847
566,0.94135,1165.271
567,0.943017,1164.302
568,0.9446830000000001,1167.133
569,0.94635,1167.133
570,0.948017,1170.337
571,0.9496830000000001,1173.541
572,0.951367,1175.106
573,0.953017,1175.106
574,0.954717,1173.765
575,0.95635,1173.094
576,0.958017,1173.094
577,0.959683,1173.839
578,0.96135,1172.498
579,0.963017,1170.188
580,0.964683,1170.188
581,0.96635,1170.486
582,0.968017,1169.89
583,0.969683,1172.87
584,0.97135,1172.87
585,0.973017,1173.392
586,0.974683,1171.604
587,0.9763500000000001,1171.157
588,0.978017,1171.157
589,0.979683,1170.412
590,0.981333,1174.137
591,0.983,1174.137
592,0.984667,1176.149
593,0.986417,1175.18
594,0.988,1176.819
595,0.989667,1176.819
596,0.991333,1172.423
597,0.993,1171.157
598,0.994667,1170.337
599,0.996333,1170.337
600,0.998,1169.816
601,0.999667,1172.647
602,1.001333,1172.423
603,1.003,1172.423
604,1.004667,1174.584
605,1.006333,1172.498
606,1.008,1172.498
607,1.009667,1170.71
608,1.011333,1169.294
609,1.013,1166.165
610,1.014667,1166.165
611,1.016333,1165.494
612,1.018,1167.432
613,1.019767,1166.463
614,1.021333,1166.463
615,1.023,1167.432
616,1.024667,1169.518
617,1.026333,1166.835
618,1.028,1166.835
619,1.029667,1166.537
620,1.031367,1164.824
621,1.033083,1164.079
622,1.034667,1164.079
623,1.036333,1162.887
624,1.038,1164.079
625,1.039667,1164.079
626,1.041333,1166.984
627,1.042983,1168.698
628,1.04465,1169.89
629,1.046317,1169.89
630,1.047983,1170.114
631,1.04965,1169.965
632,1.051317,1170.561
633,1.052983,1170.561
634,1.05465,1174.137
635,1.056317,1173.168
636,1.057983,1171.38
637,1.05965,1171.38
638,1.061317,1168.027
639,1.062983,1166.239
640,1.06465,1166.239
641,1.066317,1168.624
642,1.067983,1171.082
643,1.06965,1171.455
644,1.071317,1171.455
645,1.072983,1168.698
646,1.07465,1166.984
647,1.076317,1165.569
648,1.077983,1165.569
649,1.07965,1165.643
650,1.081317,1166.09
651,1.082983,1167.655
652,1.08465,1167.655
653,1.086317,1168.549
654,1.087983,1168.177
655,1.08965,1170.412
656,1.091317,1170.412
657,1.092983,1167.506
658,1.09465,1166.537
659,1.096317,1166.537
660,1.098,1167.282
661,1.099667,1165.941
662,1.1013,1169.294
663,1.102967,1169.294
664,1.104717,1168.624
665,1.1063,1169.816
666,1.107967,1171.157
667,1.109633,1171.157
668,1.1113,1169.071
669,1.112967,1170.933
670,1.114633,1170.039
671,1.1163,1170.039
672,1.117967,1170.784
673,1.119633,1169.667
674,1.1213,1169.667
675,1.122967,1167.506
676,1.124633,1165.42
677,1.1263,1164.675
678,1.127967,1164.675
679,1.129633,1167.208
680,1.1313,1169.667
681,1.132967,1170.188
682,1.134633,1170.188
683,1.1363,1167.58
684,1.138083,1167.133
685,1.139633,1164.377
686,1.1413,1164.377
687,1.142967,1164.153
688,1.144633,1166.239
689,1.1463,1165.196
690,1.147967,1165.196
691,1.149633,1166.09
692,1.1513,1167.953
693,1.15295,1167.953
694,1.154617,1166.314
695,1.156283,1166.314
696,1.15795,1168.251
697,1.159617,1168.251
698,1.161267,1170.635
699,1.162933,1171.753
700,1.1646,1170.933
701,1.166267,1170.933
702,1.167933,1169.89
703,1.1696,1168.624
704,1.171267,1168.475
705,1.172933,1168.475
706,1.1746,1169.22
707,1.176267,1169.816
708,1.178017,1167.133
709,1.1796,1167.133
710,1.181267,1165.867
711,1.182933,1166.165
712,1.1846,1166.165
713,1.186267,1163.408
714,1.187933,1166.91
715,1.1896,1170.263
716,1.191267,1170.263
717,1.192933,1169.667
718,1.1946,1172.572
719,1.196267,1170.784
720,1.197933,1170.784
721,1.1996,1167.729
722,1.201267,1167.506
723,1.202933,1167.506
724,1.2046,1164.228
725,1.206267,1165.271
726,1.207933,1167.282
727,1.2096,1167.282
728,1.211267,1168.549
729,1.212933,1170.263
730,1.2146,1167.804
731,1.216267,1167.804
732,1.217933,1166.09
733,1.2196,1164.377
734,1.22125,1162.887
735,1.223,1162.887
736,1.224583,1164.6
737,1.22625,1166.016
738,1.227917,1170.561
739,1.229583,1170.561
740,1.23125,1172.498
741,1.232917,1170.933
742,1.234583,1170.933
743,1.23625,1169.443
744,1.237917,1165.271
745,1.239583,1164.079
746,1.24125,1164.079
747,1.242917,1163.855
748,1.2446,1166.016
749,1.246267,1166.239
750,1.247917,1166.239
751,1.249583,1165.569
752,1.25125,1164.973
753,1.252917,1162.365
754,1.254583,1162.365
755,1.25635,1163.557
756,1.257917,1162.812
757,1.259583,1162.812
758,1.26125,1161.993
759,1.262917,1162.291
760,1.264583,1163.557
761,1.26625,1163.557
762,1.267917,1165.867
763,1.269583,1167.282
764,1.27125,1168.698
765,1.272917,1168.698
766,1.274583,1169.965
767,1.27625,1171.38
768,1.277917,1171.455
769,1.279583,1171.455
770,1.281233,1169.22
771,1.2829,1168.251
772,1.284567,1167.655
773,1.286233,1167.655
774,1.2879,1167.133
775,1.289567,1168.773
776,1.291233,1168.773
777,1.2929,1165.122
778,1.294567,1164.6
779,1.296233,1167.655
780,1.2979,1167.655
781,1.299567,1169.592
782,1.301233,1173.094
783,1.3029,1173.69
784,1.304567,1173.69
785,1.306233,1170.486
786,1.3079,1171.008
787,1.309567,1168.922
788,1.311233,1168.922
789,1.3129,1169.145
790,1.314567,1168.922
791,1.316267,1168.922
792,1.3179,1166.612
793,1.319617,1169.071
794,1.321233,1167.282
795,1.3229,1167.282
796,1.324567,1170.039
797,1.326233,1169.443
798,1.3279,1166.984
799,1.329567,1166.984
800,1.331233,1168.773
801,1.3329,1167.432
802,1.334567,1167.506
803,1.336233,1167.506
804,1.3379,1168.773
805,1.339567,1166.835
806,1.34125,1166.835
807,1.3429,1166.835
808,1.34455,1167.133
809,1.346217,1166.09
810,1.347883,1166.09
811,1.34955,1169.369
812,1.351217,1171.157
813,1.352883,1171.008
814,1.35455,1171.008
815,1.356217,1171.604
816,1.357967,1168.624
817,1.35955,1167.432
818,1.361217,1167.432
819,1.362883,1167.133
820,1.36455,1165.494
821,1.366217,1165.271
822,1.367883,1165.271
823,1.36955,1166.984
824,1.371217,1166.463
825,1.372883,1166.463
826,1.37465,1168.549
827,1.376217,1169.071
828,1.377883,1167.58
829,1.37955,1167.58
830,1.381217,1167.953
831,1.382883,1168.698
832,1.38455,1168.027
833,1.386217,1168.027
834,1.387883,1168.624
835,1.38955,1169.667
836,1.391217,1166.463
837,1.392883,1166.463
838,1.39455,1165.643
839,1.396217,1164.824
840,1.3979,1167.58
841,1.3996,1167.58
842,1.401217,1170.784
843,1.402883,1170.933
844,1.404533,1170.933
845,1.4062,1169.741
846,1.407867,1169.741
847,1.409533,1167.357
848,1.4112,1167.357
849,1.412867,1167.655
850,1.414533,1169.667
851,1.4162,1167.729
852,1.417867,1167.729
853,1.419533,1169.22
854,1.4212,1169.071
855,1.422867,1169.592
856,1.424533,1169.592
857,1.4262,1170.039
858,1.427867,1168.177
859,1.429533,1168.177
860,1.4312,1171.827
861,1.432867,1170.561
862,1.434533,1171.678
863,1.4362,1171.678
864,1.437867,1174.212
865,1.439533,1173.094
866,1.4412,1173.839
867,1.44285,1173.839
868,1.444517,1170.784
869,1.446183,1169.965
870,1.44785,1167.58
871,1.449517,1167.58
872,1.451183,1168.624
873,1.45285,1169.741
874,1.454517,1169.741
875,1.456183,1169.518
876,1.45785,1170.412
877,1.459567,1168.922
878,1.4612,1168.922
879,1.462833,1168.4
880,1.464517,1168.549
881,1.466217,1167.059
882,1.467833,1167.059
883,1.4695,1165.643
884,1.471167,1164.749
885,1.472833,1163.334
886,1.4745,1163.334
887,1.47625,1163.855
888,1.477833,1163.259
889,1.4795,1164.6
890,1.481167,1164.6
891,1.482833,1166.686
892,1.4845,1168.102
893,1.486167,1168.102
894,1.487833,1171.082
895,1.4895,1172.498
896,1.491167,1173.392
897,1.492933,1173.392
898,1.4945,1172.572
899,1.496167,1171.902
900,1.497833,1168.847
901,1.4995,1168.847
902,1.501167,1164.675
903,1.502833,1166.91
904,1.5045,1167.357
905,1.506167,1167.357
906,1.507833,1168.549
907,1.509617,1169.667
908,1.511167,1169.667
909,1.512833,1166.91
910,1.5145,1163.259
911,1.516167,1162.514
912,1.517833,1162.514
913,1.5195,1161.918
914,1.52115,1165.494
915,1.522817,1165.718
916,1.524483,1165.718
917,1.52615,1164.824
918,1.527817,1165.792
919,1.529483,1163.259
920,1.53115,1163.259
921,1.532817,1167.804
