"ID","sea_time","fid_signal"
1,0,1173.988
2,0.001667,1175.031
3,0.003333,1174.212
4,0.005,1174.212
5,0.006667,1173.168
6,0.008333,1171.529
7,0.01,1168.847
8,0.011667,1168.847
9,0.013333,1166.016
10,0.015083,1168.847
11,0.016667,1168.847
12,0.018333,1167.729
13,0.02,1166.984
14,0.021667,1167.953
15,0.023333,1167.953
16,0.025,1166.761
17,0.026667,1167.357
18,0.028333,1170.412
19,0.03,1170.412
20,0.031767,1170.337
21,0.033333,1171.306
22,0.034983,1173.168
23,0.03665,1173.168
24,0.038317,1174.212
25,0.039983,1176.447
26,0.04165,1176.447
27,0.043317,1178.756
28,0.044983,1176.447
29,0.04665,1172.945
30,0.048317,1172.945
31,0.049983,1173.615
32,0.05165,1171.529
33,0.053317,1172.125
34,0.054967,1172.125
35,0.056633,1175.478
36,0.058317,1175.106
37,0.06,1175.404
38,0.061633,1175.404
39,0.0633,1176
40,0.064967,1175.553
41,0.066633,1172.572
42,0.0683,1172.572
43,0.069967,1171.529
44,0.071633,1169.816
45,0.0733,1169.816
46,0.07496700000000001,1166.463
47,0.07663300000000001,1166.314
48,0.07829999999999999,1164.228
49,0.08,1164.228
50,0.081633,1163.334
51,0.0833,1165.047
52,0.084967,1167.953
53,0.086633,1167.953
54,0.0883,1170.114
55,0.08996700000000001,1173.094
56,0.09163300000000001,1173.913
57,0.09329999999999999,1173.913
58,0.094967,1173.243
59,0.09661699999999999,1170.784
60,0.098283,1170.784
61,0.09995,1168.251
62,0.101617,1164.451
63,0.103283,1161.993
64,0.10495,1161.993
65,0.106617,1165.047
66,0.108283,1169.443
67,0.10995,1171.455
68,0.111617,1171.455
69,0.113283,1171.827
70,0.11495,1169.592
71,0.116683,1166.314
72,0.118283,1166.314
73,0.11995,1169.965
74,0.121617,1171.902
75,0.123283,1171.902
76,0.12495,1172.2
77,0.126617,1169.89
78,0.128283,1166.314
79,0.12995,1166.314
80,0.131633,1163.11
81,0.133333,1163.334
82,0.13495,1167.432
83,0.136617,1167.432
84,0.138283,1168.698
85,0.13995,1171.306
86,0.141617,1171.455
87,0.143283,1171.455
88,0.14495,1171.976
89,0.146617,1173.541
90,0.148283,1174.957
91,0.150033,1174.957
92,0.151617,1173.988
93,0.153283,1173.615
94,0.15495,1173.615
95,0.1566,1175.18
96,0.158267,1171.976
97,0.159933,1172.2
98,0.1616,1172.2
99,0.163267,1172.796
100,0.164933,1170.188
101,0.1666,1170.114
102,0.168267,1170.114
103,0.169933,1171.902
104,0.1716,1171.678
105,0.1733,1171.753
106,0.174933,1171.753
107,0.1766,1174.659
108,0.178267,1174.733
109,0.179933,1174.733
110,0.1816,1174.957
111,0.183267,1175.627
112,0.184933,1174.51
113,0.1866,1174.51
114,0.188267,1175.925
115,0.189933,1176.074
116,0.1916,1178.682
117,0.193267,1178.682
118,0.194933,1182.035
119,0.1966,1185.536
120,0.198267,1191.422
121,0.199933,1191.422
122,0.2016,1201.332
123,0.203267,1215.339
124,0.20495,1231.134
125,0.2066,1231.134
126,0.208267,1250.058
127,0.209933,1268.387
128,0.2116,1268.387
129,0.213267,1288.95
130,0.214933,1310.557
131,0.216583,1333.356
132,0.21825,1333.356
133,0.219917,1358.315
134,0.221583,1381.561
135,0.22325,1411.289
136,0.224917,1411.289
137,0.226583,1441.687
138,0.22825,1471.639
139,0.229917,1506.582
140,0.231583,1506.582
141,0.23325,1538.619
142,0.234917,1572.594
143,0.236583,1572.594
144,0.23825,1607.686
145,0.239917,1644.865
146,0.241583,1685.098
147,0.24325,1685.098
148,0.244917,1729.354
149,0.246583,1781.061
150,0.24825,1834.631
151,0.249917,1834.631
152,0.251583,1895.055
153,0.25325,1960.546
154,0.254917,2025.142
155,0.256583,2025.142
156,0.25825,2097.488
157,0.259917,2172.44
158,0.261583,2255.291
159,0.26325,2255.291
160,0.264917,2346.56
161,0.266583,2442.077
162,0.268367,2546.459
163,0.269917,2546.459
164,0.271583,2658.293
165,0.27325,2782.568
166,0.2749,2782.568
167,0.276567,2913.922
168,0.278233,3056.675
169,0.2799,3207.103
170,0.281583,3207.103
171,0.2833,3369.972
172,0.2849,3551.021
173,0.286567,3746.823
174,0.288233,3746.823
175,0.2899,3962.889
176,0.291567,4198.849
177,0.293233,4198.849
178,0.2949,4461.631
179,0.296567,4768.372
180,0.298233,5134.195
181,0.2999,5134.195
182,0.301567,5591.512
183,0.303233,6175.19
184,0.3049,6907.657
185,0.306567,6907.657
186,0.308233,7813.499
187,0.3099,8885.786
188,0.311567,10087.938
189,0.313233,10087.938
190,0.3149,11359.006
191,0.316567,12608.245
192,0.318233,13734.549
193,0.3199,13734.549
194,0.321567,14642.775
195,0.323233,15260.651
196,0.3249,15260.651
197,0.326567,15555.248
198,0.328233,15530.064
199,0.3299,15223.697
200,0.331567,15223.697
201,0.33325,14691.65
202,0.334883,13996.81
203,0.33655,13202.578
204,0.338217,13202.578
205,0.339883,12360.141
206,0.34155,11511.967
207,0.343217,10692.03
208,0.344867,10692.03
209,0.34655,9910.315000000001
210,0.34825,9180.829
211,0.349867,9180.829
212,0.351533,8508.116
213,0.353267,7888.898
214,0.354867,7332.712
215,0.356533,7332.712
216,0.3582,6829.575
217,0.359867,6377.399
218,0.361533,5972.013
219,0.3632,5972.013
220,0.364867,5605.966
221,0.366533,5278.662
222,0.3682,4984.885
223,0.369867,4984.885
224,0.371533,4718.527
225,0.3732,4477.277
226,0.374867,4477.277
227,0.376533,4258.528
228,0.3782,4060.417
229,0.379867,3881.902
230,0.381533,3881.902
231,0.3832,3718.957
232,0.384867,3571.585
233,0.38665,3436.655
234,0.3882,3436.655
235,0.389867,3312.677
236,0.391533,3199.279
237,0.3932,3092.065
238,0.394867,3092.065
239,0.396517,2994.388
240,0.398183,2903.417
241,0.39985,2815.202
242,0.401517,2815.202
243,0.403183,2731.606
244,0.40485,2653.226
245,0.406517,2653.226
246,0.408183,2578.05
247,0.40985,2509.207
248,0.411517,2446.473
249,0.413183,2446.473
250,0.41485,2382.472
251,0.416517,2324.507
252,0.418183,2270.639
253,0.419867,2270.639
254,0.421517,2216.548
255,0.423183,2169.907
256,0.42485,2124.31
257,0.426517,2124.31
258,0.428183,2081.394
259,0.42985,2039.82
260,0.431517,2039.82
261,0.433183,1999.661
262,0.43485,1960.918
263,0.436517,1921.132
264,0.438183,1921.132
265,0.43985,1887.456
266,0.441517,1852.512
267,0.443183,1818.761
268,0.44485,1818.761
269,0.446517,1789.257
270,0.448183,1761.243
271,0.44985,1735.762
272,0.451517,1735.762
273,0.453183,1712.963
274,0.454833,1690.164
275,0.456517,1667.514
276,0.458167,1667.514
277,0.459833,1645.982
278,0.4615,1624.376
279,0.463167,1624.376
280,0.464833,1603.812
281,0.4665,1584.366
282,0.468167,1564.845
283,0.469833,1564.845
284,0.471567,1548.454
285,0.473167,1531.914
286,0.474833,1517.013
287,0.4765,1517.013
288,0.478167,1503.602
289,0.479833,1489.893
290,0.4815,1478.121
291,0.483167,1478.121
292,0.484833,1465.008
293,0.4865,1452.267
294,0.488167,1452.267
295,0.489833,1439.005
296,0.4915,1426.041
297,0.493217,1415.834
298,0.494833,1415.834
299,0.4965,1405.925
300,0.498167,1396.984
301,0.499833,1390.353
302,0.5014999999999999,1390.353
303,0.503167,1381.338
304,0.5049,1373.664
305,0.5065,1364.127
306,0.508167,1364.127
307,0.509833,1354.888
308,0.5115,1346.022
309,0.513167,1346.022
310,0.514833,1339.242
311,0.5165,1334.548
312,0.51815,1329.035
313,0.519817,1329.035
314,0.521483,1326.948
315,0.52315,1321.211
316,0.524817,1315.325
317,0.526483,1315.325
318,0.52815,1311.228
319,0.529817,1303.926
320,0.531483,1297.221
321,0.53315,1297.221
322,0.534817,1292.005
323,0.536483,1285.374
324,0.53815,1283.363
325,0.539817,1283.363
326,0.541483,1280.159
327,0.54315,1277.03
328,0.544817,1277.03
329,0.5464830000000001,1274.049
330,0.54815,1269.057
331,0.549817,1265.928
332,0.5514829999999999,1265.928
333,0.55315,1262.575
334,0.554817,1257.881
335,0.5564829999999999,1253.262
336,0.55815,1253.262
337,0.559817,1252.145
338,0.561483,1249.015
339,0.56315,1247.451
340,0.564817,1247.451
341,0.5665,1246.557
342,0.56815,1244.47
343,0.56985,1243.278
344,0.571483,1243.278
345,0.57315,1241.118
346,0.5748,1240.075
347,0.576467,1240.075
348,0.578133,1238.883
349,0.5798,1240.596
350,0.581467,1239.33
351,0.583133,1239.33
352,0.5848,1238.212
353,0.586467,1233.22
354,0.588133,1225.919
355,0.5898,1225.919
356,0.591467,1224.652
357,0.593133,1219.809
358,0.5948,1215.86
359,0.596467,1215.86
360,0.598133,1214.147
361,0.5998,1209.155
362,0.601467,1209.155
363,0.603133,1209.378
364,0.6048,1212.06
365,0.606517,1211.613
366,0.608133,1211.613
367,0.6098,1212.507
368,0.611467,1210.272
369,0.613133,1206.1
370,0.6148,1206.1
371,0.616467,1205.355
372,0.618133,1206.994
373,0.6198,1207.59
374,0.621467,1207.59
375,0.623133,1207.963
376,0.6248,1207.218
377,0.626467,1207.218
378,0.6281330000000001,1203.492
379,0.6298,1203.79
380,0.631467,1203.79
381,0.633117,1203.79
382,0.634783,1204.312
383,0.636433,1205.504
384,0.6381,1203.194
385,0.639767,1203.194
386,0.641433,1202.375
387,0.6431,1201.481
388,0.644783,1200.214
389,0.646467,1200.214
390,0.6481,1197.532
391,0.649767,1198.947
392,0.651433,1195.371
393,0.6531,1195.371
394,0.654767,1196.34
395,0.656433,1197.532
396,0.6581,1197.532
397,0.659767,1192.987
398,0.661433,1196.489
399,0.6631,1195.595
400,0.664767,1195.595
401,0.6664330000000001,1194.626
402,0.6681,1198.202
403,0.669767,1194.775
404,0.6714329999999999,1194.775
405,0.6731,1191.795
406,0.674767,1190.454
407,0.676433,1189.485
408,0.6781,1189.485
409,0.679767,1191.273
410,0.681433,1191.72
411,0.6831,1191.72
412,0.684783,1193.807
413,0.686433,1193.509
414,0.6881,1196.116
415,0.689767,1196.116
416,0.691433,1197.532
417,0.6931,1195.073
418,0.694767,1195.446
419,0.696417,1195.446
420,0.698083,1190.901
421,0.69975,1187.772
422,0.701417,1189.858
423,0.703083,1189.858
424,0.70475,1189.932
425,0.706417,1192.912
426,0.708133,1192.54
427,0.70975,1192.54
428,0.711433,1192.167
429,0.713083,1188.74
430,0.71475,1188.74
431,0.716417,1186.579
432,0.718083,1188.442
433,0.71975,1188.815
434,0.721417,1188.815
435,0.7231,1190.975
436,0.724817,1190.23
437,0.726417,1188.815
438,0.728083,1188.815
439,0.72975,1185.611
440,0.731417,1183.599
441,0.733083,1183.003
442,0.73475,1183.003
443,0.736417,1183.525
444,0.738083,1183.301
445,0.73975,1183.301
446,0.741517,1183.003
447,0.743083,1185.015
448,0.74475,1184.493
449,0.746417,1184.493
450,0.7480830000000001,1184.344
451,0.74975,1183.823
452,0.751417,1183.003
453,0.7530829999999999,1183.003
454,0.754733,1182.854
455,0.7564,1182.929
456,0.758067,1186.356
457,0.759733,1186.356
458,0.7614,1187.921
459,0.7630670000000001,1188.964
460,0.764733,1188.964
461,0.7664,1191.348
462,0.7680670000000001,1188.442
463,0.769733,1185.909
464,0.7714,1185.909
465,0.7730669999999999,1186.877
466,0.774733,1187.026
467,0.7764,1186.877
468,0.778067,1186.877
469,0.779733,1186.877
470,0.7814,1183.003
471,0.783067,1179.799
472,0.784733,1179.799
473,0.7864,1182.854
474,0.788117,1182.184
475,0.789733,1183.897
476,0.7914,1183.897
477,0.793067,1184.121
478,0.794733,1180.47
479,0.7964,1180.47
480,0.798067,1179.427
481,0.799733,1181.066
482,0.8014,1180.545
483,0.803067,1180.545
484,0.804733,1181.662
485,0.8064,1184.27
486,0.808083,1182.258
487,0.809733,1182.258
488,0.8114,1183.376
489,0.813067,1181.96
490,0.814717,1180.917
491,0.816383,1180.917
492,0.8180500000000001,1178.831
493,0.819717,1177.266
494,0.821383,1177.266
495,0.8230499999999999,1178.458
496,0.824717,1176.819
497,0.826383,1178.309
498,0.82805,1178.309
499,0.829717,1180.619
500,0.831383,1180.023
501,0.83305,1182.854
502,0.834717,1182.854
503,0.836383,1185.164
504,0.83805,1184.717
505,0.839717,1186.281
506,0.841383,1186.281
507,0.843117,1184.866
508,0.8447170000000001,1185.313
509,0.846383,1186.207
510,0.84805,1186.207
511,0.8497169999999999,1184.642
512,0.851383,1182.854
513,0.85305,1182.854
514,0.8547169999999999,1180.917
515,0.856383,1178.607
516,0.85805,1177.192
517,0.859833,1177.192
518,0.861383,1178.756
519,0.86305,1178.384
520,0.864717,1177.639
521,0.866383,1177.639
522,0.86805,1179.948
523,0.869717,1179.576
524,0.871383,1179.203
525,0.87305,1179.203
526,0.8747,1180.321
527,0.876367,1179.278
528,0.878033,1179.278
529,0.8797,1179.054
530,0.881367,1179.129
531,0.883033,1180.396
532,0.8847,1180.396
533,0.886367,1177.49
534,0.888033,1177.192
535,0.8897,1177.937
536,0.891367,1177.937
537,0.893033,1178.16
538,0.8947000000000001,1180.768
539,0.896367,1179.874
540,0.898033,1179.874
541,0.8997000000000001,1178.98
542,0.901367,1177.713
543,0.90305,1177.192
544,0.904733,1177.192
545,0.906367,1179.427
546,0.908033,1179.799
547,0.9097,1179.799
548,0.911367,1180.992
549,0.91305,1180.693
550,0.9147,1179.352
551,0.916367,1179.352
552,0.918033,1175.702
553,0.9197,1175.255
554,0.921367,1175.553
555,0.923033,1175.553
556,0.924717,1178.309
557,0.9263670000000001,1181.886
558,0.928017,1178.831
559,0.929683,1178.831
560,0.93135,1177.713
561,0.933017,1173.615
562,0.934667,1173.615
563,0.936333,1174.807
564,0.9379999999999999,1177.788
565,0.939667,1180.023
566,0.941333,1180.023
567,0.9429999999999999,1181.364
568,0.944667,1178.905
569,0.946333,1178.235
570,0.948,1178.235
571,0.949667,1179.427
572,0.951333,1179.501
573,0.953,1181.364
574,0.954667,1181.364
575,0.956333,1183.003
576,0.958,1179.65
577,0.959667,1179.65
578,0.961367,1179.501
579,0.963,1177.415
580,0.9646670000000001,1173.094
581,0.966333,1173.094
582,0.968,1174.36
583,0.9696669999999999,1173.988
584,0.971333,1175.18
585,0.973,1175.18
586,0.974667,1177.713
587,0.976333,1176.372
588,0.978067,1178.309
589,0.979667,1178.309
590,0.981333,1177.639
591,0.983,1174.659
592,0.984667,1175.478
593,0.986333,1175.478
594,0.9880330000000001,1174.435
595,0.989667,1175.404
596,0.991333,1175.404
597,0.993,1179.874
598,0.994767,1182.631
599,0.996317,1183.525
600,0.997983,1183.525
601,0.99965,1184.121
602,1.001317,1184.568
603,1.002983,1182.333
604,1.004683,1182.333
605,1.006317,1180.47
606,1.007983,1177.341
607,1.00965,1174.584
608,1.011317,1174.584
609,1.012983,1175.329
610,1.01465,1174.212
611,1.016317,1174.212
612,1.017983,1176.819
613,1.01965,1178.384
614,1.021317,1177.862
