"ID","sea_time","fid_signal"
1,0,1163.259
2,0.001667,1165.643
3,0.003333,1166.686
4,0.005,1166.686
5,0.006667,1167.133
6,0.008333,1165.42
7,0.01,1165.047
8,0.011667,1165.047
9,0.013333,1164.377
10,0.015,1163.408
11,0.016667,1163.408
12,0.018333,1167.282
13,0.02,1167.506
14,0.021667,1168.4
15,0.023333,1168.4
16,0.025,1169.22
17,0.026667,1166.239
18,0.028333,1162.961
19,0.0301,1162.961
20,0.03165,1161.62
21,0.033317,1161.024
22,0.034983,1163.036
23,0.03665,1163.036
24,0.038317,1165.047
25,0.04,1168.698
26,0.04165,1168.698
27,0.043317,1172.721
28,0.044983,1171.082
29,0.04665,1169.816
30,0.048317,1169.816
31,0.049983,1167.655
32,0.05165,1166.537
33,0.053317,1165.42
34,0.054983,1165.42
35,0.05665,1164.302
36,0.058317,1165.643
37,0.059983,1165.643
38,0.06165,1165.643
39,0.06338299999999999,1166.984
40,0.064983,1171.008
41,0.06665,1169.369
42,0.068317,1169.369
43,0.069983,1167.58
44,0.07165000000000001,1170.561
45,0.07331699999999999,1170.561
46,0.07498299999999999,1168.475
47,0.07665,1168.251
48,0.078317,1166.016
49,0.079983,1166.016
50,0.08165,1159.087
51,0.083317,1158.342
52,0.084983,1158.789
53,0.08665,1158.789
54,0.0883,1160.502
55,0.08996700000000001,1163.408
56,0.09163300000000001,1162.514
57,0.09329999999999999,1162.514
58,0.094967,1166.165
59,0.096633,1168.326
60,0.0983,1168.326
61,0.099967,1168.027
62,0.101633,1167.655
63,0.1033,1166.165
64,0.104967,1166.165
65,0.106633,1165.792
66,0.1083,1166.537
67,0.109983,1166.463
68,0.111633,1166.463
69,0.1133,1164.079
70,0.114967,1166.165
71,0.116633,1168.996
72,0.1183,1168.996
73,0.119967,1170.188
74,0.121633,1169.145
75,0.1233,1164.6
76,0.124967,1164.6
77,0.126633,1164.749
78,0.1283,1164.526
79,0.129967,1164.526
80,0.131633,1162.961
81,0.1333,1162.812
82,0.134967,1159.757
83,0.136633,1159.757
84,0.1383,1159.608
85,0.14,1165.42
86,0.141633,1167.729
87,0.1433,1167.729
88,0.144967,1168.624
89,0.146633,1168.847
90,0.14835,1166.388
91,0.14995,1166.388
92,0.151617,1165.42
93,0.153283,1167.357
94,0.15495,1167.357
95,0.156633,1170.188
96,0.158283,1171.38
97,0.15995,1170.71
98,0.161617,1170.71
99,0.163283,1167.208
100,0.16495,1166.91
101,0.166617,1164.898
102,0.168283,1164.898
103,0.16995,1164.749
104,0.171617,1165.196
105,0.173283,1163.93
106,0.17495,1163.93
107,0.176617,1165.718
108,0.178283,1166.314
109,0.17995,1166.761
110,0.181717,1166.761
111,0.1833,1167.58
112,0.18495,1169.294
113,0.186617,1169.294
114,0.188283,1172.572
115,0.18995,1173.168
116,0.191617,1171.231
117,0.193283,1171.231
118,0.19495,1166.612
119,0.196617,1163.483
120,0.198283,1163.11
121,0.19995,1163.11
122,0.201617,1166.388
123,0.203283,1166.537
124,0.20495,1168.773
125,0.2066,1168.773
126,0.208267,1171.455
127,0.209933,1169.89
128,0.2116,1169.89
129,0.213267,1170.188
130,0.214933,1167.804
131,0.2166,1165.494
132,0.218267,1165.494
133,0.219933,1164.004
134,0.2216,1166.165
135,0.223267,1166.388
136,0.224933,1166.388
137,0.2266,1165.792
138,0.228267,1163.855
139,0.229933,1162.663
140,0.2316,1162.663
141,0.233283,1165.494
142,0.234933,1164.973
143,0.2366,1164.973
144,0.238267,1165.941
145,0.239933,1165.569
146,0.2416,1163.036
147,0.243267,1163.036
148,0.244933,1161.769
149,0.2466,1163.259
150,0.248267,1162.067
151,0.249967,1162.067
152,0.2516,1159.012
153,0.253267,1160.13
154,0.254933,1159.534
155,0.2566,1159.534
156,0.258267,1161.546
157,0.259933,1168.996
158,0.2616,1169.89
159,0.263267,1169.89
160,0.264933,1168.996
161,0.266633,1168.698
162,0.26825,1168.698
163,0.269917,1164.6
164,0.271583,1164.526
165,0.27325,1165.42
166,0.274917,1165.42
167,0.276567,1169.071
168,0.278233,1172.423
169,0.2799,1173.765
170,0.281567,1173.765
171,0.28335,1177.713
172,0.2849,1178.533
173,0.286567,1179.203
174,0.288233,1179.203
175,0.2899,1184.866
176,0.291567,1191.72
177,0.293233,1191.72
178,0.2949,1201.63
179,0.296567,1216.084
180,0.298233,1232.699
181,0.299983,1232.699
182,0.301567,1253.262
183,0.303233,1273.081
184,0.3049,1295.954
185,0.306567,1295.954
186,0.308233,1323.596
187,0.3099,1345.575
188,0.311567,1370.162
189,0.313233,1370.162
190,0.3149,1393.408
191,0.316567,1414.791
192,0.318233,1440.421
193,0.3199,1440.421
194,0.321583,1465.976
195,0.323233,1488.03
196,0.3249,1488.03
197,0.3266,1504.719
198,0.328217,1521.036
199,0.329883,1533.702
200,0.331567,1533.702
201,0.333217,1544.878
202,0.334883,1551.136
203,0.33655,1551.285
204,0.338217,1551.285
205,0.339883,1547.262
206,0.34155,1537.725
207,0.343217,1529.381
208,0.344883,1529.381
209,0.34655,1513.064
210,0.348217,1494.735
211,0.349883,1494.735
212,0.35155,1479.387
213,0.353217,1460.165
214,0.354883,1444.072
215,0.35655,1444.072
216,0.358217,1426.265
217,0.359883,1404.36
218,0.36155,1385.957
219,0.363217,1385.957
220,0.364883,1371.13
221,0.36655,1358.688
222,0.368217,1351.908
223,0.369883,1351.908
224,0.37155,1347.587
225,0.373217,1341.104
226,0.374883,1337.305
227,0.37655,1337.305
228,0.378217,1333.058
229,0.379883,1330.003
230,0.38155,1330.003
231,0.383217,1332.015
232,0.384933,1336.485
233,0.38655,1344.159
234,0.3882,1344.159
235,0.3899,1355.633
236,0.391583,1371.279
237,0.393283,1391.545
238,0.394867,1391.545
239,0.396533,1420.23
240,0.3982,1456.961
241,0.399867,1505.911
242,0.401617,1505.911
243,0.4032,1565.963
244,0.404867,1640.245
245,0.406533,1640.245
246,0.4082,1728.609
247,0.409867,1828.969
248,0.411533,1943.484
249,0.4132,1943.484
250,0.414867,2070.069
251,0.416533,2210.066
252,0.4183,2362.654
253,0.419867,2362.654
254,0.421533,2528.802
255,0.4232,2705.157
256,0.424867,2890.453
257,0.426533,2890.453
258,0.4282,3082.976
259,0.429867,3284.961
260,0.431533,3284.961
261,0.4332,3493.056
262,0.434983,3703.758
263,0.436533,3916.845
264,0.4382,3916.845
265,0.439867,4129.931
266,0.441533,4344.731
267,0.4432,4564.822
268,0.444867,4564.822
269,0.446533,4786.179
270,0.448183,5005.896
271,0.44985,5223.527
272,0.451517,5223.527
273,0.453183,5436.167
274,0.45485,5648.434
275,0.456517,5860.329
276,0.458183,5860.329
277,0.45985,6070.211
278,0.461517,6276.294
279,0.463183,6276.294
280,0.46485,6478.652
281,0.466567,6674.751
282,0.468183,6867.125
283,0.46985,6867.125
284,0.471517,7060.468
285,0.473183,7250.607
286,0.47485,7438.809
287,0.476517,7438.809
288,0.478183,7623.881
289,0.47985,7799.864
290,0.481517,7971.823
291,0.483183,7971.823
292,0.48485,8137.896
293,0.486517,8299.5
294,0.488183,8299.5
295,0.48985,8457.601000000001
296,0.491517,8610.562
297,0.493183,8761.287
298,0.49485,8761.287
299,0.496517,8904.636
300,0.498183,9040.088
301,0.49985,9167.343999999999
302,0.501517,9167.343999999999
303,0.503183,9285.137000000001
304,0.50485,9392.351000000001
305,0.506517,9490.4
306,0.508167,9490.4
307,0.509833,9574.891
308,0.5115,9640.008
309,0.513167,9687.319
310,0.514833,9687.319
311,0.5165,9708.628000000001
312,0.518167,9696.633
313,0.519917,9696.633
314,0.5215,9644.181
315,0.523167,9536.222
316,0.524833,9361.654
317,0.5265,9361.654
318,0.5281670000000001,9105.205
319,0.529833,8759.797
320,0.5315,8323.714
321,0.5331669999999999,8323.714
322,0.534833,7808.879
323,0.53655,7241.517
324,0.538167,6657.168
325,0.539833,6657.168
326,0.5415,6088.614
327,0.543167,5570.65
328,0.544833,5570.65
329,0.5465,5116.686
330,0.548167,4725.382
331,0.549833,4401.132
332,0.5515,4401.132
333,0.5532,4124.343
334,0.554833,3892.332
335,0.5565,3696.233
336,0.558167,3696.233
337,0.559833,3527.626
338,0.5615,3384.65
339,0.563167,3261.939
340,0.564833,3261.939
341,0.566483,3159.568
342,0.568133,3068.522
343,0.5698,3068.522
344,0.5714669999999999,2982.989
345,0.573133,2904.534
346,0.5748,2827.644
347,0.576467,2827.644
348,0.578133,2757.013
349,0.5798,2694.949
350,0.581467,2635.047
351,0.583133,2635.047
352,0.5848,2581.477
353,0.586467,2531.186
354,0.588133,2482.682
355,0.5898,2482.682
356,0.591467,2437.383
357,0.593133,2397.075
358,0.5948,2357.662
359,0.596467,2357.662
360,0.598133,2316.981
361,0.5998,2282.634
362,0.601467,2282.634
363,0.603133,2248.362
364,0.6048,2215.43
365,0.6065,2187.043
366,0.60815,2187.043
367,0.6098,2156.571
368,0.611467,2124.458
369,0.613133,2094.507
370,0.6148,2094.507
371,0.616467,2064.854
372,0.618133,2038.628
373,0.6198,2012.998
374,0.621467,2012.998
375,0.623133,1992.36
376,0.6248,1969.71
377,0.62645,1969.71
378,0.628117,1946.092
379,0.629783,1928.285
380,0.63145,1904.145
381,0.633117,1904.145
382,0.634783,1884.401
383,0.63645,1865.849
384,0.63815,1844.615
385,0.639783,1844.615
386,0.64145,1825.765
387,0.643117,1810.119
388,0.644783,1792.833
389,0.64645,1792.833
390,0.6481170000000001,1778.156
391,0.649783,1764.968
392,0.65145,1749.843
393,0.6531169999999999,1749.843
394,0.654817,1736.73
395,0.65645,1719.073
396,0.658117,1719.073
397,0.659783,1704.916
398,0.66145,1693.219
399,0.663117,1677.498
400,0.664783,1677.498
401,0.66645,1667.813
402,0.668117,1656.488
403,0.669783,1642.779
404,0.671533,1642.779
405,0.673117,1633.912
406,0.674783,1621.693
407,0.67645,1609.474
408,0.678117,1609.474
409,0.679783,1598
410,0.68145,1586.676
411,0.683133,1586.676
412,0.6848,1578.555
413,0.68645,1571.998
414,0.6881,1562.685
415,0.689767,1562.685
416,0.691433,1552.478
417,0.6931,1543.388
418,0.694767,1531.914
419,0.696433,1531.914
420,0.6981000000000001,1524.538
421,0.699767,1520.44
422,0.701433,1510.307
423,0.7030999999999999,1510.307
424,0.704767,1500.547
425,0.706433,1492.724
426,0.7081,1482.666
427,0.709767,1482.666
428,0.711433,1475.289
429,0.7131,1468.211
430,0.714767,1468.211
431,0.716433,1460.388
432,0.7181,1453.31
433,0.719767,1449.808
434,0.721433,1449.808
435,0.7231,1445.413
436,0.7247670000000001,1440.942
437,0.726433,1435.876
438,0.7281,1435.876
439,0.7297670000000001,1428.947
440,0.731433,1424.029
441,0.7331,1417.398
442,0.7347669999999999,1417.398
443,0.736433,1409.277
444,0.7381,1402.423
445,0.739767,1402.423
446,0.741433,1395.866
447,0.7431,1392.365
448,0.74475,1388.714
449,0.746433,1388.714
450,0.748117,1387.373
451,0.7498,1385.882
452,0.751467,1379.773
453,0.7530829999999999,1379.773
454,0.75475,1377.463
455,0.756483,1371.726
456,0.758083,1365.99
457,0.75975,1365.99
458,0.761417,1362.86
459,0.763083,1356.527
460,0.76475,1351.833
461,0.766417,1351.833
462,0.768083,1346.916
463,0.76975,1344.234
464,0.771417,1344.234
465,0.773083,1342.446
466,0.77475,1339.614
467,0.776417,1334.623
468,0.778083,1334.623
469,0.7797500000000001,1332.089
470,0.781417,1329.631
471,0.783083,1329.184
472,0.7847499999999999,1329.184
473,0.786417,1329.705
474,0.7881,1324.713
475,0.789783,1322.776
476,0.791417,1322.776
477,0.793083,1316.667
478,0.79475,1310.93
479,0.796417,1310.93
480,0.798083,1307.055
481,0.79975,1303.852
482,0.801417,1300.722
483,0.803083,1300.722
484,0.804733,1300.052
485,0.8064170000000001,1296.997
486,0.808067,1292.303
487,0.809733,1292.303
488,0.8114,1292.378
489,0.813067,1288.205
490,0.814733,1288.28
491,0.8164,1288.28
492,0.818067,1288.205
493,0.819733,1284.108
494,0.8214,1284.108
495,0.823083,1284.406
496,0.8248,1282.021
497,0.8264,1279.861
498,0.828067,1279.861
499,0.8297330000000001,1278.147
500,0.8314,1275.763
501,0.833067,1271.889
502,0.8347329999999999,1271.889
503,0.8364,1268.163
504,0.838067,1266.971
505,0.839733,1264.14
506,0.8414,1264.14
507,0.843067,1260.266
508,0.844733,1258.925
509,0.8464,1255.497
510,0.848067,1255.497
511,0.849733,1256.242
512,0.8514,1257.286
513,0.853067,1257.286
514,0.854733,1256.391
515,0.8564000000000001,1254.901
516,0.858067,1253.858
517,0.859717,1253.858
518,0.861383,1256.689
519,0.86305,1257.286
520,0.864717,1257.956
521,0.866383,1257.956
522,0.8680330000000001,1254.38
523,0.8697,1251.772
524,0.871367,1250.282
525,0.8730329999999999,1250.282
526,0.874783,1247.823
527,0.876367,1247.227
528,0.878033,1247.227
529,0.8797,1246.929
530,0.881367,1245.663
531,0.883033,1242.906
532,0.8847,1242.906
533,0.886367,1243.204
534,0.888033,1239.33
535,0.8897,1235.455
536,0.8914,1235.455
537,0.893033,1233.593
538,0.8947000000000001,1230.985
539,0.8964,1230.836
540,0.898033,1230.836
541,0.8997000000000001,1230.985
542,0.901367,1232.848
543,0.903033,1231.432
544,0.9046999999999999,1231.432
545,0.906367,1228.303
546,0.908117,1227.409
547,0.9097,1227.409
548,0.911367,1228.526
549,0.913033,1227.558
550,0.9147,1230.761
551,0.916367,1230.761
552,0.918033,1228.675
553,0.9197,1224.577
554,0.921367,1226.44
555,0.923033,1226.44
556,0.9247,1223.534
557,0.9263670000000001,1222.491
558,0.928017,1222.193
559,0.929683,1222.193
560,0.93135,1220.778
561,0.933017,1221.15
562,0.934683,1221.15
563,0.93635,1222.491
564,0.938017,1222.193
565,0.939683,1218.915
566,0.94135,1218.915
567,0.943017,1216.382
568,0.9446830000000001,1215.413
569,0.94635,1215.115
570,0.948017,1215.115
571,0.9496830000000001,1215.488
572,0.95135,1214.296
573,0.953017,1213.551
574,0.9546829999999999,1213.551
575,0.95635,1214.519
576,0.958017,1214.892
577,0.959683,1216.158
578,0.96135,1216.158
579,0.963033,1212.656
580,0.964683,1208.857
581,0.966367,1208.857
582,0.968017,1205.355
583,0.969733,1202.896
584,0.97135,1207.441
585,0.973017,1207.441
586,0.974683,1207.367
587,0.9763500000000001,1209.08
588,0.978017,1207.367
589,0.979683,1207.367
590,0.9813499999999999,1203.194
591,0.983017,1202.449
592,0.984683,1201.332
593,0.9863499999999999,1201.332
594,0.988,1202.151
595,0.989667,1205.057
596,0.991333,1205.057
597,0.993083,1204.61
598,0.994667,1206.473
599,0.996333,1205.727
600,0.998,1205.727
601,0.999667,1202.002
602,1.001333,1201.555
603,1.003,1200.81
604,1.004667,1200.81
605,1.006333,1202.375
606,1.008,1205.206
607,1.009667,1206.845
608,1.011333,1206.845
609,1.013,1205.131
610,1.014667,1204.163
611,1.016333,1204.163
612,1.018,1202.375
613,1.019667,1201.406
614,1.021333,1201.257
615,1.023,1201.257
616,1.024667,1202.673
617,1.02645,1203.045
618,1.028,1201.108
619,1.029667,1201.108
620,1.031333,1199.693
621,1.033,1198.649
622,1.034667,1197.01
623,1.036333,1197.01
624,1.038,1199.171
625,1.039667,1200.438
626,1.041333,1200.736
627,1.043017,1200.736
628,1.044667,1200.661
629,1.046367,1196.861
630,1.047983,1196.861
631,1.04965,1195.595
632,1.051317,1192.54
633,1.052983,1192.018
634,1.05465,1192.018
635,1.056317,1194.03
636,1.057983,1194.403
637,1.05965,1196.042
638,1.061317,1196.042
639,1.062983,1195.52
640,1.06465,1196.042
641,1.066317,1195.669
642,1.067983,1195.669
643,1.06965,1195.148
644,1.071317,1196.563
645,1.072983,1196.563
646,1.07465,1195.595
647,1.076317,1193.21
648,1.077983,1190.156
649,1.07965,1190.156
650,1.081317,1188.964
651,1.082983,1188.442
652,1.08465,1190.081
653,1.086317,1190.081
654,1.087983,1192.316
655,1.08965,1193.881
656,1.091317,1194.403
657,1.092983,1194.403
658,1.09465,1192.54
659,1.096317,1193.657
660,1.097983,1193.509
661,1.09965,1193.509
662,1.101317,1192.391
663,1.102983,1195.371
664,1.10465,1195.371
665,1.106317,1192.242
666,1.107967,1189.485
667,1.109633,1190.752
668,1.111383,1190.752
669,1.112967,1191.646
670,1.11465,1190.528
671,1.116317,1191.795
672,1.11805,1191.795
673,1.119633,1193.062
674,1.1213,1187.921
675,1.122967,1188.815
676,1.124633,1188.815
677,1.1263,1187.995
678,1.128067,1188.07
679,1.129633,1188.07
680,1.1313,1189.783
681,1.132967,1193.136
682,1.134633,1194.85
683,1.1363,1194.85
684,1.137967,1194.179
685,1.139633,1195.222
686,1.1413,1194.03
687,1.142967,1194.03
688,1.144733,1191.199
689,1.1463,1187.921
690,1.147967,1186.207
691,1.149633,1186.207
692,1.151283,1183.599
693,1.15295,1185.983
694,1.154617,1185.834
695,1.156283,1185.834
696,1.15795,1184.94
697,1.159617,1185.164
698,1.161283,1185.164
699,1.16295,1182.109
700,1.164617,1184.27
701,1.166267,1185.536
702,1.167933,1185.536
703,1.1696,1182.184
704,1.171267,1180.545
705,1.172933,1178.831
706,1.1746,1178.831
707,1.176267,1177.117
708,1.177933,1181.588
709,1.1796,1181.215
710,1.181267,1181.215
711,1.182933,1182.333
712,1.1846,1182.258
713,1.186267,1182.258
714,1.187967,1178.16
715,1.189633,1178.905
716,1.191267,1177.49
717,1.192933,1177.49
718,1.1946,1179.054
719,1.196267,1181.737
720,1.197933,1183.525
721,1.1996,1183.525
722,1.201267,1183.376
723,1.202933,1183.45
724,1.2046,1183.897
725,1.206267,1183.897
726,1.207933,1184.791
727,1.2096,1185.909
728,1.211267,1185.909
729,1.212933,1185.089
730,1.2146,1181.513
731,1.216267,1180.023
732,1.217933,1180.023
733,1.2196,1179.278
734,1.221267,1179.65
735,1.222933,1179.129
736,1.2246,1179.129
737,1.226267,1177.862
738,1.227917,1177.564
739,1.2296,1176.67
740,1.23125,1176.67
741,1.232917,1180.172
742,1.234583,1180.619
743,1.23625,1179.501
744,1.237917,1179.501
745,1.239583,1180.917
746,1.24125,1180.023
747,1.242917,1180.023
748,1.244583,1180.47
749,1.2463,1181.066
750,1.247917,1177.415
751,1.249583,1177.415
752,1.25125,1176.968
753,1.252917,1177.117
754,1.254583,1176.745
755,1.25625,1176.745
756,1.257933,1179.352
757,1.2596,1180.47
758,1.26125,1176.596
759,1.263,1176.596
760,1.264583,1175.702
761,1.26625,1175.329
762,1.267917,1175.329
763,1.269583,1175.106
764,1.27125,1180.619
765,1.272917,1179.799
766,1.274583,1179.799
767,1.27625,1182.035
768,1.277917,1180.992
769,1.279667,1179.129
770,1.28125,1179.129
771,1.282917,1180.992
772,1.284583,1179.427
773,1.28625,1180.47
774,1.2879,1180.47
775,1.289567,1181.96
776,1.291233,1180.321
777,1.2929,1179.948
778,1.294567,1179.948
779,1.296233,1180.023
780,1.2979,1179.427
781,1.299567,1179.427
782,1.301233,1180.396
783,1.3029,1179.948
784,1.304567,1178.98
785,1.306233,1178.98
786,1.3079,1179.352
787,1.309567,1180.843
788,1.311233,1180.545
789,1.3129,1180.545
790,1.314567,1181.29
791,1.316233,1180.172
792,1.3179,1179.65
793,1.319567,1179.65
794,1.321233,1177.49
795,1.3229,1175.329
796,1.324567,1175.329
797,1.326283,1171.753
798,1.3279,1168.847
799,1.329567,1169.741
800,1.331233,1169.741
801,1.3329,1172.572
802,1.334567,1175.553
803,1.336233,1177.639
804,1.3379,1177.639
805,1.339583,1178.607
806,1.341233,1177.043
807,1.3429,1176.819
808,1.344567,1176.819
809,1.346217,1175.255
810,1.347883,1172.274
811,1.34955,1172.647
812,1.351217,1172.647
813,1.352883,1172.274
814,1.35455,1173.541
815,1.356217,1173.541
816,1.357883,1177.043
817,1.35955,1177.415
818,1.361217,1174.882
819,1.362883,1174.882
820,1.3646,1175.553
821,1.366233,1175.031
822,1.367883,1173.168
823,1.36955,1173.168
824,1.371217,1176.596
825,1.372883,1176.745
826,1.37455,1176.521
827,1.376217,1176.521
828,1.377883,1179.874
829,1.37955,1178.458
830,1.381267,1178.458
831,1.382883,1174.659
832,1.38455,1173.466
833,1.386217,1171.455
834,1.387883,1171.455
835,1.38955,1171.753
836,1.391217,1174.733
837,1.392883,1174.212
838,1.39455,1174.212
839,1.396217,1173.541
840,1.398,1173.392
841,1.39955,1173.69
842,1.401217,1173.69
843,1.4029,1177.043
844,1.40455,1177.564
845,1.406217,1177.564
846,1.407867,1178.16
847,1.409533,1179.874
848,1.4112,1178.384
849,1.412867,1178.384
850,1.414533,1176.67
851,1.4162,1176.223
852,1.417867,1175.627
853,1.419533,1175.627
854,1.4212,1175.851
855,1.422867,1179.427
856,1.424533,1178.98
857,1.4262,1178.98
858,1.427867,1175.702
859,1.429533,1172.87
860,1.4312,1169.294
861,1.4329,1169.294
862,1.434533,1166.835
863,1.4362,1166.984
864,1.437867,1166.984
865,1.439533,1167.506
866,1.441183,1167.357
867,1.44285,1169.89
868,1.444517,1169.89
869,1.446183,1171.008
870,1.44785,1172.721
871,1.449517,1172.498
872,1.451183,1172.498
873,1.45285,1172.721
874,1.454517,1173.317
875,1.456183,1173.466
876,1.45785,1173.466
877,1.459517,1174.286
878,1.461183,1173.69
879,1.46285,1173.69
880,1.464517,1173.392
881,1.466167,1170.71
882,1.467833,1169.443
883,1.46955,1169.443
884,1.471167,1169.592
885,1.472833,1168.251
886,1.4745,1170.859
887,1.476167,1170.859
888,1.477833,1173.168
889,1.4795,1173.094
890,1.481167,1176
891,1.48285,1176
892,1.4845,1175.404
893,1.486167,1174.212
894,1.487833,1175.255
895,1.4895,1175.255
896,1.491167,1170.71
897,1.492833,1167.879
898,1.4945,1167.879
899,1.496167,1167.655
900,1.497833,1164.079
901,1.499533,1169.816
902,1.501167,1169.816
903,1.502833,1174.435
904,1.5045,1176.67
905,1.506167,1179.576
906,1.507833,1179.576
907,1.5095,1175.553
908,1.511167,1172.572
909,1.512833,1168.698
910,1.5145,1168.698
911,1.51625,1168.922
912,1.517833,1170.486
913,1.5195,1170.486
914,1.521167,1170.188
915,1.522833,1171.082
916,1.5245,1171.827
917,1.526167,1171.827
918,1.527817,1171.455
919,1.529483,1171.231
920,1.53115,1170.933
921,1.532817,1170.933
922,1.534483,1166.91
923,1.53615,1166.463
