"ID","sea_time","fid_signal"
1,0,1166.612
2,0.001667,1165.718
3,0.003333,1162.887
4,0.005,1161.024
5,0.006767,1161.024
6,0.008333,1161.173
7,0.01,1162.067
8,0.011667,1163.557
9,0.013333,1163.557
10,0.015,1164.153
11,0.016667,1166.537
12,0.018333,1166.537
13,0.02,1166.91
14,0.021667,1167.133
15,0.023333,1168.847
16,0.025,1168.847
17,0.026667,1167.432
18,0.028367,1168.773
19,0.03,1166.686
20,0.031667,1166.686
21,0.033317,1165.867
22,0.034983,1167.059
23,0.03665,1168.177
24,0.038317,1168.177
25,0.039983,1170.486
26,0.04165,1173.615
27,0.043317,1171.604
28,0.044983,1171.604
29,0.04665,1168.624
30,0.048317,1167.58
31,0.049983,1167.58
32,0.05165,1164.377
33,0.053317,1165.718
34,0.054983,1169.667
35,0.05665,1169.667
36,0.058317,1172.125
37,0.059983,1172.721
38,0.0617,1172.423
39,0.063317,1172.423
40,0.064983,1168.624
41,0.06665,1167.506
42,0.068317,1169.667
43,0.069983,1169.667
44,0.07165000000000001,1167.133
45,0.07331699999999999,1165.494
46,0.07498299999999999,1165.494
47,0.07665,1162.961
48,0.078317,1160.875
49,0.079983,1166.165
50,0.08165,1166.165
51,0.083317,1169.294
52,0.084983,1170.71
53,0.08665,1170.263
54,0.08831700000000001,1170.263
55,0.08998299999999999,1165.196
56,0.091683,1165.569
57,0.09329999999999999,1167.357
58,0.094967,1167.357
59,0.096633,1170.412
60,0.0983,1171.753
61,0.099967,1170.263
62,0.101633,1170.263
63,0.1033,1167.804
64,0.104967,1165.42
65,0.106633,1165.42
66,0.1084,1165.196
67,0.109967,1161.173
68,0.111633,1160.651
69,0.1133,1160.651
70,0.114967,1159.534
71,0.116633,1162.365
72,0.1183,1164.749
73,0.119967,1164.749
74,0.121633,1165.792
75,0.1233,1169.145
76,0.125067,1165.494
77,0.126633,1165.494
78,0.1283,1165.494
79,0.129967,1165.271
80,0.131633,1165.271
81,0.1333,1164.377
82,0.134967,1167.282
83,0.136683,1171.529
84,0.1383,1171.529
85,0.139967,1171.827
86,0.141733,1169.89
87,0.1433,1167.133
88,0.144967,1167.133
89,0.146633,1164.004
90,0.1483,1164.675
91,0.149967,1164.749
92,0.151633,1164.749
93,0.153283,1165.196
94,0.15495,1164.898
95,0.156617,1166.537
96,0.158283,1166.537
97,0.15995,1165.569
98,0.161617,1167.059
99,0.163283,1167.059
100,0.16495,1169.741
101,0.166617,1169.369
102,0.168283,1173.913
103,0.16995,1173.913
104,0.171617,1173.094
105,0.173283,1173.839
106,0.17495,1171.157
107,0.176617,1171.157
108,0.178283,1165.494
109,0.17995,1165.271
110,0.181617,1162.067
111,0.183283,1162.067
112,0.18495,1162.142
113,0.186617,1165.196
114,0.188283,1165.196
115,0.189983,1165.122
116,0.191617,1164.675
117,0.1933,1165.494
118,0.19495,1165.494
119,0.196617,1168.177
120,0.198283,1173.168
121,0.19995,1182.556
122,0.201617,1182.556
123,0.203283,1197.457
124,0.204967,1219.586
125,0.206617,1250.431
126,0.208283,1250.431
127,0.20995,1291.037
128,0.211617,1338.273
129,0.213283,1338.273
130,0.214933,1389.906
131,0.2166,1450.106
132,0.218267,1515.821
133,0.219933,1515.821
134,0.2216,1586.899
135,0.223267,1663.715
136,0.224933,1738.742
137,0.226633,1738.742
138,0.228267,1814.812
139,0.229933,1887.754
140,0.2316,1957.342
141,0.233267,1957.342
142,0.234933,2030.73
143,0.2366,2102.33
144,0.238267,2177.656
145,0.239933,2177.656
146,0.2416,2255.365
147,0.2433,2330.691
148,0.244933,2330.691
149,0.2466,2405.345
150,0.248267,2481.118
151,0.249933,2560.392
152,0.2516,2560.392
153,0.253267,2642.199
154,0.254933,2729.818
155,0.2566,2819.896
156,0.258267,2819.896
157,0.260033,2906.621
158,0.2616,3000.945
159,0.263267,3098.771
160,0.264933,3098.771
161,0.2666,3201.514
162,0.268267,3311.113
163,0.269933,3311.113
164,0.2716,3420.263
165,0.27325,3531.724
166,0.2749,3649.518
167,0.276567,3649.518
168,0.27825,3776.401
169,0.279933,3911.257
170,0.281633,4054.531
171,0.283233,4054.531
172,0.2849,4203.17
173,0.286567,4360.08
174,0.288233,4530.102
175,0.2899,4530.102
176,0.291567,4709.959
177,0.293233,4902.854
178,0.2949,5107
179,0.296567,5107
180,0.298233,5331.71
181,0.2999,5602.017
182,0.301567,5602.017
183,0.303233,5966.127
184,0.3049,6528.199
185,0.306567,7462.725
186,0.308233,7462.725
187,0.3099,9026.378000000001
188,0.311567,11538.192
189,0.313233,15315.115
190,0.3149,15315.115
191,0.316567,20566.582
192,0.318233,27262.346
193,0.3199,35032.258
194,0.321567,35032.258
195,0.323233,43166.949
196,0.3249,50762.52
197,0.326567,50762.52
198,0.328233,56931.375
199,0.3299,61020.48
200,0.331567,62765.48
201,0.333217,62765.48
202,0.334883,62259.809
203,0.33655,59887.32
204,0.338217,56189.449
205,0.339883,56189.449
206,0.34155,51701.738
207,0.343217,46895.816
208,0.34495,42119.848
209,0.34655,42119.848
210,0.348217,37593.691
211,0.349883,33449.156
212,0.35155,29734.15
213,0.353217,29734.15
214,0.354883,26449.486
215,0.356583,23578.629
216,0.358217,23578.629
217,0.359883,21081.193
218,0.36155,18915.236
219,0.363217,17044.992
220,0.364883,17044.992
221,0.36655,15423
222,0.368233,14012.754
223,0.369883,12789.294
224,0.37155,12789.294
225,0.373217,11721.328
226,0.374883,10790.527
227,0.37655,9979.233
228,0.378317,9979.233
229,0.379883,9269.191999999999
230,0.38155,8642.375
231,0.383217,8642.375
232,0.384883,8089.542
233,0.38655,7601.827
234,0.388217,7166.267
235,0.389883,7166.267
236,0.39155,6781.519
237,0.3932,6441.027
238,0.394867,6131.753
239,0.396533,6131.753
240,0.3982,5857.423
241,0.399867,5608.872
242,0.401533,5380.958
243,0.4032,5380.958
244,0.404867,5175.546
245,0.406533,4984.364
246,0.4082,4984.364
247,0.409867,4810.691
248,0.411533,4651.845
249,0.4132,4504.994
250,0.414867,4504.994
251,0.416567,4366.04
252,0.4182,4236.922
253,0.419867,4111.305
254,0.421533,4111.305
255,0.4232,3993.362
256,0.424867,3886.148
257,0.426533,3783.107
258,0.4282,3783.107
259,0.429867,3690.645
260,0.431533,3600.94
261,0.4332,3514.066
262,0.434867,3514.066
263,0.436533,3429.726
264,0.4382,3349.036
265,0.439867,3349.036
266,0.441567,3274.754
267,0.4432,3202.408
268,0.444867,3135.055
269,0.446533,3135.055
270,0.4482,3066.883
271,0.449867,3001.764
272,0.451533,2937.913
273,0.453183,2937.913
274,0.45485,2876.744
275,0.456517,2818.331
276,0.458183,2760.589
277,0.45985,2760.589
278,0.461517,2708.733
279,0.463267,2658.963
280,0.46485,2658.963
281,0.466517,2612.472
282,0.468183,2568.96
283,0.46985,2524.108
284,0.471517,2524.108
285,0.473183,2477.914
286,0.47485,2431.87
287,0.476517,2390.072
288,0.478183,2390.072
289,0.479883,2349.764
290,0.481517,2313.033
291,0.483183,2277.419
292,0.48485,2277.419
293,0.48655,2240.166
294,0.488183,2203.36
295,0.48985,2169.684
296,0.491517,2169.684
297,0.493183,2136.23
298,0.49485,2103.075
299,0.496617,2076.477
300,0.498183,2076.477
301,0.49985,2045.929
302,0.501517,2018.735
303,0.503183,2018.735
304,0.50485,1992.956
305,0.506517,1963.526
306,0.5081830000000001,1940.057
307,0.50985,1940.057
308,0.511517,1913.831
309,0.5131829999999999,1887.009
310,0.514833,1862.571
311,0.5165,1862.571
312,0.518167,1836.643
313,0.519833,1816.452
314,0.5215,1816.452
315,0.523167,1798.421
316,0.524833,1779.646
317,0.5265,1760.796
318,0.5281670000000001,1760.796
319,0.529833,1743.659
320,0.5315,1727.045
321,0.5331669999999999,1711.771
322,0.534867,1711.771
323,0.5365,1697.317
324,0.538167,1681.969
325,0.539833,1663.268
326,0.5415,1663.268
327,0.543167,1645.014
328,0.544833,1628.697
329,0.5465,1610.07
330,0.548167,1610.07
331,0.549833,1595.84
332,0.5515,1581.982
333,0.553167,1581.982
334,0.554833,1568.794
335,0.5565330000000001,1558.14
336,0.558167,1548.827
337,0.559833,1548.827
338,0.5615,1538.247
339,0.563167,1525.804
340,0.564817,1511.946
341,0.566483,1511.946
342,0.56815,1497.418
343,0.569817,1486.912
344,0.571483,1480.132
345,0.573133,1480.132
346,0.5748,1474.768
347,0.576467,1468.509
348,0.578133,1468.509
349,0.5798,1459.345
350,0.5815669999999999,1450.703
351,0.583133,1439.974
352,0.5848,1439.974
353,0.586467,1431.108
354,0.588133,1425.147
355,0.5898,1416.206
356,0.591467,1416.206
357,0.593133,1410.842
358,0.5948,1402.423
359,0.596467,1393.482
360,0.598133,1393.482
361,0.5998,1387.969
362,0.601467,1382.679
363,0.603133,1382.679
364,0.6048,1377.687
365,0.606467,1373.142
366,0.608133,1367.927
367,0.6098,1367.927
368,0.611467,1360.178
369,0.613133,1355.931
370,0.6149,1350.567
371,0.616467,1350.567
372,0.618133,1342.297
373,0.6198,1337.826
374,0.621467,1329.482
375,0.62315,1329.482
376,0.6248,1321.51
377,0.626467,1319.423
378,0.6281330000000001,1316.443
379,0.6298,1316.443
380,0.631483,1312.718
381,0.633167,1309.887
382,0.634783,1309.887
383,0.63645,1304.15
384,0.638117,1296.699
385,0.639783,1292.527
386,0.64145,1292.527
387,0.643117,1289.844
388,0.644783,1288.205
389,0.64645,1285.076
390,0.6481170000000001,1285.076
391,0.649783,1281.574
392,0.65145,1275.986
393,0.6531169999999999,1270.25
394,0.654783,1270.25
395,0.65645,1266.003
396,0.658117,1263.842
397,0.659783,1263.842
398,0.66145,1262.873
399,0.663117,1263.917
400,0.664783,1261.979
401,0.66645,1261.979
402,0.668117,1256.764
403,0.669783,1254.38
404,0.67145,1248.941
405,0.673117,1248.941
406,0.674783,1248.643
407,0.67645,1250.133
408,0.678117,1247.823
409,0.679783,1247.823
410,0.68145,1245.812
411,0.683117,1243.353
412,0.684783,1240.82
413,0.68645,1240.82
414,0.688117,1240.894
415,0.689783,1241.267
416,0.69145,1241.267
417,0.6931,1239.851
418,0.694767,1238.957
419,0.696433,1236.498
420,0.698133,1236.498
421,0.6998,1234.487
422,0.701433,1231.656
423,0.7030999999999999,1230.091
424,0.704767,1230.091
425,0.706433,1228.824
426,0.7081,1226.291
427,0.709767,1225.546
428,0.711433,1225.546
429,0.7131,1225.099
430,0.714767,1221.225
431,0.716433,1221.225
432,0.7181,1217.499
433,0.719767,1216.009
434,0.721433,1211.166
435,0.7231,1211.166
436,0.7247670000000001,1212.209
437,0.726433,1213.402
438,0.7281,1212.359
439,0.7297670000000001,1212.359
440,0.731433,1214.594
441,0.7332,1211.762
442,0.7347669999999999,1211.464
443,0.736433,1211.464
444,0.7381,1213.551
445,0.739767,1210.049
446,0.741433,1208.857
447,0.7431,1208.857
448,0.744767,1208.335
449,0.746433,1202.747
450,0.7481,1202.747
451,0.749767,1202.002
452,0.751433,1205.355
453,0.7530829999999999,1203.418
454,0.75475,1203.418
455,0.756417,1205.355
456,0.758083,1208.559
457,0.75975,1207.888
458,0.761417,1207.888
459,0.763083,1209.527
460,0.76475,1207.218
461,0.766417,1204.014
462,0.768083,1204.014
463,0.76975,1198.5
464,0.771433,1198.202
465,0.773083,1198.202
466,0.77475,1200.587
467,0.776417,1201.108
468,0.778083,1202.822
469,0.7797500000000001,1202.822
470,0.781417,1199.096
471,0.783083,1195.446
472,0.7847499999999999,1192.54
473,0.786417,1192.54
474,0.788083,1189.783
475,0.78975,1191.05
476,0.791417,1192.614
477,0.793083,1192.614
478,0.79475,1193.956
479,0.796417,1195.967
480,0.798083,1191.497
481,0.79975,1191.497
482,0.801417,1189.709
483,0.803083,1188.591
484,0.80475,1188.591
485,0.8064170000000001,1187.026
486,0.808083,1189.858
487,0.80975,1190.528
488,0.8114170000000001,1190.528
489,0.813067,1191.497
490,0.814733,1193.062
491,0.8164,1190.677
492,0.81815,1190.677
493,0.819733,1189.113
494,0.8214,1187.921
495,0.823067,1188.74
496,0.824733,1188.74
497,0.8264,1190.081
498,0.828067,1188.964
499,0.8297330000000001,1188.964
500,0.8314,1190.528
501,0.833067,1187.697
502,0.8347329999999999,1187.324
503,0.8364,1187.324
504,0.838067,1186.803
505,0.839733,1187.25
506,0.841417,1186.505
507,0.8431,1186.505
508,0.844767,1184.27
509,0.8464,1184.493
510,0.848067,1181.513
511,0.849733,1181.513
512,0.851517,1180.47
513,0.853067,1184.27
514,0.854733,1184.27
515,0.856383,1186.505
516,0.85805,1185.983
517,0.859717,1185.164
518,0.861383,1185.164
519,0.86305,1182.258
520,0.864717,1180.992
521,0.866383,1183.152
522,0.86805,1183.152
523,0.869717,1186.952
524,0.871367,1186.43
525,0.8730329999999999,1186.058
526,0.8747,1186.058
527,0.876367,1185.387
528,0.878033,1182.407
529,0.8797,1184.493
530,0.881367,1184.493
531,0.883033,1184.642
532,0.8847,1183.525
533,0.886367,1183.525
534,0.888033,1183.599
535,0.8897,1181.141
536,0.891367,1179.799
537,0.893033,1179.799
538,0.8947000000000001,1179.203
539,0.896367,1180.246
540,0.898033,1179.576
541,0.8997000000000001,1179.576
542,0.901367,1177.639
543,0.903083,1176.074
544,0.9046999999999999,1176.894
545,0.906367,1176.894
546,0.908033,1177.266
547,0.9097,1181.141
548,0.9114,1181.141
549,0.91305,1180.246
550,0.9147,1177.639
551,0.916367,1178.235
552,0.918033,1178.235
553,0.9197,1177.043
554,0.921367,1178.533
555,0.923033,1180.246
556,0.9247,1180.246
557,0.9263670000000001,1182.78
558,0.928033,1183.376
559,0.9297,1183.748
560,0.9313669999999999,1183.748
561,0.933017,1182.556
562,0.934683,1180.097
563,0.936383,1177.341
564,0.938017,1177.341
565,0.939683,1175.553
566,0.94135,1173.765
567,0.943017,1173.765
568,0.9446830000000001,1173.69
569,0.946367,1176
570,0.948017,1176.745
571,0.9496830000000001,1176.745
572,0.95135,1178.309
573,0.9530999999999999,1177.862
574,0.9546829999999999,1177.415
575,0.95635,1177.415
576,0.958017,1176
577,0.959683,1176.745
578,0.96135,1175.925
579,0.963017,1175.925
580,0.964683,1172.423
581,0.96635,1171.902
582,0.968017,1171.902
583,0.96975,1171.38
584,0.97135,1168.922
585,0.973017,1170.933
586,0.974683,1170.933
587,0.9763500000000001,1171.008
588,0.978017,1168.326
589,0.979683,1172.572
590,0.9813499999999999,1172.572
591,0.983017,1172.945
592,0.984683,1174.957
593,0.986467,1177.937
594,0.988017,1177.937
595,0.9897,1175.106
596,0.991367,1175.478
597,0.993017,1175.478
598,0.994667,1175.329
599,0.996333,1177.043
600,0.998,1179.352
601,0.999667,1179.352
602,1.001333,1178.905
603,1.003,1176.819
604,1.004667,1173.765
605,1.006333,1173.765
606,1.008,1172.721
607,1.009667,1172.423
608,1.011333,1174.286
609,1.013,1174.286
610,1.014667,1176.521
611,1.016333,1177.639
612,1.018,1178.682
613,1.019667,1178.682
614,1.021333,1180.246
615,1.023,1179.129
616,1.024667,1179.129
617,1.026333,1175.478
618,1.028,1175.776
619,1.029667,1175.031
620,1.031333,1175.031
621,1.033,1175.031
622,1.034667,1176.67
623,1.036333,1172.87
624,1.038,1172.87
625,1.039667,1172.349
626,1.041333,1171.753
627,1.043,1170.933
628,1.044667,1170.933
629,1.046333,1172.2
630,1.048,1170.114
631,1.049667,1170.114
632,1.051333,1171.157
633,1.053017,1174.51
634,1.054667,1175.851
635,1.056317,1175.851
636,1.057983,1178.086
637,1.05965,1177.266
638,1.061317,1175.702
639,1.062983,1175.702
640,1.06465,1175.925
641,1.066317,1173.615
642,1.067983,1171.529
643,1.06965,1171.529
644,1.071317,1170.039
645,1.072983,1169.965
646,1.07465,1171.976
647,1.076317,1171.976
648,1.077983,1171.827
649,1.07965,1171.455
650,1.081317,1171.455
651,1.082983,1170.635
652,1.08465,1170.859
653,1.086317,1173.69
654,1.088017,1173.69
655,1.08965,1175.031
656,1.091317,1176.149
657,1.092983,1174.584
658,1.09465,1174.584
659,1.096317,1173.541
660,1.097983,1173.988
661,1.09965,1170.859
662,1.101317,1170.859
663,1.102983,1173.019
664,1.104717,1172.572
665,1.106317,1172.572
666,1.107983,1173.317
667,1.10965,1178.756
668,1.1113,1178.905
669,1.112967,1178.905
670,1.114633,1179.65
671,1.1163,1178.682
672,1.117967,1175.478
673,1.119633,1175.478
674,1.1213,1171.976
675,1.122967,1170.71
676,1.124633,1168.624
677,1.126333,1168.624
678,1.127967,1169.071
679,1.129633,1173.466
680,1.1313,1173.69
681,1.132967,1173.69
682,1.134633,1175.553
683,1.1363,1177.341
684,1.137967,1177.341
685,1.139633,1174.584
686,1.1413,1176.521
687,1.142967,1177.49
688,1.144633,1177.49
689,1.1463,1175.553
690,1.147983,1176.894
691,1.149617,1177.266
692,1.151283,1177.266
693,1.15295,1176
694,1.154617,1176.521
695,1.156283,1176.372
696,1.15795,1176.372
697,1.159617,1175.702
698,1.161283,1173.392
699,1.16295,1173.392
700,1.164617,1170.486
701,1.166283,1169.369
702,1.16795,1168.698
703,1.169617,1168.698
704,1.171283,1172.2
705,1.172933,1173.317
706,1.1746,1171.753
707,1.176267,1171.753
708,1.177933,1172.274
709,1.1796,1172.796
710,1.181267,1172.572
711,1.182933,1172.572
712,1.1846,1174.36
713,1.186267,1173.019
714,1.187933,1173.019
715,1.1896,1170.933
716,1.191267,1175.106
717,1.192933,1175.702
718,1.1946,1175.702
719,1.196283,1174.435
720,1.197933,1173.615
721,1.1996,1171.529
722,1.201267,1171.529
723,1.202933,1173.317
724,1.2046,1174.212
725,1.2063,1176.819
726,1.207933,1176.819
727,1.2096,1175.031
728,1.211267,1172.498
729,1.212933,1171.827
730,1.2146,1171.827
731,1.216267,1169.071
732,1.217933,1170.859
733,1.2196,1170.859
734,1.221267,1171.231
735,1.223033,1171.827
736,1.2246,1174.957
737,1.226267,1174.957
738,1.227933,1174.063
739,1.2296,1174.584
740,1.23125,1173.243
741,1.232917,1173.243
742,1.234583,1170.561
743,1.23625,1167.804
744,1.237933,1168.102
745,1.239633,1168.102
746,1.24125,1169.667
747,1.242917,1168.922
748,1.244583,1168.922
749,1.24625,1172.796
750,1.247917,1172.647
751,1.249583,1170.486
752,1.25125,1170.486
753,1.252917,1170.188
754,1.254583,1166.239
755,1.25625,1166.239
756,1.257917,1166.239
757,1.259583,1170.039
758,1.26125,1172.423
759,1.262917,1177.043
760,1.264583,1177.043
761,1.26625,1177.415
762,1.267933,1173.466
763,1.269583,1170.337
764,1.27125,1170.337
765,1.272917,1166.761
766,1.274583,1163.632
767,1.27625,1163.632
768,1.277917,1165.047
769,1.279583,1168.177
770,1.28125,1167.432
771,1.282917,1167.432
772,1.284583,1169.89
773,1.28625,1171.231
774,1.287917,1169.294
775,1.289583,1169.294
776,1.291233,1170.859
777,1.2929,1171.38
778,1.294567,1169.443
779,1.296233,1169.443
780,1.2979,1169.592
781,1.299567,1169.741
782,1.301233,1169.741
783,1.3029,1170.561
784,1.304567,1171.306
785,1.306233,1170.784
786,1.307967,1170.784
787,1.309567,1170.337
788,1.311233,1169.816
789,1.3129,1172.796
790,1.314567,1172.796
791,1.316233,1172.87
792,1.3179,1171.678
793,1.319583,1168.698
794,1.321233,1168.698
795,1.3229,1167.655
796,1.324567,1169.071
797,1.326233,1169.145
798,1.3279,1169.145
799,1.329567,1169.22
800,1.331233,1166.686
801,1.3329,1166.686
802,1.334567,1166.388
803,1.336233,1168.624
804,1.3379,1170.561
805,1.339567,1170.561
806,1.34125,1172.423
807,1.3429,1175.031
808,1.344567,1175.627
809,1.346233,1175.627
810,1.3479,1174.286
811,1.349567,1173.615
812,1.351233,1173.168
813,1.352883,1173.168
814,1.35455,1172.796
815,1.356217,1173.69
816,1.357883,1173.69
817,1.35955,1175.702
818,1.361217,1171.678
819,1.362883,1169.592
820,1.36455,1169.592
821,1.366217,1170.933
822,1.367883,1170.114
823,1.36955,1170.859
824,1.371217,1170.859
825,1.372883,1170.71
826,1.37455,1167.432
827,1.376217,1166.388
828,1.377883,1166.388
829,1.37955,1168.102
830,1.381217,1168.698
831,1.382883,1171.604
832,1.38455,1171.604
833,1.386217,1172.051
834,1.387883,1173.317
835,1.38955,1173.317
836,1.391217,1174.063
837,1.392883,1174.36
838,1.39455,1173.243
839,1.396217,1173.243
840,1.397883,1173.913
841,1.39955,1176.149
842,1.401217,1174.882
843,1.4029,1174.882
844,1.40455,1173.765
845,1.406217,1172.423
846,1.407883,1170.635
847,1.409567,1170.635
848,1.411217,1169.965
849,1.412867,1171.008
850,1.414533,1171.008
851,1.4162,1171.529
852,1.417867,1169.369
853,1.419533,1167.804
854,1.4212,1167.804
855,1.422867,1169.071
856,1.424533,1168.549
857,1.4263,1169.369
858,1.427867,1169.369
859,1.429533,1172.572
860,1.4312,1171.082
861,1.432867,1171.455
862,1.434533,1171.455
863,1.4362,1173.615
864,1.43785,1173.392
865,1.439517,1173.392
866,1.441183,1172.87
867,1.44285,1169.294
868,1.444517,1166.463
869,1.446183,1166.463
870,1.44785,1163.855
871,1.449517,1167.432
872,1.451183,1169.741
873,1.45285,1169.741
874,1.454517,1172.498
875,1.456183,1172.796
876,1.45785,1168.698
877,1.459633,1168.698
878,1.461183,1166.612
879,1.46285,1166.239
880,1.464517,1166.463
881,1.466183,1166.463
882,1.46785,1168.4
883,1.4695,1170.263
884,1.471183,1170.263
885,1.472833,1170.933
886,1.4745,1173.243
887,1.476167,1171.604
888,1.477833,1171.604
889,1.4795,1170.263
890,1.481167,1169.965
891,1.482833,1167.729
892,1.484517,1167.729
893,1.486217,1168.996
894,1.487833,1168.475
895,1.4895,1167.059
896,1.491167,1167.059
897,1.492833,1169.145
898,1.4945,1167.729
899,1.496167,1167.729
900,1.497833,1167.729
901,1.4995,1169.369
902,1.501167,1169.518
903,1.502833,1169.518
904,1.5045,1170.263
905,1.506167,1170.859
906,1.507833,1168.922
907,1.5095,1168.922
908,1.511167,1165.941
909,1.512833,1166.165
910,1.5145,1164.153
911,1.516167,1164.153
912,1.517833,1162.812
913,1.5195,1162.142
914,1.521167,1164.004
915,1.522833,1164.004
916,1.5245,1169.518
917,1.526167,1172.721
918,1.527833,1172.721
919,1.5295,1175.776
