"ID","sea_time","fid_signal"
1,0,1170.71
2,0.0016,1170.71
3,0.003267,1168.698
4,0.004933,1172.051
5,0.0066,1172.051
6,0.008267,1170.859
7,0.009933000000000001,1168.624
8,0.0116,1168.773
9,0.013267,1168.773
10,0.014933,1162.365
11,0.01665,1161.024
12,0.018267,1163.93
13,0.019933,1163.93
14,0.0216,1162.887
15,0.023267,1166.463
16,0.024933,1169.369
17,0.0266,1169.369
18,0.02825,1169.443
19,0.029917,1171.976
20,0.031583,1171.976
21,0.03325,1173.243
22,0.034917,1170.263
23,0.0366,1169.741
24,0.038267,1169.741
25,0.039967,1169.22
26,0.041583,1166.537
27,0.04325,1169.741
28,0.044917,1169.741
29,0.046583,1171.678
30,0.04825,1172.498
31,0.049917,1173.392
32,0.051583,1173.392
33,0.05325,1169.89
34,0.054917,1168.624
35,0.056583,1168.624
36,0.05825,1166.314
37,0.059917,1165.494
38,0.061583,1168.773
39,0.06325,1168.773
40,0.064917,1169.294
41,0.066583,1168.326
42,0.06825000000000001,1168.698
43,0.06991700000000001,1168.698
44,0.07158299999999999,1169.518
45,0.07325,1169.667
46,0.074917,1173.839
47,0.076583,1173.839
48,0.07825,1175.851
49,0.079917,1170.784
50,0.081583,1172.125
51,0.08325,1172.125
52,0.0849,1168.027
53,0.08656700000000001,1168.4
54,0.08823300000000001,1168.4
55,0.08989999999999999,1174.063
56,0.091567,1170.71
57,0.093233,1171.902
58,0.0949,1171.902
59,0.096567,1169.816
60,0.098233,1167.059
61,0.09993299999999999,1167.58
62,0.101633,1167.58
63,0.103233,1168.475
64,0.1049,1168.922
65,0.106567,1169.89
66,0.108233,1169.89
67,0.1099,1172.125
68,0.1116,1172.572
69,0.113233,1172.572
70,0.1149,1175.329
71,0.116567,1175.702
72,0.118267,1175.404
73,0.1199,1175.404
74,0.121567,1176.074
75,0.123233,1175.776
76,0.1249,1176.149
77,0.126567,1176.149
78,0.128233,1177.937
79,0.1299,1175.553
80,0.131567,1175.553
81,0.133233,1175.553
82,0.134967,1175.925
83,0.136567,1171.902
84,0.138233,1171.753
85,0.1399,1171.753
86,0.141567,1168.549
87,0.143233,1165.271
88,0.1449,1165.271
89,0.146567,1164.228
90,0.148217,1164.6
91,0.149883,1164.675
92,0.15155,1164.675
93,0.153217,1164.228
94,0.154883,1166.835
95,0.15655,1168.177
96,0.158217,1168.177
97,0.159883,1170.188
98,0.16155,1171.902
99,0.163217,1169.816
100,0.164883,1169.816
101,0.16655,1169.592
102,0.168217,1167.506
103,0.169883,1167.506
104,0.17155,1166.984
105,0.17325,1166.91
106,0.174883,1165.718
107,0.17655,1165.718
108,0.178217,1169.592
109,0.179883,1169.369
110,0.18155,1171.231
111,0.183217,1171.231
112,0.184883,1171.902
113,0.18655,1168.475
114,0.188233,1166.984
115,0.189883,1166.984
116,0.19155,1168.4
117,0.193217,1169.592
118,0.1949,1172.796
119,0.19655,1172.796
120,0.198217,1176.745
121,0.199883,1176.819
122,0.20155,1176.819
123,0.203217,1180.693
124,0.204883,1189.858
125,0.20655,1204.088
126,0.2082,1204.088
127,0.209867,1223.311
128,0.211533,1246.035
129,0.2132,1269.206
130,0.214867,1269.206
131,0.216533,1297.072
132,0.2182,1330.599
133,0.219867,1368.299
134,0.221533,1368.299
135,0.2232,1407.042
136,0.224867,1445.115
137,0.226533,1445.115
138,0.2282,1483.485
139,0.229867,1523.048
140,0.231533,1565.069
141,0.2332,1565.069
142,0.234867,1609.176
143,0.236583,1654.252
144,0.2382,1698.732
145,0.239867,1698.732
146,0.241533,1744.851
147,0.243217,1793.28
148,0.244867,1842.529
149,0.246533,1842.529
150,0.2482,1893.714
151,0.249867,1947.209
152,0.251533,1947.209
153,0.2533,2001.449
154,0.254867,2059.862
155,0.256533,2119.616
156,0.2582,2119.616
157,0.259867,2185.628
158,0.261533,2256.706
159,0.2632,2332.181
160,0.264867,2332.181
161,0.266517,2413.615
162,0.268183,2495.646
163,0.26985,2585.277
164,0.271517,2585.277
165,0.273183,2681.166
166,0.27485,2781.823
167,0.276517,2887.1
168,0.278183,2887.1
169,0.27985,2996.4
170,0.2815,3111.064
171,0.283167,3111.064
172,0.284833,3235.787
173,0.2865,3376.007
174,0.288167,3527.105
175,0.289833,3527.105
176,0.291533,3691.092
177,0.293167,3872.812
178,0.294833,4074.648
179,0.2965,4074.648
180,0.298167,4325.509
181,0.299833,4664.361
182,0.3015,5159.005
183,0.303167,5159.005
184,0.304833,5911.514
185,0.3065,7035.956
186,0.308167,7035.956
187,0.309833,8638.65
188,0.3115,10771.155
189,0.3132,13397.857
190,0.314833,13397.857
191,0.3165,16363.412
192,0.318167,19424.26
193,0.319833,22288.561
194,0.3215,22288.561
195,0.323167,24670.438
196,0.324833,26359.633
197,0.326483,27247.295
198,0.32815,27247.295
199,0.329817,27345.344
200,0.331483,26750.938
201,0.33315,25624.855
202,0.334817,25624.855
203,0.336483,24142.488
204,0.33815,22461.713
205,0.339817,22461.713
206,0.341483,20710.527
207,0.34315,18980.131
208,0.344817,17331.168
209,0.346483,17331.168
210,0.34815,15789.866
211,0.349817,14379.77
212,0.351483,13103.336
213,0.35315,13103.336
214,0.354817,11956.915
215,0.356483,10934.547
216,0.35815,10023.937
217,0.359817,10023.937
218,0.361483,9216.889999999999
219,0.363167,8499.397999999999
220,0.364817,8499.397999999999
221,0.366483,7866.323
222,0.36815,7309.914
223,0.369817,6816.089
224,0.37155,6816.089
225,0.37315,6381.422
226,0.374817,5996.525
227,0.376483,5650.073
228,0.37815,5650.073
229,0.379817,5341.321
230,0.3815,5066.693
231,0.38315,4819.185
232,0.384817,4819.185
233,0.386467,4597.902
234,0.388133,4396.587
235,0.389833,4212.633
236,0.391467,4212.633
237,0.393133,4046.187
238,0.3948,3893.599
239,0.396467,3893.599
240,0.398133,3754.348
241,0.3998,3626.198
242,0.401467,3506.988
243,0.403133,3506.988
244,0.4048,3397.092
245,0.406467,3296.509
246,0.408133,3203.303
247,0.4098,3203.303
248,0.411467,3114.715
249,0.413133,3031.045
250,0.4148,2952.963
251,0.416467,2952.963
252,0.418133,2878.159
253,0.4198,2806.112
254,0.421467,2806.112
255,0.423133,2738.237
256,0.4248,2673.715
257,0.426467,2610.833
258,0.428133,2610.833
259,0.4298,2552.718
260,0.431467,2498.478
261,0.433133,2442.822
262,0.4348,2442.822
263,0.436467,2394.244
264,0.438133,2348.945
265,0.4398,2301.931
266,0.441467,2301.931
267,0.443133,2260.953
268,0.4448,2218.634
269,0.44645,2218.634
270,0.448117,2179.816
271,0.449783,2143.905
272,0.45145,2107.248
273,0.453117,2107.248
274,0.454783,2072.156
275,0.456467,2038.553
276,0.458117,2005.324
277,0.45985,2005.324
278,0.46145,1974.702
279,0.463117,1946.688
280,0.464783,1914.427
281,0.46645,1914.427
282,0.468117,1888.052
283,0.469783,1859.143
284,0.47145,1830.906
285,0.473167,1830.906
286,0.474783,1808.405
287,0.47645,1782.402
288,0.478117,1782.402
289,0.479783,1761.317
290,0.48145,1739.636
291,0.483117,1718.178
292,0.484783,1718.178
293,0.48645,1699.254
294,0.488117,1680.255
295,0.48985,1663.789
296,0.49145,1663.789
297,0.493117,1648.366
298,0.494783,1632.124
299,0.49645,1616.329
300,0.498117,1616.329
301,0.499783,1599.714
302,0.50145,1580.864
303,0.503117,1580.864
304,0.504783,1561.12
305,0.50645,1545.101
306,0.5081,1531.169
307,0.509767,1531.169
308,0.511433,1518.205
309,0.5131,1508.817
310,0.514767,1499.355
311,0.516433,1499.355
312,0.5181,1488.328
313,0.519767,1478.717
314,0.521433,1471.415
315,0.5231,1471.415
316,0.524767,1462.4
317,0.526433,1455.173
318,0.5281,1448.318
319,0.529767,1448.318
320,0.531433,1436.77
321,0.5331,1427.01
322,0.534767,1427.01
323,0.53645,1415.461
324,0.5381,1406.148
325,0.539767,1398.772
326,0.5414330000000001,1398.772
327,0.5431,1390.427
328,0.544767,1384.988
329,0.5464329999999999,1374.632
330,0.5481,1374.632
331,0.549767,1365.542
332,0.551433,1358.017
333,0.5531,1350.12
334,0.554767,1350.12
335,0.556433,1347.512
336,0.5581,1344.755
337,0.559767,1344.755
338,0.561433,1342.446
339,0.5631,1338.124
340,0.564767,1331.046
341,0.566433,1331.046
342,0.568083,1325.235
343,0.56975,1318.455
344,0.571417,1313.463
345,0.573067,1313.463
346,0.57475,1307.279
347,0.5764,1302.734
348,0.578067,1298.115
349,0.5797330000000001,1298.115
350,0.5814,1292.974
351,0.583067,1288.876
352,0.5847329999999999,1288.876
353,0.5864,1285.598
354,0.588067,1281.053
355,0.589733,1278.222
356,0.591467,1278.222
357,0.593067,1277.178
358,0.594733,1272.038
359,0.5964,1270.1
360,0.598067,1270.1
361,0.599733,1265.779
362,0.6014,1263.171
363,0.603067,1262.352
364,0.604733,1262.352
365,0.6064000000000001,1256.689
366,0.60815,1254.454
367,0.609733,1251.772
368,0.6114000000000001,1251.772
369,0.613067,1248.196
370,0.614733,1246.035
371,0.6163999999999999,1246.035
372,0.618067,1244.247
373,0.619733,1240.969
374,0.6214,1242.533
375,0.623067,1242.533
376,0.624733,1242.31
377,0.6264,1240.447
378,0.62805,1240.447
379,0.629717,1240.447
380,0.631383,1235.455
381,0.63305,1235.232
382,0.634717,1233.742
383,0.636383,1233.742
384,0.63805,1232.326
385,0.639717,1233.295
386,0.641383,1233.295
387,0.64305,1231.432
388,0.644717,1228.973
389,0.646383,1225.397
390,0.64805,1225.397
391,0.649717,1222.64
392,0.651383,1223.087
393,0.65305,1222.864
394,0.654717,1222.864
395,0.656383,1221.821
396,0.65805,1219.66
397,0.659717,1214.147
398,0.6613830000000001,1214.147
399,0.66305,1213.253
400,0.664717,1213.998
401,0.6663829999999999,1212.88
402,0.66805,1212.88
403,0.669717,1214.37
404,0.671383,1214.594
405,0.67305,1214.594
406,0.674717,1211.762
407,0.6764,1212.954
408,0.67805,1214.072
409,0.679717,1214.072
410,0.681383,1214.743
411,0.683083,1217.276
412,0.684717,1214.519
413,0.6863669999999999,1214.519
414,0.688033,1208.931
415,0.6897,1204.088
416,0.691367,1200.81
417,0.693033,1200.81
418,0.6947,1198.277
419,0.696367,1198.724
420,0.698033,1198.724
421,0.6997,1198.575
422,0.701367,1196.861
423,0.703033,1197.383
424,0.7047,1197.383
425,0.706367,1196.563
426,0.708033,1193.657
427,0.709767,1195.148
428,0.711367,1195.148
429,0.713033,1195.446
430,0.7147,1195.744
431,0.716367,1196.638
432,0.718033,1196.638
433,0.7197,1193.359
434,0.721367,1194.03
435,0.723033,1193.732
436,0.7247,1193.732
437,0.726433,1195.446
438,0.728033,1198.649
439,0.7297,1198.649
440,0.731367,1198.128
441,0.733033,1198.575
442,0.7347,1198.053
443,0.736367,1198.053
444,0.7380330000000001,1197.755
445,0.7397,1199.171
446,0.741367,1199.469
447,0.743133,1199.469
448,0.7447,1199.32
449,0.74635,1195.967
450,0.748017,1192.018
451,0.749683,1192.018
452,0.75135,1190.975
453,0.753033,1189.113
454,0.754733,1189.113
455,0.75635,1188.889
456,0.7580170000000001,1188.74
457,0.759683,1187.548
458,0.76135,1187.548
459,0.7630169999999999,1185.909
460,0.764683,1185.685
461,0.766367,1185.089
462,0.7680169999999999,1185.089
463,0.769683,1186.729
464,0.77135,1187.474
465,0.773017,1188.442
466,0.7747000000000001,1188.442
467,0.77635,1190.379
468,0.778017,1186.207
469,0.779683,1184.866
470,0.78135,1184.866
471,0.783017,1185.164
472,0.784683,1182.854
473,0.78635,1182.854
474,0.788017,1186.132
475,0.789683,1186.281
476,0.79135,1181.513
477,0.793017,1181.513
478,0.794683,1180.768
479,0.79635,1178.682
480,0.798017,1179.576
481,0.799683,1179.576
482,0.80135,1183.45
483,0.803017,1185.611
484,0.804683,1185.76
485,0.80635,1185.76
486,0.8080000000000001,1186.356
487,0.809667,1185.983
488,0.811333,1185.983
489,0.8129999999999999,1185.834
490,0.814667,1187.399
491,0.816333,1187.474
492,0.8179999999999999,1187.474
493,0.819667,1189.187
494,0.821383,1189.113
495,0.823,1186.207
496,0.824667,1186.207
497,0.826333,1184.94
498,0.828033,1185.089
499,0.829667,1183.599
500,0.831333,1183.599
501,0.833,1184.419
502,0.834667,1184.791
503,0.836333,1184.791
504,0.838,1182.407
505,0.8396670000000001,1179.054
506,0.841333,1178.533
507,0.843,1178.533
508,0.844733,1179.576
509,0.846333,1178.905
510,0.848,1183.748
511,0.849667,1183.748
512,0.851333,1184.791
513,0.853,1181.439
514,0.854667,1184.195
515,0.856333,1184.195
516,0.858,1182.705
517,0.859667,1181.96
518,0.861433,1187.026
519,0.863,1187.026
520,0.864667,1186.505
521,0.866317,1185.909
522,0.867967,1185.909
523,0.869633,1186.729
524,0.8713,1182.631
525,0.872967,1180.992
526,0.874633,1180.992
527,0.8763,1183.227
528,0.8779670000000001,1184.195
529,0.879633,1184.344
530,0.8813,1184.344
531,0.8829669999999999,1183.897
532,0.884633,1179.725
533,0.8863,1178.086
534,0.887967,1178.086
535,0.889633,1179.129
536,0.8913,1180.992
537,0.893,1180.992
538,0.894633,1182.035
539,0.8963,1182.035
540,0.897967,1181.364
541,0.899633,1181.364
542,0.9013,1179.874
543,0.902967,1179.948
544,0.904633,1180.992
545,0.9063,1180.992
546,0.907967,1181.811
547,0.909633,1180.693
548,0.9113,1179.427
549,0.912967,1179.427
550,0.914633,1177.49
551,0.9163,1178.756
552,0.917967,1180.023
553,0.919633,1180.023
554,0.9213,1184.717
555,0.922967,1186.207
556,0.924633,1186.207
557,0.9263,1184.046
558,0.9279500000000001,1182.854
559,0.929617,1179.203
560,0.931283,1179.203
561,0.9329499999999999,1174.882
562,0.934617,1172.498
563,0.936283,1174.36
564,0.93795,1174.36
565,0.939617,1176.149
566,0.9413,1180.396
567,0.94295,1182.556
568,0.944617,1182.556
569,0.94635,1179.65
570,0.94795,1179.501
571,0.949617,1179.501
572,0.951283,1178.458
573,0.952967,1175.702
574,0.954617,1176.968
575,0.956283,1176.968
576,0.95795,1176.67
577,0.9596170000000001,1174.435
578,0.961283,1178.086
579,0.963,1178.086
580,0.964633,1178.235
581,0.966283,1177.043
582,0.96795,1180.843
583,0.969617,1180.843
584,0.971283,1181.886
585,0.97295,1182.109
586,0.974617,1182.258
587,0.976283,1182.258
588,0.97795,1177.713
589,0.9797,1176.074
590,0.981283,1176.074
591,0.98295,1176.074
592,0.984617,1175.776
593,0.986283,1179.352
594,0.98795,1179.352
595,0.9896,1179.352
596,0.991267,1178.831
597,0.992933,1180.023
598,0.9946,1180.023
599,0.996267,1177.788
600,0.997933,1174.36
601,0.9996,1173.988
602,1.001267,1173.988
603,1.002933,1173.765
604,1.0046,1175.851
605,1.006267,1175.851
606,1.007933,1179.278
607,1.0096,1180.172
608,1.011267,1176.968
609,1.012933,1176.968
610,1.0146,1176.298
611,1.016267,1175.031
612,1.017933,1172.349
613,1.0196,1172.349
614,1.021267,1173.466
615,1.022933,1171.157
