"ID","sea_time","fid_signal"
1,0,37.802
2,0.00165,37.809
3,0.003317,37.809
4,0.004983,37.83
5,0.00665,37.817
6,0.008317,37.736
7,0.009983000000000001,37.736
8,0.01165,37.6
9,0.0134,37.44
10,0.014983,37.396
11,0.016683,37.396
12,0.018317,37.456
13,0.019983,37.608
14,0.02165,37.608
15,0.023317,37.748
16,0.024983,37.801
17,0.02665,37.865
18,0.028317,37.865
19,0.030017,37.882
20,0.03165,37.912
21,0.033317,37.91
22,0.034983,37.91
23,0.03665,37.877
24,0.038317,37.885
25,0.039983,37.844
26,0.04165,37.844
27,0.043317,37.841
28,0.044983,37.845
29,0.04665,37.845
30,0.048317,37.847
31,0.049983,37.876
32,0.051683,37.865
33,0.053317,37.865
34,0.054983,37.847
35,0.05665,37.806
36,0.058317,37.792
37,0.059983,37.792
38,0.061633,37.828
39,0.0633,37.84
40,0.064967,37.859
41,0.066633,37.859
42,0.0683,37.864
43,0.069967,37.815
44,0.071633,37.786
45,0.0733,37.786
46,0.07496700000000001,37.795
47,0.07663300000000001,37.774
48,0.07829999999999999,37.774
49,0.079967,37.797
50,0.081633,37.825
51,0.0833,37.806
52,0.084967,37.806
53,0.086633,37.812
54,0.0883,37.797
55,0.08996700000000001,37.783
56,0.09163300000000001,37.783
57,0.09329999999999999,37.784
58,0.094967,37.824
59,0.096633,37.824
60,0.0983,37.824
61,0.1,37.84
62,0.101633,37.882
63,0.1033,37.882
64,0.104967,37.847
65,0.106633,37.888
66,0.1083,37.916
67,0.109967,37.916
68,0.111633,37.877
69,0.1133,37.857
70,0.115033,37.82
71,0.116633,37.82
72,0.1183,37.774
73,0.12,37.771
74,0.121633,37.79
75,0.123283,37.79
76,0.12495,37.806
77,0.126617,37.826
78,0.128283,37.81
79,0.12995,37.81
80,0.1317,37.806
81,0.133283,37.812
82,0.13495,37.812
83,0.136617,37.824
84,0.138283,37.845
85,0.13995,37.847
86,0.141617,37.847
87,0.143283,37.83
88,0.14495,37.837
89,0.146617,37.833
90,0.148383,37.833
91,0.14995,37.864
92,0.151617,37.905
93,0.153283,37.884
94,0.15495,37.884
95,0.156617,37.864
96,0.158283,37.826
97,0.15995,37.826
98,0.161617,37.818
99,0.163283,37.824
100,0.16495,37.84
101,0.166617,37.84
102,0.168283,37.871
103,0.16995,37.845
104,0.171617,37.827
105,0.173283,37.827
106,0.17495,37.808
107,0.176617,37.778
108,0.178283,37.77
109,0.17995,37.77
110,0.181617,37.76
111,0.183267,37.787
112,0.184933,37.816
113,0.1866,37.816
114,0.188267,37.819
115,0.189933,37.844
116,0.1916,37.844
117,0.193267,37.866
118,0.194917,37.868
119,0.196583,37.89
120,0.19825,37.89
121,0.199917,37.894
122,0.201583,37.871
123,0.20325,37.841
124,0.204917,37.841
125,0.206583,37.831
126,0.20825,37.833
127,0.209917,37.838
128,0.211583,37.838
129,0.21325,37.829
130,0.214917,37.845
131,0.216583,37.845
132,0.21825,37.859
133,0.219917,37.894
134,0.221583,37.951
135,0.22325,37.951
136,0.224917,37.974
137,0.226583,37.996
138,0.22825,38.012
139,0.229917,38.012
140,0.231583,38.063
141,0.233267,38.128
142,0.234917,38.245
143,0.236583,38.245
144,0.23825,38.473
145,0.2399,38.801
146,0.241567,38.801
147,0.243233,39.294
148,0.2449,40.028
149,0.246567,41.011
150,0.248233,41.011
151,0.249967,42.311
152,0.251567,44.018
153,0.253233,46.107
154,0.2549,46.107
155,0.256567,48.646
156,0.258233,51.678
157,0.2599,55.191
158,0.261567,55.191
159,0.26325,59.236
160,0.264917,63.724
161,0.26665,68.676
162,0.268233,68.676
163,0.2699,74.047
164,0.271567,79.78400000000001
165,0.273233,79.78400000000001
166,0.2749,85.937
167,0.276567,92.386
168,0.278233,99.15000000000001
169,0.2799,99.15000000000001
170,0.281567,106.156
171,0.28335,113.399
172,0.2849,120.869
173,0.286567,120.869
174,0.288233,128.558
175,0.2899,136.486
176,0.291567,144.616
177,0.293233,144.616
178,0.2949,152.989
179,0.296567,161.557
180,0.298233,161.557
181,0.2999,170.395
182,0.30155,179.48
183,0.303217,188.85
184,0.304883,188.85
185,0.30655,198.548
186,0.308217,208.519
187,0.309883,218.8
188,0.31155,218.8
189,0.313217,229.305
190,0.314883,240.071
191,0.31655,251.057
192,0.318217,251.057
193,0.319883,262.222
194,0.32155,273.611
195,0.323217,285.172
196,0.324883,285.172
197,0.32655,296.928
198,0.328217,308.934
199,0.3299,308.934
200,0.33155,321.24
201,0.333217,333.957
202,0.334883,347.182
203,0.33655,347.182
204,0.338217,361.154
205,0.339883,376.181
206,0.341567,392.765
207,0.343217,392.765
208,0.344883,411.616
209,0.34655,433.651
210,0.348217,460.035
211,0.349883,460.035
212,0.35155,491.951
213,0.353217,530.449
214,0.354883,530.449
215,0.35655,576.1900000000001
216,0.3582,629.1950000000001
217,0.359867,688.737
218,0.361533,688.737
219,0.3632,753.385
220,0.364867,821.028
221,0.366533,889.0410000000001
222,0.36825,889.0410000000001
223,0.369867,954.652
224,0.371533,1015.173
225,0.3732,1068.186
226,0.374867,1068.186
227,0.376533,1111.797
228,0.3782,1144.803
229,0.379867,1166.619
230,0.381533,1166.619
231,0.3832,1177.275
232,0.384917,1177.305
233,0.386533,1177.305
234,0.3882,1167.617
235,0.389867,1149.358
236,0.391533,1123.781
237,0.3932,1123.781
238,0.394867,1092.256
239,0.396533,1056.054
240,0.3982,1016.384
241,0.399867,1016.384
242,0.40165,974.35
243,0.403217,930.905
244,0.404867,886.8440000000001
245,0.406533,886.8440000000001
246,0.408217,842.796
247,0.409867,799.2859999999999
248,0.411533,799.2859999999999
249,0.4132,756.758
250,0.414867,715.513
251,0.416533,675.8099999999999
252,0.4182,675.8099999999999
253,0.419867,637.84
254,0.421517,601.668
255,0.423183,567.3579999999999
256,0.42485,567.3579999999999
257,0.426517,534.924
258,0.428183,504.38
259,0.42985,475.707
260,0.431517,475.707
261,0.433183,448.838
262,0.43485,423.757
263,0.436533,400.358
264,0.438183,400.358
265,0.43985,378.523
266,0.441517,358.198
267,0.443183,358.198
268,0.44485,339.269
269,0.446517,321.642
270,0.448183,305.289
271,0.44985,305.289
272,0.451517,290.111
273,0.453183,275.967
274,0.45485,262.844
275,0.456517,262.844
276,0.458183,250.654
277,0.45985,239.298
278,0.461517,228.754
279,0.463183,228.754
280,0.46485,218.918
281,0.466517,209.786
282,0.468183,209.786
283,0.46985,201.251
284,0.471517,193.325
285,0.473233,185.959
286,0.47485,185.959
287,0.476517,179.052
288,0.478183,172.634
289,0.47985,166.647
290,0.481517,166.647
291,0.483167,161.003
292,0.484833,155.698
293,0.486517,150.727
294,0.48815,150.727
295,0.489817,146.025
296,0.491483,141.599
297,0.49315,141.599
298,0.494817,137.459
299,0.496483,133.571
300,0.49815,129.889
301,0.499817,129.889
302,0.501483,126.436
303,0.503167,123.135
304,0.504817,120.009
305,0.506483,120.009
306,0.50815,117.048
307,0.509817,114.245
308,0.511483,111.599
309,0.51315,111.599
310,0.514817,109.087
311,0.516483,106.706
312,0.51815,104.443
313,0.519933,104.443
314,0.521483,102.302
315,0.52315,100.212
316,0.52485,100.212
317,0.526483,98.229
318,0.52815,96.32899999999999
319,0.529817,94.504
320,0.531483,94.504
321,0.53315,92.77500000000001
322,0.534817,91.099
323,0.536483,89.47499999999999
324,0.53815,89.47499999999999
325,0.539817,87.901
326,0.541467,86.437
327,0.543133,85.04300000000001
328,0.5448,85.04300000000001
329,0.5464830000000001,83.715
330,0.548183,82.414
331,0.5498,82.414
332,0.551467,81.114
333,0.553133,79.878
334,0.5548,78.67400000000001
335,0.556467,78.67400000000001
336,0.558133,77.56399999999999
337,0.5598,76.497
338,0.561467,75.45099999999999
339,0.563133,75.45099999999999
340,0.5648,74.422
341,0.5664670000000001,73.399
342,0.568133,72.40900000000001
343,0.5698,72.40900000000001
344,0.5714669999999999,71.47
345,0.573133,70.608
346,0.5748,69.73999999999999
347,0.576467,69.73999999999999
348,0.5781500000000001,68.914
349,0.5798,68.092
350,0.581467,68.092
351,0.583133,67.282
352,0.5848,66.532
353,0.586467,65.798
354,0.588133,65.798
355,0.5898,65.08199999999999
356,0.591467,64.399
357,0.593133,63.742
358,0.5948,63.742
359,0.596467,63.088
360,0.598133,62.45
361,0.599783,61.844
362,0.601483,61.844
363,0.603117,61.25
364,0.604783,60.702
365,0.60645,60.702
366,0.608117,60.178
367,0.609783,59.632
368,0.61145,59.094
369,0.613117,59.094
370,0.614833,58.581
371,0.6164500000000001,58.112
372,0.618117,57.661
373,0.619783,57.661
374,0.6214499999999999,57.21
375,0.623117,56.741
376,0.624783,56.254
377,0.62645,56.254
378,0.628117,55.797
379,0.629783,55.372
380,0.63145,55.372
381,0.633117,54.966
382,0.634783,54.548
383,0.63645,54.15
384,0.6382330000000001,54.15
385,0.639783,53.769
386,0.64145,53.387
387,0.643117,53.038
388,0.644783,53.038
389,0.64645,52.699
390,0.6481170000000001,52.379
391,0.649783,52.075
392,0.65145,52.075
393,0.6531169999999999,51.776
394,0.654783,51.447
395,0.65645,51.128
396,0.658117,51.128
397,0.659783,50.815
398,0.661433,50.518
399,0.6631,50.518
400,0.664767,50.242
401,0.6664330000000001,49.986
402,0.6681,49.739
403,0.669767,49.739
404,0.6714329999999999,49.488
405,0.6731,49.262
406,0.674767,48.993
407,0.676433,48.993
408,0.6781,48.715
409,0.679767,48.481
410,0.681433,48.225
411,0.6831,48.225
412,0.684817,48.01
413,0.68645,47.822
414,0.6881,47.822
415,0.689767,47.634
416,0.691433,47.463
417,0.6931,47.266
418,0.694767,47.266
419,0.696433,47.09
420,0.6981000000000001,46.911
421,0.699767,46.694
422,0.701433,46.694
423,0.7030999999999999,46.501
424,0.704767,46.325
425,0.706433,46.139
426,0.7081,46.139
427,0.709767,45.986
428,0.711433,45.842
429,0.7131,45.65
430,0.714767,45.65
431,0.716433,45.496
432,0.7181,45.358
433,0.719767,45.358
434,0.721417,45.207
435,0.72315,45.077
436,0.72475,44.921
437,0.726417,44.921
438,0.728083,44.777
439,0.72975,44.651
440,0.731417,44.525
441,0.733083,44.525
442,0.73475,44.429
443,0.736417,44.293
444,0.738083,44.177
445,0.73975,44.177
446,0.741417,44.046
447,0.743083,43.894
448,0.74475,43.894
449,0.746417,43.765
450,0.7480830000000001,43.643
451,0.74975,43.535
452,0.751417,43.535
453,0.7530829999999999,43.409
454,0.75475,43.313
455,0.756433,43.223
456,0.7581,43.223
457,0.75975,43.145
458,0.761417,43.079
459,0.763083,43.01
460,0.76475,43.01
461,0.766417,42.886
462,0.768083,42.801
463,0.76975,42.705
464,0.771417,42.705
465,0.773083,42.615
466,0.77475,42.574
467,0.776417,42.574
468,0.778067,42.506
469,0.779733,42.443
470,0.781383,42.396
471,0.78305,42.396
472,0.784717,42.329
473,0.7863830000000001,42.233
474,0.78805,42.159
475,0.789717,42.159
476,0.7913829999999999,42.051
477,0.79305,41.945
478,0.794717,41.872
479,0.796383,41.872
480,0.79805,41.781
481,0.799717,41.725
482,0.801383,41.725
483,0.80305,41.679
484,0.804717,41.609
485,0.806383,41.58
486,0.80805,41.58
487,0.809717,41.518
488,0.811383,41.436
489,0.8130500000000001,41.415
490,0.814717,41.415
491,0.816383,41.35
492,0.8180500000000001,41.299
493,0.819717,41.26
494,0.821383,41.26
495,0.823083,41.21
496,0.824717,41.149
497,0.826383,41.149
498,0.82805,41.098
499,0.829717,41.082
500,0.831383,41
501,0.833067,41
502,0.834717,40.959
503,0.836383,40.898
504,0.83805,40.812
505,0.839717,40.812
506,0.84145,40.802
507,0.843033,40.796
508,0.8447,40.768
509,0.846367,40.768
510,0.848033,40.755
511,0.8497,40.705
512,0.851367,40.652
513,0.853033,40.652
514,0.8547,40.615
515,0.856367,40.577
516,0.858033,40.577
517,0.8597,40.534
518,0.861367,40.469
519,0.8630330000000001,40.416
520,0.8647,40.416
521,0.866367,40.386
522,0.8680330000000001,40.341
523,0.8697,40.326
524,0.871367,40.326
525,0.8730329999999999,40.291
526,0.874817,40.268
527,0.876367,40.238
528,0.878033,40.238
529,0.8797,40.226
530,0.881367,40.245
531,0.883033,40.245
532,0.8847,40.203
533,0.886367,40.185
534,0.888033,40.178
535,0.8897,40.178
536,0.891367,40.148
537,0.893033,40.112
538,0.8947000000000001,40.098
539,0.896367,40.098
540,0.898033,40.058
541,0.8997000000000001,40.016
542,0.901383,39.999
543,0.903017,39.999
544,0.904683,39.959
545,0.90635,39.914
546,0.908017,39.877
547,0.909683,39.877
548,0.91135,39.844
549,0.913017,39.837
550,0.914683,39.837
551,0.91635,39.834
552,0.918017,39.819
553,0.919683,39.801
554,0.92135,39.801
555,0.923017,39.784
556,0.924683,39.759
557,0.92635,39.741
558,0.92805,39.741
559,0.929683,39.735
560,0.93135,39.697
561,0.933017,39.648
562,0.934683,39.648
563,0.93635,39.624
564,0.938017,39.616
565,0.939683,39.616
566,0.94135,39.581
567,0.943017,39.573
568,0.9446830000000001,39.595
569,0.94635,39.595
570,0.948017,39.58
571,0.9496830000000001,39.592
572,0.95135,39.591
573,0.953017,39.591
574,0.9546829999999999,39.544
575,0.95635,39.505
576,0.958017,39.462
577,0.95975,39.462
578,0.961333,39.419
579,0.963017,39.385
580,0.964717,39.363
581,0.966333,39.363
582,0.968,39.365
583,0.9696669999999999,39.344
584,0.971333,39.344
585,0.973,39.325
586,0.974667,39.296
587,0.976417,39.254
588,0.978,39.254
589,0.979667,39.259
590,0.9813499999999999,39.263
591,0.983,39.266
592,0.984667,39.266
593,0.986333,39.273
594,0.988,39.265
595,0.989667,39.268
596,0.991333,39.268
597,0.993117,39.244
598,0.994667,39.262
599,0.996333,39.262
600,0.998,39.278
601,0.999667,39.274
602,1.001333,39.275
603,1.003,39.275
604,1.004667,39.235
605,1.006333,39.209
606,1.008,39.174
607,1.009667,39.174
608,1.011333,39.147
609,1.013,39.155
610,1.014667,39.137
611,1.016333,39.137
612,1.018033,39.138
613,1.019667,39.165
614,1.021317,39.165
615,1.022983,39.139
616,1.02465,39.126
617,1.026317,39.117
618,1.027983,39.117
619,1.02965,39.107
620,1.031317,39.092
621,1.032983,39.089
622,1.03465,39.089
623,1.036317,39.088
624,1.038017,39.051
625,1.03965,39.078
626,1.041317,39.078
627,1.042983,39.091
628,1.04465,39.098
629,1.046317,39.099
630,1.047983,39.099
631,1.04965,39.063
632,1.051317,39.008
633,1.052983,39.008
634,1.05465,38.987
635,1.056317,38.981
636,1.057983,38.991
637,1.05965,38.991
638,1.061317,39.031
639,1.062983,39.019
640,1.06465,39.007
641,1.066317,39.007
642,1.067983,38.962
643,1.069633,38.93
644,1.0713,38.887
645,1.072967,38.887
646,1.074633,38.873
647,1.0763,38.899
648,1.077983,38.899
649,1.079633,38.873
650,1.081283,38.853
651,1.08295,38.839
652,1.084617,38.839
653,1.086283,38.834
654,1.08795,38.842
655,1.089617,38.865
656,1.091283,38.865
657,1.09295,38.862
658,1.094617,38.832
659,1.096283,38.806
660,1.097983,38.806
661,1.099617,38.783
662,1.101283,38.793
663,1.10295,38.814
664,1.104617,38.814
665,1.106283,38.836
666,1.10795,38.829
667,1.109617,38.829
668,1.111383,38.794
669,1.11295,38.75
670,1.114617,38.715
671,1.116283,38.715
672,1.11795,38.707
673,1.119617,38.729
674,1.121283,38.712
675,1.12295,38.712
676,1.124617,38.686
677,1.126283,38.696
678,1.128067,38.676
679,1.129617,38.676
680,1.131283,38.683
681,1.13295,38.687
682,1.134617,38.687
683,1.136283,38.665
684,1.13795,38.686
685,1.1396,38.711
686,1.141267,38.711
687,1.142933,38.718
688,1.1446,38.716
689,1.146267,38.679
690,1.147933,38.679
691,1.1496,38.643
692,1.151267,38.669
693,1.152933,38.663
694,1.1546,38.663
695,1.156283,38.657
696,1.157933,38.663
697,1.1596,38.619
698,1.161267,38.619
699,1.162933,38.619
700,1.1646,38.618
701,1.166267,38.618
702,1.167933,38.601
703,1.1696,38.595
704,1.171267,38.584
705,1.172933,38.584
706,1.1746,38.602
707,1.1763,38.637
708,1.177933,38.687
709,1.179633,38.687
710,1.181267,38.727
711,1.182933,38.741
712,1.1846,38.713
713,1.186267,38.713
714,1.187933,38.688
715,1.1896,38.649
716,1.191267,38.649
717,1.192933,38.598
718,1.1946,38.597
719,1.196267,38.591
720,1.197933,38.591
721,1.1996,38.571
722,1.20125,38.585
723,1.202917,38.602
724,1.204583,38.602
725,1.20625,38.595
726,1.207917,38.602
727,1.209583,38.61
728,1.21125,38.61
729,1.212967,38.618
730,1.214583,38.606
731,1.21625,38.606
732,1.217917,38.593
733,1.219583,38.574
734,1.22125,38.539
735,1.222917,38.539
736,1.224583,38.518
737,1.22625,38.55
738,1.227917,38.565
739,1.229633,38.565
740,1.23125,38.569
741,1.232917,38.6
742,1.234583,38.595
743,1.23625,38.595
744,1.237917,38.612
745,1.239583,38.609
746,1.24125,38.565
747,1.242917,38.565
748,1.244583,38.562
749,1.2463,38.517
750,1.247917,38.517
751,1.249583,38.491
752,1.25125,38.496
753,1.252917,38.456
754,1.2546,38.456
755,1.25625,38.446
756,1.25795,38.44
757,1.259583,38.456
758,1.261233,38.456
759,1.2629,38.464
760,1.264567,38.457
761,1.266233,38.452
762,1.2679,38.452
763,1.269567,38.472
764,1.271233,38.475
765,1.2729,38.475
766,1.274567,38.478
767,1.276233,38.484
768,1.2779,38.452
769,1.279567,38.452
770,1.281233,38.444
771,1.2829,38.432
772,1.284567,38.445
773,1.286233,38.445
774,1.2879,38.432
775,1.289567,38.433
776,1.291233,38.423
777,1.2929,38.423
778,1.294567,38.383
779,1.296233,38.377
780,1.2979,38.377
781,1.299567,38.377
782,1.301233,38.375
783,1.3029,38.408
784,1.304567,38.408
785,1.306233,38.399
786,1.3079,38.37
787,1.309567,38.381
788,1.311233,38.381
789,1.3129,38.368
790,1.314567,38.388
791,1.316233,38.393
792,1.3179,38.393
793,1.319567,38.425
794,1.32125,38.449
795,1.322933,38.455
796,1.324583,38.455
797,1.326217,38.482
798,1.327883,38.466
799,1.32955,38.466
800,1.33125,38.441
801,1.332883,38.425
802,1.33455,38.418
803,1.336217,38.418
804,1.337883,38.435
805,1.33955,38.426
806,1.341217,38.446
807,1.342883,38.446
808,1.34455,38.476
809,1.346217,38.455
810,1.347917,38.481
811,1.34955,38.481
812,1.351217,38.476
813,1.352883,38.449
814,1.35455,38.452
815,1.356217,38.452
816,1.357883,38.438
817,1.35955,38.424
818,1.3612,38.424
819,1.362867,38.411
820,1.36465,38.404
821,1.3662,38.395
822,1.367867,38.395
823,1.369533,38.416
824,1.3712,38.417
825,1.372867,38.426
826,1.374533,38.426
827,1.3762,38.432
828,1.377867,38.437
829,1.379533,38.464
830,1.381183,38.464
831,1.38285,38.453
832,1.384517,38.453
833,1.386183,38.453
834,1.38785,38.422
835,1.389517,38.368
836,1.391183,38.336
837,1.39285,38.336
838,1.394517,38.315
839,1.396183,38.295
840,1.397933,38.32
841,1.399517,38.32
842,1.401183,38.353
843,1.40285,38.385
844,1.404517,38.406
845,1.406183,38.406
846,1.40785,38.375
847,1.409517,38.342
848,1.411183,38.342
849,1.41285,38.299
850,1.414517,38.271
851,1.416183,38.309
852,1.41785,38.309
853,1.419517,38.336
854,1.421183,38.368
855,1.42285,38.391
856,1.424517,38.391
857,1.426183,38.375
858,1.42785,38.351
859,1.429517,38.33
860,1.431183,38.33
861,1.43285,38.327
862,1.434517,38.314
863,1.436183,38.293
864,1.43785,38.293
865,1.439517,38.274
866,1.441167,38.256
867,1.442833,38.256
868,1.4445,38.27
869,1.446167,38.278
870,1.447833,38.297
871,1.449517,38.297
872,1.451167,38.288
873,1.452833,38.26
874,1.4545,38.265
875,1.456167,38.265
876,1.457833,38.251
877,1.4595,38.247
878,1.461167,38.274
879,1.462833,38.274
880,1.4645,38.306
881,1.466233,38.315
882,1.467833,38.315
883,1.4695,38.324
884,1.471167,38.317
885,1.472833,38.308
886,1.4745,38.308
887,1.476167,38.297
888,1.477833,38.301
889,1.4795,38.281
890,1.481167,38.281
891,1.482917,38.251
892,1.4845,38.249
893,1.486167,38.233
894,1.487833,38.233
895,1.4895,38.223
896,1.491167,38.24
897,1.492833,38.238
898,1.4945,38.238
899,1.496167,38.232
900,1.497833,38.267
901,1.499483,38.267
902,1.50115,38.277
903,1.502817,38.274
904,1.504483,38.285
905,1.50615,38.285
906,1.507817,38.264
907,1.509483,38.265
908,1.51115,38.289
909,1.512817,38.289
910,1.514483,38.283
911,1.51615,38.303
912,1.517817,38.273
913,1.519483,38.273
914,1.52115,38.257
915,1.522817,38.283
916,1.524483,38.283
917,1.52615,38.26
918,1.527817,38.262
919,1.529483,38.236
920,1.53115,38.236
921,1.532817,38.245
922,1.534517,38.278
923,1.536167,38.286
924,1.537817,38.286
925,1.539483,38.297
926,1.54115,38.264
927,1.542817,38.224
928,1.544483,38.224
929,1.54615,38.207
930,1.547817,38.192
931,1.549483,38.2
932,1.55115,38.2
933,1.552817,38.201
934,1.554483,38.214
935,1.55615,38.214
936,1.557817,38.26
937,1.559483,38.284
938,1.561133,38.31
939,1.5628,38.31
940,1.564467,38.305
941,1.566133,38.262
942,1.567867,38.266
943,1.569467,38.266
944,1.571133,38.249
945,1.5728,38.247
946,1.574467,38.266
947,1.576133,38.266
948,1.5778,38.249
949,1.579467,38.237
950,1.581133,38.237
951,1.5828,38.224
952,1.584467,38.221
953,1.586133,38.177
954,1.5878,38.177
955,1.589467,38.179
956,1.591133,38.191
957,1.5928,38.209
958,1.594467,38.209
959,1.596133,38.239
960,1.5978,38.214
961,1.599467,38.212
962,1.601233,38.212
963,1.6028,38.217
964,1.604467,38.207
965,1.606133,38.228
966,1.6078,38.228
967,1.609467,38.205
968,1.61115,38.146
969,1.612817,38.146
970,1.614467,38.118
971,1.616133,38.095
972,1.6178,38.107
973,1.619467,38.107
974,1.621117,38.127
975,1.622783,38.135
976,1.62445,38.128
977,1.626117,38.128
978,1.627783,38.123
979,1.62945,38.137
980,1.631117,38.131
981,1.632783,38.131
982,1.63445,38.155
983,1.636117,38.163
984,1.637783,38.163
985,1.63945,38.155
986,1.641117,38.176
987,1.642783,38.167
