"ID","sea_time","fid_signal"
1,0,1174.957
2,0.001683,1174.957
3,0.003333,1173.765
4,0.005,1174.659
5,0.006667,1170.71
6,0.008333,1170.71
7,0.01,1167.58
8,0.011667,1165.345
9,0.013317,1164.526
10,0.014983,1164.526
11,0.01665,1167.059
12,0.018317,1166.761
13,0.019983,1166.761
14,0.02165,1167.729
15,0.023317,1165.941
16,0.024983,1163.483
17,0.02665,1163.483
18,0.028317,1163.036
19,0.029983,1163.185
20,0.031633,1166.165
21,0.0333,1166.165
22,0.034967,1166.835
23,0.036633,1166.165
24,0.038317,1168.102
25,0.04,1168.102
26,0.041633,1165.345
27,0.0433,1165.122
28,0.044967,1165.122
29,0.04665,1166.761
30,0.0483,1164.079
31,0.049967,1164.973
32,0.05165,1164.973
33,0.0533,1165.196
34,0.054967,1165.42
35,0.056633,1164.526
36,0.0583,1164.526
37,0.059967,1163.483
38,0.061633,1165.196
39,0.0633,1165.047
40,0.064967,1165.047
41,0.066633,1166.612
42,0.068367,1167.506
43,0.069967,1167.506
44,0.071633,1165.047
45,0.073283,1164.228
46,0.07495,1165.42
47,0.076617,1165.42
48,0.07828300000000001,1164.526
49,0.07994999999999999,1164.079
50,0.081617,1164.526
51,0.083283,1164.526
52,0.085017,1162.961
53,0.086617,1163.93
54,0.088283,1164.153
55,0.08995,1164.153
56,0.091617,1165.643
57,0.093283,1167.357
58,0.09495000000000001,1170.337
59,0.09661699999999999,1170.337
60,0.098283,1171.231
61,0.09995,1169.145
62,0.101733,1169.145
63,0.103283,1169.145
64,0.10495,1165.047
65,0.106617,1165.867
66,0.108283,1165.867
67,0.10995,1165.643
68,0.111617,1165.271
69,0.113283,1166.463
70,0.11495,1166.463
71,0.116617,1165.196
72,0.118283,1165.792
73,0.11995,1166.165
74,0.121617,1166.165
75,0.123283,1168.698
76,0.12495,1168.996
77,0.126617,1168.996
78,0.1283,1170.039
79,0.12995,1168.4
80,0.131617,1167.432
81,0.133267,1167.432
82,0.134933,1170.635
83,0.136617,1171.231
84,0.138317,1168.624
85,0.139933,1168.624
86,0.1416,1168.549
87,0.143267,1164.153
88,0.144933,1162.961
89,0.1466,1162.961
90,0.148267,1163.781
91,0.149933,1162.738
92,0.1516,1164.079
93,0.153267,1164.079
94,0.154933,1163.706
95,0.1566,1168.4
96,0.158267,1168.4
97,0.159933,1167.133
98,0.1616,1166.686
99,0.163267,1167.655
100,0.164933,1167.655
101,0.1666,1164.451
102,0.168267,1165.941
103,0.169933,1166.388
104,0.1716,1166.388
105,0.173267,1165.196
106,0.174933,1165.941
107,0.1766,1164.228
108,0.178267,1164.228
109,0.179933,1165.271
110,0.1816,1164.6
111,0.183267,1164.6
112,0.184933,1163.557
113,0.1866,1163.632
114,0.188267,1161.993
115,0.189933,1161.993
116,0.1916,1165.271
117,0.19325,1165.196
118,0.194917,1167.655
119,0.196583,1167.655
120,0.19825,1167.879
121,0.199917,1165.196
122,0.201583,1167.282
123,0.203333,1167.282
124,0.204917,1165.494
125,0.2066,1166.463
126,0.208333,1167.506
127,0.209917,1167.506
128,0.211583,1166.537
129,0.21325,1169.667
130,0.214917,1169.667
131,0.216583,1176.596
132,0.21825,1185.983
133,0.220033,1195.893
134,0.221583,1195.893
135,0.22325,1208.633
136,0.224917,1223.385
137,0.226583,1240.447
138,0.22825,1240.447
139,0.229917,1262.724
140,0.231583,1287.46
141,0.23325,1309.887
142,0.234917,1309.887
143,0.236583,1335.293
144,0.23825,1362.264
145,0.239917,1362.264
146,0.241583,1386.702
147,0.24325,1414.493
148,0.244917,1443.177
149,0.246583,1443.177
150,0.24825,1467.764
151,0.249917,1498.61
152,0.251567,1527.816
153,0.253233,1527.816
154,0.2549,1555.16
155,0.256567,1586.527
156,0.258233,1615.584
157,0.2599,1615.584
158,0.261567,1646.802
159,0.263233,1677.871
160,0.2649,1711.249
161,0.266567,1711.249
162,0.268233,1744.106
163,0.2699,1775.548
164,0.271567,1775.548
165,0.273233,1809.224
166,0.274917,1841.411
167,0.276583,1872.852
168,0.278267,1872.852
169,0.2799,1907.945
170,0.281567,1943.708
171,0.283233,1980.811
172,0.2849,1980.811
173,0.286567,2021.79
174,0.288233,2063.885
175,0.2899,2107.844
176,0.291567,2107.844
177,0.293233,2155.304
178,0.2949,2203.584
179,0.296567,2203.584
180,0.298233,2255.291
181,0.2999,2308.488
182,0.301567,2363.697
183,0.303233,2363.697
184,0.3049,2424.195
185,0.306567,2484.098
186,0.308233,2555.549
187,0.3099,2555.549
188,0.31155,2638.027
189,0.313217,2739.206
190,0.314883,2885.312
191,0.31655,2885.312
192,0.318217,3108.978
193,0.319883,3455.132
194,0.32155,3455.132
195,0.3232,3988.892
196,0.324867,4757.792
197,0.326533,5789.325
198,0.3282,5789.325
199,0.329867,7079.467
200,0.331533,8566.976000000001
201,0.3332,10161.102
202,0.334867,10161.102
203,0.336533,11730.194
204,0.338317,13144.165
205,0.339867,14282.838
206,0.341533,14282.838
207,0.3432,15062.243
208,0.344867,15445.799
209,0.346533,15444.458
210,0.3482,15444.458
211,0.349867,15108.362
212,0.351533,14510.453
213,0.353217,14510.453
214,0.354917,13733.729
215,0.356533,12855.231
216,0.3582,11935.234
217,0.359867,11935.234
218,0.361533,11021.644
219,0.3632,10142.178
220,0.364867,9310.691999999999
221,0.366533,9310.691999999999
222,0.3682,8541.196
223,0.36985,7834.509
224,0.371533,7194.728
225,0.373183,7194.728
226,0.37485,6620.586
227,0.376517,6107.539
228,0.378183,6107.539
229,0.37985,5646.87
230,0.381517,5232.766
231,0.383183,4863.217
232,0.38485,4863.217
233,0.386517,4533.902
234,0.388183,4240.125
235,0.38985,3982.41
236,0.391517,3982.41
237,0.393183,3755.54
238,0.39485,3552.586
239,0.396517,3373.548
240,0.398183,3373.548
241,0.39985,3211.275
242,0.401517,3062.636
243,0.403183,2931.803
244,0.40485,2931.803
245,0.406517,2817.214
246,0.408183,2712.906
247,0.40985,2712.906
248,0.411517,2619.401
249,0.413183,2536.252
250,0.41485,2459.064
251,0.416517,2459.064
252,0.418183,2390.295
253,0.41985,2328.679
254,0.42155,2268.627
255,0.423283,2268.627
256,0.42485,2213.642
257,0.426517,2166.703
258,0.428183,2121.031
259,0.42985,2121.031
260,0.431517,2079.681
261,0.433167,2042.875
262,0.434833,2042.875
263,0.4365,2007.857
264,0.438167,1978.055
265,0.439833,1950.264
266,0.4415,1950.264
267,0.443167,1920.983
268,0.444833,1892.596
269,0.4465,1865.7
270,0.448167,1865.7
271,0.44985,1836.494
272,0.4515,1811.683
273,0.453167,1787.618
274,0.454833,1787.618
275,0.4566,1767.725
276,0.458167,1752.228
277,0.459833,1734.942
278,0.4615,1734.942
279,0.463167,1718.029
280,0.464833,1698.881
281,0.4665,1698.881
282,0.468167,1679.435
283,0.469833,1665.652
284,0.4715,1651.794
285,0.473167,1651.794
286,0.474833,1638.159
287,0.4765,1624.376
288,0.478167,1608.804
289,0.479833,1608.804
290,0.4815,1595.095
291,0.483167,1581.013
292,0.484833,1566.932
293,0.4865,1566.932
294,0.488167,1554.713
295,0.489833,1540.855
296,0.4915,1540.855
297,0.49315,1527.593
298,0.494867,1517.907
299,0.496483,1510.009
300,0.49815,1510.009
301,0.499817,1501.366
302,0.501483,1492.053
303,0.50315,1481.175
304,0.504817,1481.175
305,0.506483,1469.925
306,0.50815,1459.42
307,0.509817,1453.236
308,0.511483,1453.236
309,0.513167,1445.562
310,0.514817,1436.174
311,0.516483,1436.174
312,0.51815,1431.853
313,0.519817,1427.233
314,0.521483,1422.316
315,0.52315,1422.316
316,0.524817,1417.398
317,0.526483,1408.234
318,0.52815,1397.505
319,0.529817,1397.505
320,0.531483,1389.608
321,0.53315,1378.804
322,0.534817,1371.801
323,0.536483,1371.801
324,0.53815,1364.872
325,0.539817,1360.401
326,0.541517,1359.507
327,0.54315,1359.507
328,0.544817,1355.037
329,0.5464830000000001,1350.79
330,0.54815,1350.79
331,0.549817,1345.575
332,0.551467,1338.124
333,0.553133,1331.27
334,0.5548,1331.27
335,0.556467,1325.309
336,0.5582,1319.274
337,0.5598,1318.455
338,0.561483,1318.455
339,0.5632,1316.294
340,0.5648,1311.898
341,0.5664670000000001,1308.918
342,0.568133,1308.918
343,0.5698,1303.628
344,0.5714669999999999,1299.754
345,0.573133,1299.754
346,0.5749,1297.593
347,0.576467,1294.017
348,0.578133,1287.833
349,0.5798,1287.833
350,0.581467,1283.735
351,0.583133,1280.755
352,0.5848,1276.061
353,0.586467,1276.061
354,0.588133,1274.794
355,0.5898,1273.006
356,0.591467,1269.281
357,0.593133,1269.281
358,0.5948,1268.387
359,0.596467,1263.097
360,0.598133,1259.074
361,0.5998,1259.074
362,0.601467,1257.881
363,0.603167,1256.093
364,0.6048,1256.093
365,0.606467,1256.54
366,0.608133,1255.795
367,0.6098,1254.529
368,0.611467,1254.529
369,0.6131,1251.176
370,0.614767,1245.737
371,0.616433,1242.086
372,0.6181,1242.086
373,0.619767,1240.596
374,0.621433,1239.106
375,0.6231,1241.565
376,0.624783,1241.565
377,0.626433,1240.298
378,0.6281,1235.232
379,0.629767,1235.232
380,0.631467,1232.475
381,0.6331,1227.409
382,0.634767,1227.483
383,0.636433,1227.483
384,0.6381,1226.589
385,0.639767,1226.142
386,0.641433,1228.377
387,0.6431,1228.377
388,0.644767,1225.323
389,0.646433,1223.162
390,0.6481,1221.076
391,0.649767,1221.076
392,0.651433,1218.17
393,0.6531,1217.35
394,0.654767,1217.425
395,0.656433,1217.425
396,0.6581,1216.978
397,0.659783,1214.892
398,0.661433,1214.892
399,0.6631,1213.551
400,0.664767,1212.135
401,0.6664330000000001,1208.857
402,0.6681,1208.857
403,0.669767,1207.516
404,0.671417,1204.386
405,0.673083,1204.163
406,0.67475,1204.163
407,0.6765,1204.535
408,0.678083,1205.578
409,0.67975,1208.112
410,0.6814170000000001,1208.112
411,0.6831,1208.112
412,0.68475,1205.876
413,0.6864170000000001,1205.876
414,0.688083,1205.28
415,0.68975,1205.057
416,0.6914169999999999,1203.716
417,0.693183,1203.716
418,0.69475,1205.429
419,0.696417,1201.928
420,0.698083,1198.873
421,0.69975,1198.873
422,0.701417,1197.979
423,0.703083,1196.861
424,0.70475,1197.606
425,0.706417,1197.606
426,0.7081,1197.83
427,0.70975,1194.552
428,0.711417,1194.552
429,0.713083,1191.72
430,0.71475,1190.007
431,0.716417,1188.368
432,0.718083,1188.368
433,0.71975,1187.846
434,0.721417,1187.176
435,0.723083,1186.505
436,0.72475,1186.505
437,0.726417,1183.227
438,0.728083,1185.909
439,0.72975,1189.56
440,0.731417,1189.56
441,0.733067,1191.05
442,0.734733,1194.328
443,0.7364000000000001,1193.732
444,0.738067,1193.732
445,0.739733,1193.434
446,0.7413999999999999,1193.434
447,0.743067,1193.434
448,0.744733,1192.242
449,0.7464,1189.709
450,0.748067,1185.834
451,0.749733,1185.834
452,0.7514,1183.227
453,0.753067,1183.748
454,0.754733,1182.929
455,0.7564,1182.929
456,0.758067,1182.705
457,0.759733,1182.258
458,0.7614,1181.29
459,0.7630670000000001,1181.29
460,0.764733,1182.109
461,0.766417,1182.258
462,0.7680670000000001,1182.258
463,0.769733,1180.246
464,0.7714,1182.407
465,0.7730669999999999,1181.364
466,0.774733,1181.364
467,0.7764,1181.513
468,0.7781169999999999,1183.823
469,0.779733,1180.992
470,0.7814,1180.992
471,0.783067,1181.588
472,0.784733,1180.023
473,0.7864,1179.874
474,0.788067,1179.874
475,0.789733,1181.513
476,0.7914,1178.682
477,0.79305,1177.043
478,0.7948,1177.043
479,0.796383,1176.596
480,0.79805,1174.51
481,0.799717,1174.51
482,0.801383,1178.384
483,0.80305,1182.109
484,0.804717,1178.831
485,0.806383,1178.831
486,0.80805,1178.905
487,0.809717,1176.447
488,0.811383,1173.615
489,0.8130500000000001,1173.615
490,0.814717,1175.031
491,0.816383,1171.604
492,0.8180500000000001,1172.274
493,0.819717,1172.274
494,0.821383,1171.157
495,0.8230499999999999,1173.019
496,0.824717,1173.019
497,0.826383,1177.117
498,0.8281500000000001,1179.874
499,0.829717,1182.333
500,0.831383,1182.333
501,0.83305,1183.301
502,0.834717,1181.96
503,0.836383,1179.65
504,0.83805,1179.65
505,0.839717,1178.98
506,0.841383,1177.192
507,0.84305,1174.807
508,0.8447170000000001,1174.807
509,0.846383,1174.584
510,0.84805,1174.882
511,0.8497169999999999,1175.553
512,0.851383,1175.553
513,0.853083,1180.172
514,0.8547,1178.533
515,0.856367,1178.533
516,0.858033,1178.235
517,0.8597,1177.937
518,0.861367,1173.839
519,0.8630330000000001,1173.839
520,0.8647,1174.957
521,0.866367,1173.019
522,0.8680330000000001,1169.89
523,0.8697,1169.89
524,0.871367,1171.008
525,0.8730329999999999,1167.729
526,0.8747,1168.251
527,0.876367,1168.251
528,0.878033,1170.039
529,0.8797,1168.4
530,0.881367,1168.4
531,0.883033,1171.827
532,0.8847,1170.635
533,0.886367,1170.784
534,0.888033,1170.784
535,0.8897,1172.125
536,0.891367,1170.635
537,0.893033,1174.51
538,0.8947000000000001,1174.51
539,0.896367,1172.721
540,0.898033,1173.765
541,0.8997000000000001,1173.988
542,0.901367,1173.988
543,0.903033,1170.412
544,0.904683,1170.263
545,0.90635,1170.263
546,0.908017,1167.729
547,0.909683,1165.569
548,0.9113329999999999,1165.718
549,0.91305,1165.718
550,0.914667,1166.761
551,0.916333,1166.165
552,0.918017,1169.294
553,0.919717,1169.294
554,0.921383,1170.933
555,0.923,1172.647
556,0.924667,1176.149
557,0.926333,1176.149
558,0.928,1175.031
559,0.929667,1175.18
560,0.931333,1175.031
561,0.9330000000000001,1175.031
562,0.934667,1175.106
563,0.936333,1176.521
564,0.9379999999999999,1176.521
565,0.939667,1174.286
566,0.941333,1172.274
567,0.9429999999999999,1169.592
568,0.944667,1169.592
569,0.946433,1166.09
570,0.948,1167.655
571,0.949667,1167.432
572,0.951333,1167.432
573,0.953,1168.027
574,0.954667,1170.114
575,0.956333,1168.996
576,0.958,1168.996
577,0.959667,1168.102
578,0.961333,1165.718
579,0.963,1165.718
580,0.9646670000000001,1164.228
581,0.966333,1164.973
582,0.968,1166.165
583,0.9696669999999999,1166.165
584,0.971317,1170.114
585,0.972983,1171.753
586,0.97465,1171.753
587,0.976317,1171.753
588,0.977983,1174.659
589,0.97965,1175.18
590,0.981317,1174.435
591,0.9829830000000001,1174.435
592,0.98465,1176.968
593,0.986317,1177.937
594,0.9879829999999999,1175.478
595,0.98965,1175.478
596,0.99135,1175.18
597,0.99305,1172.87
598,0.99465,1172.87
599,0.996317,1169.518
600,0.997983,1169.518
601,0.99965,1170.412
602,1.001317,1170.412
603,1.002983,1171.902
604,1.00465,1171.902
605,1.006317,1171.902
606,1.007983,1171.902
607,1.00965,1171.455
608,1.011317,1170.412
609,1.012983,1173.317
610,1.01465,1173.317
611,1.016317,1175.627
612,1.017983,1176
613,1.01965,1176
614,1.021317,1174.063
615,1.022983,1172.945
616,1.02465,1171.902
617,1.026317,1171.902
618,1.027983,1169.89
619,1.02965,1171.157
620,1.0313,1172.721
621,1.032967,1172.721
622,1.034633,1173.243
623,1.0363,1175.18
624,1.037967,1174.286
625,1.039633,1174.286
626,1.0413,1168.996
627,1.042967,1166.239
628,1.044633,1166.09
629,1.0463,1166.09
630,1.047967,1165.196
631,1.049633,1163.93
632,1.0513,1163.93
633,1.052967,1165.792
634,1.054633,1167.282
635,1.0563,1169.294
636,1.057967,1169.294
637,1.059633,1171.678
638,1.0613,1169.294
639,1.062967,1169.145
640,1.064667,1169.145
641,1.066333,1169.369
642,1.067967,1169.369
643,1.069633,1170.784
644,1.0713,1170.784
645,1.072967,1169.592
646,1.074633,1171.231
647,1.0763,1171.231
648,1.077967,1173.69
649,1.079633,1174.51
650,1.081317,1173.392
651,1.082967,1173.392
652,1.084633,1170.188
653,1.0863,1166.537
654,1.087967,1166.686
655,1.089617,1166.686
656,1.091283,1168.027
657,1.09295,1168.475
658,1.094617,1169.443
659,1.096283,1169.443
660,1.09795,1170.933
661,1.099617,1171.902
662,1.101283,1171.902
663,1.10295,1172.125
664,1.104617,1175.776
665,1.106283,1174.882
666,1.10795,1174.882
667,1.109617,1173.69
668,1.111283,1173.392
669,1.11295,1168.251
670,1.114617,1168.251
671,1.116283,1165.867
672,1.11795,1165.569
673,1.119617,1167.879
674,1.121283,1167.879
675,1.12295,1169.369
676,1.124617,1171.157
677,1.126283,1170.933
678,1.12795,1170.933
679,1.129617,1171.529
680,1.1313,1174.286
681,1.13295,1174.286
682,1.13465,1171.827
683,1.136283,1171.008
684,1.13795,1170.337
685,1.139617,1170.337
686,1.141283,1169.369
687,1.14295,1170.635
688,1.144617,1173.168
689,1.146283,1173.168
690,1.14795,1171.902
691,1.14965,1172.498
692,1.151283,1173.765
693,1.152933,1173.765
694,1.1546,1174.286
695,1.156267,1172.274
696,1.157933,1172.274
697,1.1596,1171.008
698,1.161267,1169.518
699,1.162933,1170.561
700,1.1646,1170.561
701,1.166267,1172.796
702,1.167933,1173.988
703,1.1696,1173.243
704,1.171267,1173.243
705,1.172933,1172.051
706,1.1746,1170.263
707,1.176267,1168.251
708,1.177933,1168.251
709,1.1796,1171.678
710,1.181267,1168.624
711,1.18305,1171.529
712,1.1846,1171.529
713,1.186267,1175.627
714,1.187933,1172.498
715,1.1896,1172.498
716,1.191267,1173.466
717,1.192933,1170.71
718,1.1946,1168.996
719,1.19625,1168.996
720,1.197917,1168.847
721,1.199583,1168.624
722,1.20125,1170.188
723,1.202917,1170.188
724,1.204583,1168.177
725,1.20625,1167.804
726,1.207917,1169.071
727,1.2096,1169.071
728,1.211283,1169.443
729,1.21295,1168.624
730,1.214567,1168.624
731,1.216233,1172.87
732,1.2179,1171.157
733,1.219567,1168.996
734,1.221233,1168.996
735,1.2229,1169.592
736,1.224567,1168.102
737,1.226233,1168.4
738,1.2279,1168.4
739,1.229567,1170.561
740,1.231233,1170.114
741,1.2329,1166.686
742,1.234567,1166.686
743,1.236233,1167.357
744,1.2379,1166.165
745,1.239567,1165.941
746,1.241233,1165.941
747,1.2429,1167.208
748,1.244567,1166.016
749,1.246233,1166.016
750,1.2479,1163.185
751,1.249567,1162.291
752,1.251233,1164.973
753,1.2529,1164.973
754,1.254567,1165.196
755,1.25625,1167.282
756,1.2579,1168.698
757,1.259567,1168.698
758,1.261233,1168.027
759,1.2629,1171.231
760,1.264567,1174.435
761,1.266233,1174.435
762,1.267967,1173.168
763,1.269567,1170.561
764,1.271233,1170.561
765,1.272883,1169.816
766,1.27455,1168.549
767,1.276217,1169.071
768,1.277883,1169.071
769,1.279583,1171.157
770,1.281217,1169.816
771,1.282883,1169.89
772,1.28455,1169.89
773,1.286217,1171.157
774,1.287883,1170.486
775,1.28955,1169.518
776,1.291217,1169.518
777,1.292883,1169.667
778,1.29455,1168.102
779,1.296217,1168.102
780,1.297883,1168.847
781,1.29955,1169.592
782,1.301333,1167.282
783,1.302883,1167.282
784,1.30455,1167.059
785,1.306217,1166.016
786,1.307883,1166.016
787,1.30955,1166.016
788,1.311217,1166.016
789,1.312883,1167.655
790,1.31455,1167.506
791,1.316217,1167.506
792,1.317883,1165.345
793,1.31955,1167.729
794,1.321217,1168.549
795,1.322883,1168.549
796,1.32455,1169.667
797,1.326217,1174.212
798,1.327883,1174.212
799,1.32955,1173.765
800,1.3312,1171.678
801,1.332867,1168.922
802,1.334533,1168.922
803,1.3362,1164.526
804,1.337867,1162.067
805,1.339533,1161.62
806,1.3412,1161.62
807,1.342867,1163.185
808,1.344533,1166.09
809,1.3462,1165.867
810,1.347867,1165.867
811,1.349533,1169.518
812,1.351217,1171.455
813,1.352867,1171.455
814,1.354533,1168.922
815,1.3562,1169.965
816,1.357867,1169.071
817,1.359533,1169.071
818,1.3612,1168.4
819,1.362867,1171.604
820,1.364533,1173.839
821,1.3662,1173.839
822,1.3679,1173.243
823,1.369533,1172.051
824,1.3712,1168.698
825,1.372867,1168.698
826,1.374533,1165.941
827,1.3762,1164.228
828,1.377867,1164.6
829,1.379533,1164.6
830,1.3812,1165.345
831,1.382867,1166.612
832,1.384533,1166.612
833,1.386267,1168.624
834,1.387867,1167.357
835,1.389533,1167.58
836,1.391183,1167.58
837,1.39285,1168.847
838,1.394517,1167.432
839,1.396183,1167.804
840,1.39785,1167.804
841,1.399517,1168.326
842,1.401183,1166.09
843,1.40285,1165.941
844,1.404517,1165.941
845,1.406183,1166.463
846,1.40785,1166.314
847,1.409517,1166.314
848,1.411183,1168.251
849,1.41285,1170.412
850,1.414517,1171.38
851,1.416183,1171.38
852,1.41785,1170.039
853,1.4196,1166.686
854,1.421183,1163.259
855,1.422867,1163.259
856,1.424517,1160.279
857,1.426183,1161.396
858,1.42785,1165.345
859,1.429517,1165.345
860,1.431183,1166.239
861,1.43285,1167.506
862,1.434517,1167.804
863,1.436183,1167.804
864,1.43785,1167.432
865,1.439517,1167.804
866,1.441183,1167.804
867,1.44285,1169.965
868,1.444517,1169.443
869,1.446183,1170.337
870,1.44785,1170.337
871,1.449517,1170.486
872,1.451167,1172.572
873,1.452833,1173.913
874,1.4545,1173.913
875,1.456167,1173.392
876,1.457833,1172.647
877,1.4595,1168.251
878,1.461167,1168.251
879,1.462867,1169.145
880,1.4645,1169.071
881,1.466167,1169.071
882,1.467833,1168.549
883,1.4695,1169.369
884,1.471167,1166.463
885,1.472833,1166.463
886,1.4745,1166.016
887,1.476167,1168.624
888,1.477833,1168.549
889,1.4795,1168.549
890,1.481167,1169.369
891,1.482833,1169.294
892,1.484517,1170.114
893,1.486167,1170.114
894,1.487817,1170.71
895,1.4895,1172.647
896,1.49115,1172.647
897,1.492817,1174.212
898,1.494483,1173.615
899,1.49615,1172.2
900,1.497817,1172.2
901,1.499483,1169.816
902,1.50115,1166.239
903,1.502817,1163.557
904,1.5045,1163.557
905,1.50615,1164.079
906,1.507817,1163.557
907,1.509483,1163.632
908,1.511133,1163.632
909,1.5128,1164.302
910,1.514467,1167.059
911,1.516133,1168.177
912,1.5178,1168.177
913,1.519467,1167.133
914,1.52125,1166.984
915,1.5228,1166.984
916,1.524467,1164.6
917,1.526133,1165.271
918,1.5278,1168.773
919,1.529467,1168.773
920,1.531133,1171.38
921,1.5328,1170.561
