"ID","sea_time","fid_signal"
1,0,1165.792
2,0.001667,1162.067
3,0.003333,1163.483
4,0.005,1163.483
5,0.006667,1167.804
6,0.008333,1169.071
7,0.01,1172.423
8,0.011667,1172.423
9,0.013333,1170.859
10,0.015,1166.463
11,0.016667,1165.867
12,0.018333,1165.867
13,0.02,1161.695
14,0.021667,1158.193
15,0.023333,1158.193
16,0.025,1159.31
17,0.026667,1158.64
18,0.02845,1162.44
19,0.029983,1162.44
20,0.03165,1164.973
21,0.033317,1164.302
22,0.034983,1167.58
23,0.03665,1167.58
24,0.038333,1165.941
25,0.040033,1165.271
26,0.04165,1165.271
27,0.043317,1165.271
28,0.044983,1159.981
29,0.04665,1159.534
30,0.048317,1159.534
31,0.049983,1161.695
32,0.05165,1163.334
33,0.053317,1165.345
34,0.054983,1165.345
35,0.05665,1167.58
36,0.058317,1169.741
37,0.059983,1170.784
38,0.06165,1170.784
39,0.063317,1172.349
40,0.064967,1170.635
41,0.066633,1168.4
42,0.0683,1168.4
43,0.069983,1165.643
44,0.071633,1165.047
45,0.0733,1165.047
46,0.07496700000000001,1164.6
47,0.07663300000000001,1162.812
48,0.07829999999999999,1162.961
49,0.079967,1162.961
50,0.081633,1162.067
51,0.0833,1164.898
52,0.084967,1166.984
53,0.086633,1166.984
54,0.0883,1169.443
55,0.08995,1169.667
56,0.091617,1169.89
57,0.093283,1169.89
58,0.09495000000000001,1169.294
59,0.09661699999999999,1166.463
60,0.098283,1167.133
61,0.09995,1167.133
62,0.101617,1167.133
63,0.10335,1166.463
64,0.10495,1166.463
65,0.106617,1166.835
66,0.108283,1167.953
67,0.10995,1165.047
68,0.111617,1165.047
69,0.11335,1167.804
70,0.11495,1168.922
71,0.116617,1166.835
72,0.118283,1166.835
73,0.11995,1166.165
74,0.121617,1161.993
75,0.123283,1163.185
76,0.12495,1163.185
77,0.126617,1162.738
78,0.128283,1163.93
79,0.12995,1163.93
80,0.131617,1168.027
81,0.133283,1167.953
82,0.13495,1171.529
83,0.136617,1171.529
84,0.138283,1175.776
85,0.13995,1175.627
86,0.141617,1176.298
87,0.143283,1176.298
88,0.14495,1175.702
89,0.146733,1171.902
90,0.148283,1171.306
91,0.149933,1171.306
92,0.1516,1168.847
93,0.153267,1169.369
94,0.154933,1168.4
95,0.1566,1168.4
96,0.158267,1166.835
97,0.159933,1165.718
98,0.1616,1165.718
99,0.163267,1163.036
100,0.16495,1165.792
101,0.1666,1165.792
102,0.168267,1165.792
103,0.169933,1166.612
104,0.1716,1165.941
105,0.173267,1164.451
106,0.174967,1164.451
107,0.1766,1165.643
108,0.178267,1166.016
109,0.179933,1165.867
110,0.1816,1165.867
111,0.183267,1165.792
112,0.184933,1163.334
113,0.1866,1163.334
114,0.188267,1165.643
115,0.189933,1164.898
116,0.1916,1164.824
117,0.193267,1164.824
118,0.194933,1165.271
119,0.1966,1164.302
120,0.198267,1165.122
121,0.199933,1165.122
122,0.2016,1164.526
123,0.203267,1164.526
124,0.204933,1163.408
125,0.2066,1163.408
126,0.208267,1167.432
127,0.209917,1170.933
128,0.211583,1170.933
129,0.21325,1176.67
130,0.214917,1181.141
131,0.216583,1187.101
132,0.21825,1187.101
133,0.219917,1195.595
134,0.221583,1208.931
135,0.22325,1223.981
136,0.224917,1223.981
137,0.226583,1240.298
138,0.22825,1261.83
139,0.229917,1284.182
140,0.231617,1284.182
141,0.23325,1312.122
142,0.234917,1341.179
143,0.2366,1371.354
144,0.238283,1371.354
145,0.239917,1403.987
146,0.241583,1436.248
147,0.243267,1436.248
148,0.244917,1468.286
149,0.246583,1499.578
150,0.248367,1529.902
151,0.249917,1529.902
152,0.251583,1562.238
153,0.25325,1591.817
154,0.254917,1622.736
155,0.256583,1622.736
156,0.25825,1653.656
157,0.259917,1683.757
158,0.261583,1718.774
159,0.26325,1718.774
160,0.265017,1751.259
161,0.266583,1782.626
162,0.26825,1782.626
163,0.2699,1817.718
164,0.271567,1852.959
165,0.273233,1890.212
166,0.2749,1890.212
167,0.276567,1928.881
168,0.278233,1967.251
169,0.2799,2008.155
170,0.281567,2008.155
171,0.283233,2051.443
172,0.2849,2099.126
173,0.286567,2146.438
174,0.288233,2146.438
175,0.2899,2195.835
176,0.291567,2248.809
177,0.293233,2300.888
178,0.2949,2300.888
179,0.296567,2358.034
180,0.298233,2417.639
181,0.2999,2417.639
182,0.301567,2481.49
183,0.303233,2549.44
184,0.3049,2622.157
185,0.306567,2622.157
186,0.308233,2710.298
187,0.3099,2823.77
188,0.311567,2999.008
189,0.313233,2999.008
190,0.3149,3296.807
191,0.316583,3808.811
192,0.31825,4662.573
193,0.3199,4662.573
194,0.321567,5992.651
195,0.323233,7904.098
196,0.3249,7904.098
197,0.326567,10452.941
198,0.328233,13619.065
199,0.329883,17303.154
200,0.33155,17303.154
201,0.333217,21328.107
202,0.334883,25449.023
203,0.33655,29376.82
204,0.338217,29376.82
205,0.339883,32796.859
206,0.34155,35412.535
207,0.343217,36990.121
208,0.344883,36990.121
209,0.34655,37420.094
210,0.348217,36730.766
211,0.349883,35104.824
212,0.35155,35104.824
213,0.353217,32823.832
214,0.354867,30178.875
215,0.356533,30178.875
216,0.3582,27432.963
217,0.359867,24766.623
218,0.361533,22282.004
219,0.3632,22282.004
220,0.364867,20026.938
221,0.366617,18016.473
222,0.3682,16238.987
223,0.369867,16238.987
224,0.371533,14676.898
225,0.3732,13307.557
226,0.374867,12101.605
227,0.37655,12101.605
228,0.3782,11041.537
229,0.379867,10108.575
230,0.381533,10108.575
231,0.38325,9288.564
232,0.384867,8563.102000000001
233,0.386533,7923.395
234,0.388183,7923.395
235,0.389883,7353.947
236,0.39155,6845.444
237,0.393183,6396.622
238,0.39485,6396.622
239,0.396567,5996.525
240,0.398183,5644.709
241,0.39995,5331.114
242,0.401517,5331.114
243,0.403183,5052.537
244,0.40485,4803.389
245,0.406517,4803.389
246,0.408183,4578.754
247,0.40985,4377.439
248,0.411517,4195.794
249,0.413183,4195.794
250,0.41485,4031.733
251,0.416517,3881.752
252,0.418183,3743.768
253,0.41985,3743.768
254,0.421517,3616.512
255,0.423183,3499.538
256,0.42485,3392.175
257,0.426517,3392.175
258,0.428183,3295.019
259,0.42985,3205.389
260,0.431517,3122.017
261,0.433183,3122.017
262,0.43485,3044.829
263,0.436517,2973.825
264,0.438183,2973.825
265,0.43985,2906.77
266,0.441517,2843.291
267,0.443183,2780.929
268,0.44485,2780.929
269,0.446517,2723.336
270,0.448183,2671.406
271,0.449833,2621.934
272,0.4515,2621.934
273,0.453167,2574.921
274,0.454833,2531.931
275,0.4565,2484.992
276,0.458183,2484.992
277,0.459883,2440.512
278,0.4615,2399.459
279,0.463167,2399.459
280,0.464833,2355.874
281,0.4665,2318.025
282,0.468167,2283.529
283,0.469833,2283.529
284,0.4715,2247.244
285,0.473167,2214.015
286,0.474833,2180.263
287,0.4765,2180.263
288,0.478167,2147.257
289,0.479833,2117.008
290,0.4815,2091.08
291,0.483167,2091.08
292,0.484867,2065.152
293,0.4865,2037.585
294,0.488167,2010.316
295,0.489833,2010.316
296,0.4915,1981.631
297,0.493167,1957.119
298,0.494833,1957.119
299,0.4965,1935.512
300,0.498167,1913.831
301,0.499833,1891.106
302,0.501533,1891.106
303,0.503167,1866.743
304,0.504833,1843.348
305,0.5065,1823.53
306,0.508167,1823.53
307,0.509817,1800.731
308,0.511483,1780.763
309,0.51315,1764.745
310,0.514817,1764.745
311,0.516483,1750.067
312,0.518283,1737.699
313,0.519817,1737.699
314,0.521483,1724.139
315,0.52315,1707.748
316,0.524817,1689.196
317,0.526483,1689.196
318,0.52815,1671.761
319,0.529817,1657.829
320,0.531483,1641.512
321,0.533183,1641.512
322,0.53485,1627.728
323,0.536483,1615.435
324,0.53815,1603.216
325,0.539817,1603.216
326,0.541483,1591.444
327,0.54315,1578.703
328,0.544817,1568.794
329,0.5464830000000001,1568.794
330,0.54815,1555.905
331,0.549817,1547.635
332,0.5514829999999999,1547.635
333,0.55315,1540.408
334,0.554817,1530.498
335,0.5564829999999999,1520.738
336,0.55815,1520.738
337,0.559817,1511.574
338,0.561483,1501.441
339,0.56315,1489.222
340,0.564817,1489.222
341,0.566483,1478.642
342,0.56815,1468.36
343,0.5698,1458.079
344,0.5714669999999999,1458.079
345,0.573133,1450.181
346,0.5748,1445.264
347,0.576467,1445.264
348,0.578133,1437.962
349,0.5798,1431.033
350,0.581467,1425.445
351,0.583133,1425.445
352,0.5848,1416.355
353,0.586467,1409.65
354,0.588133,1403.391
355,0.5898,1403.391
356,0.591467,1395.121
357,0.593133,1391.023
358,0.5948,1382.53
359,0.596467,1382.53
360,0.598133,1376.867
361,0.5998,1373.365
362,0.601467,1369.119
363,0.6032,1369.119
364,0.6048829999999999,1365.617
365,0.606467,1360.104
366,0.608133,1360.104
367,0.6098,1355.261
368,0.611467,1349.822
369,0.613133,1345.053
370,0.6148,1345.053
371,0.616467,1339.912
372,0.618133,1335.368
373,0.6198,1330.599
374,0.621467,1330.599
375,0.623133,1329.184
376,0.6248,1326.65
377,0.626467,1321.51
378,0.6281330000000001,1321.51
379,0.629783,1316.667
380,0.63145,1307.428
381,0.633117,1307.428
382,0.634783,1301.02
383,0.636567,1296.774
384,0.638117,1292.527
385,0.639783,1292.527
386,0.64145,1290.739
387,0.643117,1289.994
388,0.644783,1286.864
389,0.646433,1286.864
390,0.6481,1282.394
391,0.649767,1279.116
392,0.651433,1275.837
393,0.6531,1275.837
394,0.654767,1271.665
395,0.656433,1272.038
396,0.6581,1272.038
397,0.659767,1270.547
398,0.661433,1267.791
399,0.6631,1266.003
400,0.664767,1266.003
401,0.6664330000000001,1262.054
402,0.6681,1258.18
403,0.669767,1257.881
404,0.6714329999999999,1257.881
405,0.673117,1259.744
406,0.674767,1261.309
407,0.676467,1261.383
408,0.6781,1261.383
409,0.679767,1260.191
410,0.681433,1254.603
411,0.6831,1248.717
412,0.684767,1248.717
413,0.686433,1246.035
414,0.6881,1242.31
415,0.68975,1242.31
416,0.6914169999999999,1243.651
417,0.693083,1243.278
418,0.69475,1241.565
419,0.696417,1241.565
420,0.698083,1239.031
421,0.69975,1236.275
422,0.701417,1236.275
423,0.703083,1236.275
424,0.70475,1236.871
425,0.706417,1236.275
426,0.708083,1236.722
427,0.70975,1236.722
428,0.711417,1231.804
429,0.713083,1226.738
430,0.71475,1226.738
431,0.716417,1226.887
432,0.718083,1222.715
433,0.71975,1224.875
434,0.721483,1224.875
435,0.723083,1227.558
436,0.72475,1224.875
437,0.726417,1223.013
438,0.728083,1223.013
439,0.72975,1223.46
440,0.731417,1219.734
441,0.733083,1216.456
442,0.73475,1216.456
443,0.736417,1213.253
444,0.738133,1206.174
445,0.73975,1206.398
446,0.741417,1206.398
447,0.743083,1208.782
448,0.74475,1210.421
449,0.7464,1210.421
450,0.7481,1211.017
451,0.749733,1207.59
452,0.7514,1207.069
453,0.753067,1207.069
454,0.75485,1205.727
455,0.7564,1205.28
456,0.758067,1205.876
457,0.759733,1205.876
458,0.7614,1204.088
459,0.7630670000000001,1204.833
460,0.764733,1206.1
461,0.7664,1206.1
462,0.7680670000000001,1205.355
463,0.769733,1205.355
464,0.7714,1205.355
465,0.7730669999999999,1205.206
466,0.774733,1205.057
467,0.7764,1206.622
468,0.778067,1206.622
469,0.7797500000000001,1204.759
470,0.7814,1204.61
471,0.783067,1203.269
472,0.784733,1203.269
473,0.7864,1198.575
474,0.788067,1197.085
475,0.789733,1194.999
476,0.7914,1194.999
477,0.793067,1192.838
478,0.794733,1192.465
479,0.7964,1189.709
480,0.798067,1189.709
481,0.799733,1188.517
482,0.8014,1189.113
483,0.803067,1189.113
484,0.804733,1193.21
485,0.8064,1196.563
486,0.808067,1197.457
487,0.809717,1197.457
488,0.811383,1195.52
489,0.8130500000000001,1190.901
490,0.814717,1187.846
491,0.816433,1187.846
492,0.8180500000000001,1185.462
493,0.819717,1185.462
494,0.821383,1184.94
495,0.8230499999999999,1184.94
496,0.824717,1186.132
497,0.8264,1187.623
498,0.82805,1187.623
499,0.829717,1190.603
500,0.831383,1193.509
501,0.83305,1192.689
502,0.834717,1192.689
503,0.836383,1189.411
504,0.83805,1186.952
505,0.8398,1185.834
506,0.841383,1185.834
507,0.84305,1187.846
508,0.8447170000000001,1192.018
509,0.846383,1192.763
510,0.84805,1192.763
511,0.8497169999999999,1191.944
512,0.851383,1189.634
513,0.85305,1189.634
514,0.8547169999999999,1186.281
515,0.856383,1185.983
516,0.85805,1185.983
517,0.859717,1185.983
518,0.861383,1185.834
519,0.86305,1185.089
520,0.864717,1185.387
521,0.866383,1185.387
522,0.86805,1183.674
523,0.8697,1185.462
524,0.871367,1187.697
525,0.873167,1187.697
526,0.8747,1185.238
527,0.876367,1187.25
528,0.878033,1184.344
529,0.8797,1184.344
530,0.881367,1186.43
531,0.883033,1186.803
532,0.8847,1186.803
533,0.886367,1186.729
534,0.888033,1187.324
535,0.8897,1183.823
536,0.891367,1183.823
537,0.893033,1182.929
538,0.8947000000000001,1183.301
539,0.896367,1183.152
540,0.898033,1183.152
541,0.8997000000000001,1184.419
542,0.901367,1184.344
543,0.903033,1184.419
544,0.9046999999999999,1184.419
545,0.906367,1183.897
546,0.908033,1181.439
547,0.9097,1181.439
548,0.911367,1180.246
549,0.913033,1177.341
550,0.914733,1180.023
551,0.916367,1180.023
552,0.918033,1180.843
553,0.9197,1183.972
554,0.921367,1186.207
555,0.923033,1186.207
556,0.9247,1184.493
557,0.9263670000000001,1181.588
558,0.928017,1177.043
559,0.929683,1177.043
560,0.93135,1174.212
561,0.933017,1174.584
562,0.934683,1177.117
563,0.93635,1177.117
564,0.9379999999999999,1178.831
565,0.939667,1179.352
566,0.941333,1179.352
567,0.9429999999999999,1176.298
568,0.944667,1177.341
569,0.946333,1179.278
570,0.948,1179.278
571,0.949667,1180.619
572,0.951333,1181.886
573,0.953017,1180.619
574,0.9546829999999999,1180.619
575,0.956333,1178.384
576,0.95805,1177.862
577,0.959667,1178.384
578,0.961333,1178.384
579,0.963,1178.309
580,0.9646670000000001,1178.831
581,0.966333,1178.831
582,0.968,1179.129
583,0.9696669999999999,1180.768
584,0.971333,1180.545
585,0.973,1180.545
586,0.974667,1182.78
587,0.976333,1183.227
588,0.978,1181.662
589,0.979667,1181.662
590,0.981333,1182.109
591,0.983,1179.874
592,0.984667,1176.745
593,0.986333,1176.745
594,0.988,1176.074
595,0.98965,1175.478
596,0.991433,1176.447
597,0.9929829999999999,1176.447
598,0.99465,1178.98
599,0.996317,1179.427
600,0.997983,1179.427
601,0.99965,1178.756
602,1.001317,1175.478
603,1.002983,1173.094
604,1.00465,1173.094
605,1.006317,1172.945
606,1.008033,1173.839
607,1.00965,1176.67
608,1.011317,1176.67
609,1.012983,1179.725
610,1.01465,1179.65
611,1.016317,1178.905
612,1.017983,1178.905
613,1.01965,1177.49
614,1.021317,1176.968
615,1.022983,1176.968
616,1.02465,1176.67
617,1.026317,1176.745
618,1.027983,1174.733
619,1.029683,1174.733
620,1.031317,1173.094
621,1.032983,1172.2
622,1.03465,1169.965
623,1.036317,1169.965
624,1.037983,1170.933
625,1.03965,1173.466
626,1.041317,1173.317
627,1.042983,1173.317
628,1.04465,1176.074
629,1.046317,1177.713
630,1.047983,1177.713
631,1.049633,1176.223
632,1.0513,1175.925
633,1.052967,1176.968
634,1.054633,1176.968
635,1.0563,1178.309
636,1.057967,1177.192
637,1.059633,1176.67
638,1.0613,1176.67
639,1.062967,1174.957
640,1.064633,1174.882
641,1.0663,1172.87
642,1.067967,1172.87
643,1.069633,1172.721
644,1.0713,1173.839
645,1.072967,1172.572
646,1.074633,1172.572
647,1.07635,1175.106
648,1.077967,1176.447
649,1.079633,1176.447
650,1.0813,1177.713
651,1.082967,1176.894
652,1.084633,1174.733
653,1.0863,1174.733
654,1.087967,1172.274
655,1.089683,1170.263
656,1.0913,1171.306
657,1.092967,1171.306
658,1.094633,1171.604
659,1.0963,1171.678
660,1.097983,1171.902
661,1.099633,1171.902
662,1.1013,1171.976
663,1.102967,1170.859
664,1.104633,1170.859
665,1.1063,1172.572
666,1.107967,1170.114
667,1.109733,1170.486
668,1.111283,1170.486
669,1.11295,1174.584
670,1.114617,1173.541
671,1.116283,1173.988
672,1.11795,1173.988
673,1.119617,1172.572
674,1.121283,1170.635
675,1.12295,1174.212
676,1.124617,1174.212
677,1.126283,1175.553
678,1.12795,1174.51
679,1.129617,1176.596
680,1.131283,1176.596
681,1.13295,1174.435
682,1.134617,1172.423
683,1.136283,1172.423
684,1.13795,1171.678
685,1.139617,1167.208
686,1.141283,1165.122
687,1.14295,1165.122
688,1.144617,1166.463
689,1.146283,1168.698
690,1.14795,1170.71
691,1.149617,1170.71
692,1.151283,1171.678
693,1.15295,1172.423
694,1.154617,1171.976
695,1.156283,1171.976
696,1.15795,1172.721
697,1.159617,1175.255
698,1.161283,1175.255
699,1.16295,1176.149
700,1.164617,1174.286
701,1.166267,1172.274
702,1.167967,1172.274
703,1.16965,1168.624
704,1.171317,1168.326
705,1.172933,1168.698
706,1.1746,1168.698
707,1.176267,1168.698
708,1.177933,1170.412
709,1.1796,1169.518
710,1.181267,1169.518
711,1.18295,1170.784
712,1.1846,1174.137
713,1.186267,1172.572
714,1.187933,1172.572
715,1.1896,1170.337
716,1.191267,1169.518
717,1.192933,1169.518
718,1.1946,1168.549
719,1.196267,1171.008
720,1.197933,1173.69
721,1.1996,1173.69
722,1.201267,1172.945
723,1.202933,1170.933
724,1.2046,1169.741
725,1.206267,1169.741
726,1.207933,1166.612
727,1.2096,1168.698
728,1.211333,1168.549
729,1.212933,1168.549
730,1.2146,1167.655
731,1.216267,1170.784
732,1.217933,1170.784
733,1.2196,1172.87
734,1.221267,1173.466
735,1.222933,1176.596
736,1.2246,1176.596
737,1.226267,1178.384
738,1.228017,1175.702
739,1.229567,1177.713
740,1.231233,1177.713
741,1.2329,1174.435
742,1.234567,1174.584
743,1.236233,1177.266
744,1.2379,1177.266
745,1.239567,1176.298
746,1.241233,1178.607
747,1.2429,1178.607
748,1.244567,1178.831
749,1.24625,1175.553
750,1.2479,1173.243
751,1.249567,1173.243
752,1.251233,1170.337
753,1.2529,1165.718
754,1.254567,1165.196
755,1.256233,1165.196
756,1.2579,1165.42
757,1.259567,1168.4
758,1.261233,1170.412
759,1.2629,1170.412
760,1.264567,1169.816
761,1.266233,1171.753
762,1.2679,1168.624
763,1.269567,1168.624
764,1.271233,1168.624
765,1.2729,1168.922
766,1.274567,1168.922
767,1.276233,1166.612
768,1.2779,1170.039
769,1.279567,1172.125
770,1.281233,1172.125
771,1.2829,1171.753
772,1.284567,1174.957
773,1.286233,1174.882
774,1.287883,1174.882
775,1.289567,1172.647
776,1.291217,1176
777,1.292883,1173.019
778,1.29455,1173.019
779,1.296217,1171.753
780,1.297883,1170.933
781,1.29955,1170.933
782,1.301217,1171.082
783,1.302883,1176.149
784,1.30455,1178.458
785,1.306217,1178.458
786,1.307883,1178.011
787,1.30955,1174.733
788,1.311217,1170.263
789,1.3129,1170.263
790,1.3146,1168.624
791,1.316217,1167.804
792,1.317883,1168.624
793,1.31955,1168.624
794,1.321217,1168.102
795,1.322883,1165.122
796,1.32455,1166.314
797,1.326217,1166.314
798,1.327883,1167.804
799,1.329583,1168.027
800,1.331217,1168.027
801,1.332883,1169.369
802,1.33455,1170.412
803,1.336217,1168.847
804,1.337883,1168.847
805,1.33955,1168.698
806,1.341217,1168.251
807,1.342883,1168.177
808,1.34455,1168.177
809,1.346233,1169.592
810,1.347883,1170.859
811,1.349533,1173.69
812,1.3512,1173.69
813,1.352867,1171.827
814,1.354533,1171.529
815,1.3562,1171.529
816,1.357883,1171.604
817,1.359533,1168.624
818,1.3612,1171.306
819,1.362867,1171.306
820,1.364533,1170.486
821,1.3662,1171.678
822,1.367867,1172.051
823,1.369533,1172.051
824,1.3712,1171.38
825,1.372867,1169.965
826,1.374533,1168.624
827,1.3762,1168.624
828,1.377867,1167.953
829,1.379533,1168.027
830,1.3812,1170.486
831,1.382867,1170.486
832,1.384533,1171.827
833,1.3862,1174.733
834,1.387867,1174.733
835,1.38955,1174.36
836,1.3912,1171.529
837,1.39295,1168.624
838,1.394533,1168.624
839,1.3962,1168.996
840,1.397867,1169.518
841,1.399533,1174.137
842,1.4012,1174.137
843,1.402867,1177.266
844,1.404533,1175.18
845,1.4062,1173.168
846,1.40785,1173.168
847,1.409517,1169.22
848,1.411183,1167.133
849,1.41285,1167.133
850,1.414517,1166.761
851,1.416183,1169.369
852,1.41785,1170.039
853,1.419517,1170.039
854,1.421183,1172.051
855,1.42285,1175.404
856,1.424517,1172.274
857,1.426183,1172.274
858,1.42785,1171.008
859,1.429517,1167.729
860,1.431183,1163.483
861,1.43285,1163.483
862,1.434517,1166.537
863,1.436183,1166.388
864,1.43785,1166.388
865,1.439517,1169.294
866,1.441183,1171.827
867,1.44285,1172.274
868,1.444517,1172.274
869,1.446183,1174.957
870,1.447917,1176.223
871,1.449517,1177.117
872,1.451183,1177.117
873,1.45285,1175.404
874,1.454517,1175.478
875,1.456183,1172.572
876,1.45785,1172.572
877,1.459517,1171.678
878,1.461183,1170.188
879,1.46285,1167.282
880,1.46455,1167.282
881,1.466183,1166.314
882,1.46785,1165.122
883,1.4695,1165.122
884,1.471167,1165.196
885,1.472833,1168.847
886,1.4745,1170.859
887,1.476167,1170.859
888,1.477833,1170.412
889,1.4795,1171.455
890,1.481283,1170.933
891,1.482833,1170.933
892,1.4845,1171.306
893,1.486167,1173.392
894,1.487833,1173.317
895,1.4895,1173.317
896,1.491167,1170.859
897,1.492833,1169.294
898,1.4945,1169.294
899,1.496167,1166.388
900,1.497833,1166.388
901,1.4995,1168.177
902,1.501167,1168.177
903,1.502833,1167.953
904,1.5045,1168.027
905,1.506167,1167.357
906,1.507833,1167.357
907,1.5095,1164.749
908,1.511167,1166.388
909,1.512833,1169.667
910,1.5145,1169.667
911,1.516167,1172.498
912,1.517833,1175.925
913,1.5195,1173.988
914,1.52115,1173.988
915,1.522817,1170.859
916,1.524483,1169.592
917,1.52615,1169.592
918,1.5278,1169.145
919,1.529467,1171.529
920,1.531133,1171.976
921,1.532817,1171.976
