"ID","sea_time","fid_signal"
1,0,1163.632
2,0.001667,1164.079
3,0.003333,1164.079
4,0.005,1162.812
5,0.006683,1163.036
6,0.008333,1164.973
7,0.01,1164.973
8,0.011667,1169.294
9,0.013333,1169.145
10,0.015017,1169.145
11,0.016667,1168.475
12,0.018333,1166.835
13,0.02,1164.302
14,0.021667,1164.302
15,0.023333,1164.6
16,0.025,1164.675
17,0.026667,1164.451
18,0.028333,1164.451
19,0.03,1162.738
20,0.0317,1161.844
21,0.033333,1162.067
22,0.035,1162.067
23,0.036683,1165.271
24,0.038333,1165.718
25,0.04,1165.718
26,0.041667,1166.388
27,0.043333,1165.718
28,0.044983,1166.016
29,0.04665,1166.016
30,0.04845,1165.42
31,0.049983,1165.494
32,0.05165,1167.804
33,0.053317,1167.804
34,0.054983,1167.506
35,0.05665,1167.58
36,0.058317,1167.506
37,0.059983,1167.506
38,0.06165,1164.824
39,0.063317,1164.898
40,0.064983,1168.102
41,0.06665,1168.102
42,0.068317,1168.475
43,0.069983,1169.071
44,0.07165000000000001,1169.071
45,0.07331699999999999,1166.761
46,0.075,1164.898
47,0.07665,1164.377
48,0.078317,1164.377
49,0.079983,1164.824
50,0.08165,1163.557
51,0.083317,1162.738
52,0.084983,1162.738
53,0.08665,1162.961
54,0.08831700000000001,1163.11
55,0.08998299999999999,1165.196
56,0.09165,1165.196
57,0.093317,1165.867
58,0.094983,1165.122
59,0.09665,1165.122
60,0.098317,1164.824
61,0.099983,1164.079
62,0.10165,1166.016
63,0.103317,1166.016
64,0.104967,1166.835
65,0.106633,1166.91
66,0.1083,1169.294
67,0.109967,1169.294
68,0.11165,1165.494
69,0.113367,1166.239
70,0.114967,1169.443
71,0.116633,1169.443
72,0.1183,1166.09
73,0.119967,1168.4
74,0.121633,1167.804
75,0.1233,1167.804
76,0.124967,1165.345
77,0.126633,1166.314
78,0.1283,1166.314
79,0.129967,1165.718
80,0.131633,1167.58
81,0.133383,1170.635
82,0.134967,1170.635
83,0.136633,1170.412
84,0.1383,1172.721
85,0.139967,1172.87
86,0.141633,1172.87
87,0.1433,1172.423
88,0.144967,1172.647
89,0.146633,1169.816
90,0.1483,1169.816
91,0.149967,1169.741
92,0.151633,1166.016
93,0.1533,1166.016
94,0.154967,1164.824
95,0.156633,1163.706
96,0.1583,1162.812
97,0.159967,1162.812
98,0.161667,1161.993
99,0.1633,1163.036
100,0.16495,1166.612
101,0.16675,1166.612
102,0.168283,1164.824
103,0.16995,1165.047
104,0.171617,1167.58
105,0.173283,1167.58
106,0.17495,1166.835
107,0.176617,1168.549
108,0.178283,1168.326
109,0.17995,1168.326
110,0.181617,1167.804
111,0.183283,1167.133
112,0.18495,1167.133
113,0.18665,1165.122
114,0.188283,1166.239
115,0.18995,1164.526
116,0.191617,1164.526
117,0.193283,1164.228
118,0.19495,1166.314
119,0.196617,1170.114
120,0.198283,1170.114
121,0.19995,1179.427
122,0.201617,1190.826
123,0.203283,1210.123
124,0.20495,1210.123
125,0.206617,1236.424
126,0.208267,1265.109
127,0.209933,1265.109
128,0.2116,1305.863
129,0.213267,1351.014
130,0.214933,1403.242
131,0.2166,1403.242
132,0.218267,1462.325
133,0.219933,1526.177
134,0.2216,1592.115
135,0.223267,1592.115
136,0.224917,1656.637
137,0.226583,1720.339
138,0.22825,1781.583
139,0.229917,1781.583
140,0.231583,1843.199
141,0.23325,1906.678
142,0.234917,1906.678
143,0.236583,1970.53
144,0.23825,2035.35
145,0.239917,2098.903
146,0.241583,2098.903
147,0.24325,2163.351
148,0.244917,2232.492
149,0.246617,2299.696
150,0.24825,2299.696
151,0.249917,2370.924
152,0.251633,2441.332
153,0.25325,2510.101
154,0.254933,2510.101
155,0.256583,2586.096
156,0.25825,2663.583
157,0.259917,2744.049
158,0.261583,2744.049
159,0.26325,2828.538
160,0.264917,2912.73
161,0.266583,2912.73
162,0.26825,3003.18
163,0.269917,3098.771
164,0.271583,3199.354
165,0.27325,3199.354
166,0.274917,3307.089
167,0.276583,3417.06
168,0.27825,3531.873
169,0.279917,3531.873
170,0.281583,3653.392
171,0.28325,3778.413
172,0.285033,3912.002
173,0.286567,3912.002
174,0.288233,4049.763
175,0.2899,4196.465
176,0.291567,4196.465
177,0.293233,4350.096
178,0.2949,4511.848
179,0.296567,4690.141
180,0.298233,4690.141
181,0.2999,4879.46
182,0.301567,5100.444
183,0.303233,5370.975
184,0.3049,5370.975
185,0.306567,5725.324
186,0.308233,6227.568
187,0.3099,6940.291
188,0.311567,6940.291
189,0.313233,7929.876
190,0.3149,9240.359
191,0.316567,10844.768
192,0.318233,10844.768
193,0.3199,12653.321
194,0.321567,14508.292
195,0.323233,14508.292
196,0.3249,16207.099
197,0.326567,17568.096
198,0.32825,18454.119
199,0.329967,18454.119
200,0.331567,18811.598
201,0.333233,18661.543
202,0.3349,18078.982
203,0.336567,18078.982
204,0.338233,17178.506
205,0.3399,16076.49
206,0.341567,14875.158
207,0.343233,14875.158
208,0.344883,13656.69
209,0.34655,12475.252
210,0.348217,12475.252
211,0.349883,11358.261
212,0.35155,10327.771
213,0.353217,9391.754999999999
214,0.354883,9391.754999999999
215,0.35655,8550.957
216,0.358217,7801.428
217,0.359883,7136.017
218,0.36155,7136.017
219,0.363217,6549.061
220,0.364883,6029.382
221,0.36655,5571.395
222,0.368217,5571.395
223,0.3699,5170.256
224,0.37155,4814.565
225,0.373217,4499.704
226,0.374883,4499.704
227,0.37655,4223.66
228,0.378217,3980.473
229,0.379883,3980.473
230,0.38155,3767.684
231,0.383217,3581.271
232,0.384883,3416.389
233,0.38655,3416.389
234,0.388217,3269.091
235,0.389883,3136.471
236,0.39155,3019.05
237,0.393217,3019.05
238,0.394883,2913.624
239,0.39655,2816.617
240,0.398217,2729.148
241,0.399883,2729.148
242,0.401567,2651.14
243,0.403283,2579.019
244,0.404883,2579.019
245,0.406533,2514.049
246,0.4082,2452.359
247,0.409883,2393.797
248,0.411533,2393.797
249,0.4132,2341.792
250,0.414867,2293.736
251,0.416533,2251.118
252,0.4182,2251.118
253,0.419867,2210.587
254,0.421533,2169.982
255,0.4232,2131.462
256,0.424867,2131.462
257,0.426533,2093.241
258,0.4282,2057.254
259,0.429867,2026.632
260,0.431533,2026.632
261,0.4332,1998.991
262,0.434867,1971.647
263,0.436533,1971.647
264,0.4382,1947.06
265,0.439867,1918.301
266,0.441533,1890.659
267,0.4432,1890.659
268,0.444867,1865.7
269,0.446533,1840.964
270,0.4482,1819.581
271,0.449867,1819.581
272,0.451533,1794.919
273,0.4532,1773.909
274,0.454867,1751.333
275,0.456533,1751.333
276,0.4582,1730.993
277,0.459867,1712.888
278,0.461533,1712.888
279,0.463183,1696.721
280,0.46485,1679.361
281,0.466533,1661.927
282,0.468233,1661.927
283,0.469933,1645.684
284,0.471517,1628.548
285,0.473183,1614.168
286,0.47485,1614.168
287,0.476517,1599.863
288,0.478183,1584.664
289,0.47985,1571.551
290,0.481517,1571.551
291,0.483183,1559.034
292,0.48485,1546.815
293,0.486517,1546.815
294,0.488183,1536.161
295,0.48985,1522.079
296,0.491517,1508.445
297,0.493183,1508.445
298,0.49485,1496.673
299,0.496517,1484.528
300,0.498183,1472.384
301,0.499833,1472.384
302,0.5014999999999999,1463.369
303,0.503167,1454.577
304,0.5049,1446.009
305,0.5065,1446.009
306,0.508167,1438.782
307,0.509833,1428.798
308,0.5115,1418.814
309,0.513167,1418.814
310,0.514833,1412.854
311,0.5165,1404.211
312,0.518167,1404.211
313,0.519833,1398.176
314,0.521567,1393.929
315,0.523167,1384.616
316,0.524817,1384.616
317,0.526483,1379.251
318,0.52815,1373.142
319,0.529817,1364.052
320,0.531483,1364.052
321,0.53315,1357.421
322,0.534817,1351.684
323,0.536483,1343.638
324,0.53815,1343.638
325,0.539817,1338.571
326,0.541483,1334.101
327,0.543183,1334.101
328,0.544883,1329.258
329,0.5464830000000001,1325.682
330,0.54815,1319.572
331,0.549817,1319.572
332,0.5514829999999999,1314.282
333,0.55315,1308.098
334,0.554817,1304.224
335,0.5564829999999999,1304.224
336,0.55815,1301.765
337,0.559817,1299.381
338,0.561483,1296.625
339,0.56315,1296.625
340,0.564817,1292.974
341,0.566483,1289.547
342,0.56815,1283.884
343,0.569817,1283.884
344,0.571483,1279.414
345,0.57315,1277.402
346,0.574817,1277.402
347,0.576483,1273.677
348,0.5781500000000001,1272.41
349,0.579817,1270.547
350,0.581483,1270.547
351,0.5831499999999999,1267.716
352,0.584817,1266.375
353,0.586467,1264.513
354,0.588133,1264.513
355,0.5898,1263.767
356,0.591467,1260.266
357,0.593133,1256.987
358,0.5948,1256.987
359,0.596467,1252.07
360,0.598133,1247.749
361,0.5998,1247.749
362,0.601467,1245.812
363,0.603133,1243.949
364,0.604833,1242.608
365,0.606467,1242.608
366,0.608133,1242.831
367,0.6098,1240.298
368,0.611467,1234.859
369,0.613133,1234.859
370,0.6148,1233.891
371,0.616467,1227.409
372,0.618167,1224.95
373,0.6198,1224.95
374,0.621467,1222.715
375,0.623167,1218.617
376,0.6248,1218.542
377,0.626467,1218.542
378,0.6281330000000001,1216.531
379,0.6298,1218.244
380,0.631467,1218.244
381,0.6331329999999999,1220.927
382,0.6348,1217.276
383,0.636467,1214.668
384,0.638133,1214.668
385,0.639833,1210.496
386,0.641467,1207.367
387,0.643133,1211.017
388,0.644783,1211.017
389,0.64645,1211.837
390,0.6481170000000001,1211.762
391,0.649783,1208.633
392,0.65145,1208.633
393,0.6531169999999999,1203.567
394,0.654783,1201.257
395,0.65655,1199.916
396,0.658117,1199.916
397,0.659783,1199.245
398,0.66145,1199.245
399,0.663117,1199.245
400,0.664783,1199.171
401,0.66645,1198.873
402,0.668117,1200.065
403,0.669783,1200.065
404,0.67145,1198.724
405,0.673117,1197.308
406,0.674783,1196.563
407,0.67645,1196.563
408,0.678133,1195.371
409,0.679783,1196.936
410,0.68145,1196.936
411,0.683117,1196.191
412,0.684783,1195.744
413,0.68645,1194.403
414,0.688117,1194.403
415,0.689783,1192.465
416,0.69145,1191.422
417,0.693117,1189.411
418,0.694783,1189.411
419,0.69645,1190.081
420,0.698117,1191.124
421,0.699783,1190.156
422,0.70145,1190.156
423,0.7030999999999999,1188.964
424,0.7048,1185.313
425,0.706433,1184.195
426,0.7081,1184.195
427,0.709767,1184.94
428,0.711433,1185.536
429,0.7131,1185.536
430,0.714767,1186.505
431,0.716433,1185.238
432,0.7181,1184.642
433,0.719767,1184.642
434,0.721433,1187.176
435,0.7231,1188.144
436,0.7247670000000001,1188.07
437,0.726433,1188.07
438,0.7281,1188.889
439,0.7297670000000001,1186.877
440,0.731433,1184.195
441,0.7331,1184.195
442,0.7347669999999999,1183.152
443,0.736433,1183.972
444,0.7381,1183.972
445,0.739767,1183.897
446,0.741433,1183.823
447,0.7431,1183.078
448,0.744767,1183.078
449,0.746433,1180.097
450,0.7481,1178.831
451,0.749767,1181.29
452,0.75145,1181.29
453,0.7531,1184.27
454,0.754767,1183.972
455,0.756433,1184.27
456,0.7581,1184.27
457,0.759767,1181.364
458,0.761433,1180.917
459,0.7631,1180.023
460,0.76475,1180.023
461,0.766417,1179.799
462,0.768083,1180.396
463,0.76975,1180.396
464,0.771417,1177.341
465,0.773083,1176.968
466,0.77475,1173.839
467,0.776417,1173.839
468,0.778083,1171.157
469,0.7797500000000001,1171.008
470,0.781417,1172.647
471,0.783083,1172.647
472,0.7847499999999999,1172.274
473,0.786417,1173.615
474,0.788083,1173.243
475,0.78975,1173.243
476,0.7914,1173.243
477,0.793067,1178.235
478,0.794733,1178.235
479,0.796417,1178.905
480,0.798067,1177.341
481,0.799733,1177.862
482,0.8014,1177.862
483,0.803067,1176.447
484,0.804733,1176.223
485,0.8064,1177.788
486,0.808067,1177.788
487,0.809733,1178.16
488,0.8114,1178.16
489,0.813083,1179.576
490,0.814733,1179.576
491,0.8164,1182.333
492,0.818067,1180.768
493,0.819733,1180.768
494,0.821417,1178.905
495,0.823067,1175.627
496,0.824717,1171.455
497,0.826383,1171.455
498,0.82805,1168.996
499,0.829717,1166.761
500,0.831383,1167.804
501,0.83305,1167.804
502,0.834717,1168.027
503,0.836383,1169.741
504,0.83805,1173.913
505,0.839717,1173.913
506,0.841383,1172.647
507,0.84305,1172.945
508,0.8447170000000001,1171.455
509,0.846383,1171.455
510,0.84805,1172.051
511,0.8497169999999999,1172.2
512,0.851383,1172.2
513,0.85305,1171.529
514,0.8547169999999999,1175.404
515,0.856383,1173.541
516,0.85805,1173.541
517,0.859783,1175.553
518,0.861383,1177.564
519,0.86305,1173.913
520,0.864717,1173.913
521,0.866383,1171.455
522,0.86805,1171.678
523,0.869717,1168.624
524,0.871383,1168.624
525,0.87305,1168.549
526,0.874717,1169.965
527,0.876383,1169.965
528,0.87805,1167.506
529,0.879717,1170.933
530,0.881383,1172.87
531,0.88305,1172.87
532,0.8847,1172.796
533,0.886367,1172.572
534,0.888033,1168.698
535,0.8897,1168.698
536,0.891367,1169.145
537,0.89315,1168.251
538,0.8947000000000001,1169.592
539,0.896367,1169.592
540,0.89805,1173.392
541,0.8997000000000001,1173.243
542,0.901367,1175.925
543,0.903033,1175.925
544,0.9046999999999999,1178.533
545,0.906367,1177.788
546,0.908033,1177.788
547,0.9097,1175.478
548,0.911367,1175.106
549,0.913033,1170.635
550,0.9147,1170.635
551,0.916367,1168.027
552,0.918033,1169.816
553,0.9197,1168.549
554,0.921367,1168.549
555,0.923033,1169.071
556,0.9247,1172.721
557,0.9263670000000001,1169.518
558,0.928033,1169.518
559,0.9297,1168.027
560,0.9313669999999999,1167.879
561,0.933033,1167.879
562,0.9347,1164.6
563,0.9363669999999999,1165.494
564,0.938033,1166.612
565,0.9397,1166.612
566,0.941367,1166.686
567,0.943033,1169.22
568,0.9446830000000001,1171.529
569,0.94635,1171.529
570,0.948017,1170.71
571,0.9496830000000001,1173.765
572,0.95135,1170.635
573,0.953017,1170.635
574,0.9546829999999999,1169.369
575,0.95635,1169.965
576,0.958017,1169.443
577,0.959683,1169.443
578,0.96135,1172.647
579,0.963017,1172.498
580,0.9647,1172.498
581,0.96635,1174.882
582,0.968017,1174.659
583,0.969683,1174.957
584,0.97135,1174.957
585,0.973017,1176.745
586,0.974683,1173.466
587,0.9763500000000001,1170.784
588,0.978083,1170.784
589,0.979683,1168.996
590,0.9813499999999999,1168.996
591,0.983017,1168.4
592,0.984683,1168.4
593,0.9863499999999999,1167.953
594,0.988017,1166.239
595,0.989683,1166.239
596,0.99135,1166.537
597,0.993017,1166.761
598,0.994683,1170.784
599,0.99635,1170.784
600,0.998017,1171.678
601,0.999683,1168.475
602,1.00135,1169.741
603,1.003017,1169.741
604,1.004667,1165.941
605,1.006333,1166.835
606,1.008,1167.729
607,1.009667,1167.729
608,1.01145,1168.027
609,1.013,1168.4
610,1.014667,1168.698
611,1.016333,1168.698
612,1.018,1171.455
613,1.019667,1172.349
614,1.021333,1172.349
615,1.023,1174.36
616,1.024667,1175.329
617,1.026333,1170.859
618,1.028,1170.859
619,1.029667,1168.102
620,1.031333,1165.494
621,1.033,1164.749
622,1.034667,1164.749
623,1.036333,1165.42
624,1.038,1166.314
625,1.039667,1170.114
626,1.04135,1170.114
627,1.043,1168.847
628,1.044717,1168.922
629,1.046333,1168.922
630,1.048,1171.604
631,1.049667,1168.549
632,1.051333,1169.89
633,1.053,1169.89
634,1.054667,1173.69
635,1.056333,1171.306
636,1.058,1172.498
637,1.059667,1172.498
638,1.061333,1170.337
639,1.063,1167.506
640,1.06465,1170.71
641,1.066317,1170.71
642,1.067983,1171.157
643,1.06965,1171.38
644,1.071317,1171.38
645,1.072983,1171.902
646,1.07465,1169.071
647,1.076317,1167.729
648,1.077983,1167.729
649,1.07965,1166.314
650,1.081317,1165.271
651,1.082967,1164.675
652,1.084633,1164.675
653,1.0863,1165.792
654,1.087967,1169.369
655,1.089633,1171.231
656,1.0913,1171.231
657,1.092967,1171.976
658,1.094633,1169.816
659,1.09635,1167.58
660,1.097967,1167.58
661,1.099633,1168.4
662,1.1013,1165.867
663,1.102967,1165.867
664,1.104633,1166.016
665,1.1063,1164.824
666,1.107967,1162.514
667,1.109633,1162.514
668,1.1113,1163.259
669,1.112983,1163.557
670,1.114683,1164.153
671,1.1163,1164.153
672,1.117967,1164.302
673,1.119633,1167.58
674,1.1213,1168.102
675,1.122967,1168.102
676,1.124617,1167.432
677,1.126283,1166.91
678,1.12795,1166.91
679,1.129733,1162.589
680,1.131283,1161.024
681,1.13295,1160.279
682,1.134617,1160.279
683,1.136283,1160.502
684,1.13795,1161.396
685,1.139617,1161.247
686,1.141283,1161.247
687,1.14295,1163.259
688,1.144617,1162.142
689,1.146283,1162.738
690,1.14795,1162.738
691,1.149617,1166.91
692,1.151283,1168.102
693,1.15295,1168.773
694,1.154617,1168.773
695,1.156283,1171.753
696,1.15795,1171.157
697,1.159617,1171.157
698,1.161283,1170.859
699,1.16295,1171.38
700,1.164617,1169.071
701,1.166283,1169.071
702,1.16795,1166.165
703,1.169617,1165.122
704,1.171283,1163.632
705,1.17295,1163.632
706,1.174617,1164.377
707,1.176283,1165.196
708,1.17795,1164.6
709,1.179617,1164.6
710,1.181283,1164.6
711,1.18295,1161.471
712,1.1846,1161.471
713,1.186267,1161.173
714,1.18795,1162.216
715,1.189617,1162.663
716,1.19135,1162.663
717,1.192933,1167.059
718,1.1946,1167.506
719,1.196267,1168.251
720,1.197933,1168.251
721,1.1996,1168.698
722,1.201267,1166.537
723,1.202933,1165.792
724,1.2046,1165.792
725,1.206267,1164.153
726,1.207933,1162.663
727,1.2096,1161.695
728,1.211267,1161.695
729,1.212933,1165.42
730,1.214633,1166.165
731,1.216283,1166.165
732,1.217933,1166.239
733,1.2196,1167.208
734,1.221267,1166.463
735,1.222933,1166.463
736,1.2246,1168.847
737,1.226267,1173.69
738,1.227933,1175.18
739,1.2296,1175.18
740,1.231367,1173.615
741,1.232933,1174.137
742,1.2346,1171.157
743,1.236267,1171.157
744,1.237933,1169.592
745,1.2396,1169.965
746,1.241267,1169.965
747,1.242917,1170.337
748,1.244583,1169.443
749,1.24625,1169.89
750,1.248033,1169.89
751,1.249583,1168.4
752,1.25125,1165.271
753,1.252917,1165.494
754,1.254583,1165.494
755,1.25625,1166.91
756,1.257917,1166.835
757,1.259583,1166.09
758,1.26125,1166.09
759,1.26295,1166.835
760,1.2647,1163.557
761,1.26625,1163.557
762,1.267917,1163.11
763,1.269583,1164.377
764,1.27125,1164.153
765,1.272917,1164.153
766,1.274583,1164.824
767,1.27625,1166.612
768,1.277917,1166.612
769,1.279583,1166.612
770,1.28125,1167.879
771,1.282917,1170.188
772,1.284583,1169.145
773,1.28625,1169.145
774,1.287917,1170.859
775,1.289583,1169.741
776,1.29125,1169.071
777,1.292917,1169.071
778,1.294583,1170.412
779,1.29625,1171.231
780,1.297917,1171.231
781,1.299583,1173.69
782,1.30125,1171.231
783,1.302917,1170.859
784,1.304567,1170.859
785,1.306233,1169.22
786,1.3079,1167.357
787,1.309567,1171.38
788,1.311233,1171.38
789,1.3129,1171.38
790,1.314567,1169.667
791,1.316233,1168.251
792,1.3179,1168.251
793,1.319567,1166.537
794,1.321233,1168.475
795,1.3229,1168.475
796,1.324567,1168.177
797,1.326233,1168.102
798,1.3279,1166.165
799,1.329583,1166.165
800,1.33125,1162.44
801,1.3329,1162.738
802,1.334567,1163.706
803,1.336233,1163.706
804,1.3379,1164.004
805,1.339567,1164.451
806,1.341233,1164.228
807,1.3429,1164.228
808,1.344567,1162.887
809,1.346233,1163.855
810,1.3479,1166.91
811,1.349633,1166.91
812,1.351233,1169.145
813,1.3529,1170.263
814,1.354567,1170.263
815,1.356233,1169.071
816,1.3579,1164.749
817,1.359567,1161.099
818,1.361233,1161.099
819,1.3629,1160.428
820,1.36455,1163.781
821,1.3663,1168.4
822,1.367883,1168.4
823,1.36955,1169.518
824,1.371217,1170.635
825,1.372867,1171.082
826,1.374533,1171.082
827,1.3762,1168.251
828,1.377867,1168.698
829,1.379533,1168.698
830,1.3812,1170.039
831,1.382867,1166.761
832,1.384533,1164.302
833,1.3862,1164.302
834,1.387867,1164.079
835,1.389533,1161.844
836,1.391217,1161.471
837,1.392867,1161.471
838,1.394533,1162.44
839,1.3962,1163.334
840,1.397867,1163.036
841,1.399533,1163.036
842,1.4012,1166.016
843,1.402867,1166.165
844,1.404533,1164.824
845,1.4062,1164.824
846,1.4079,1164.377
847,1.40955,1162.663
848,1.4112,1162.663
849,1.412867,1164.675
850,1.414533,1167.879
851,1.4162,1169.369
852,1.417867,1169.369
853,1.419533,1170.933
854,1.4212,1172.647
855,1.422867,1171.976
856,1.424517,1171.976
857,1.426183,1171.082
858,1.42785,1170.114
859,1.429517,1167.953
860,1.431183,1167.953
861,1.43285,1167.879
862,1.434517,1170.039
863,1.436183,1170.039
864,1.43785,1170.71
865,1.439517,1173.839
866,1.441183,1171.976
867,1.44285,1171.976
868,1.444517,1169.518
869,1.446183,1169.89
870,1.44785,1169.294
871,1.449517,1169.294
872,1.451183,1168.4
873,1.45285,1170.784
874,1.454517,1168.922
875,1.456183,1168.922
876,1.45785,1168.4
877,1.459517,1171.157
878,1.461183,1171.157
879,1.46285,1169.294
880,1.464517,1169.145
881,1.466183,1169.443
882,1.4679,1169.443
883,1.469517,1168.326
884,1.471183,1170.635
885,1.47285,1172.423
886,1.47455,1172.423
887,1.476183,1172.796
888,1.477867,1173.094
889,1.479517,1171.082
890,1.481183,1171.082
891,1.48285,1168.549
892,1.484567,1164.973
893,1.486167,1163.11
894,1.487833,1163.11
895,1.4895,1166.537
896,1.491167,1169.592
897,1.492833,1169.592
898,1.4945,1169.071
899,1.496167,1169.294
900,1.497833,1166.835
901,1.4995,1166.835
902,1.501283,1166.686
903,1.502833,1168.4
904,1.5045,1170.039
905,1.506167,1170.039
906,1.507833,1168.326
907,1.5095,1167.58
908,1.511167,1165.867
909,1.512833,1165.867
910,1.5145,1163.632
911,1.516167,1165.867
912,1.517833,1165.867
913,1.5195,1163.408
914,1.521167,1166.165
915,1.522833,1168.698
916,1.5245,1168.698
917,1.526167,1167.58
918,1.527833,1169.816
919,1.5295,1169.518
920,1.531167,1169.518
921,1.532833,1171.082
922,1.5345,1170.263
