"ID","sea_time","fid_signal"
1,0,1182.035
2,0.001667,1178.309
3,0.003333,1177.713
4,0.005,1177.788
5,0.006667,1177.788
6,0.008333,1177.49
7,0.01,1179.725
8,0.011767,1178.682
9,0.013333,1178.682
10,0.015,1176.223
11,0.016667,1174.659
12,0.018333,1174.659
13,0.02,1174.957
14,0.021667,1177.117
15,0.023333,1179.576
16,0.025,1179.576
17,0.026667,1180.693
18,0.028333,1177.564
19,0.03,1171.008
20,0.031667,1171.008
21,0.033333,1171.902
22,0.035,1173.094
23,0.036667,1175.329
24,0.038333,1175.329
25,0.04,1180.097
26,0.041667,1180.023
27,0.043317,1180.023
28,0.045,1180.396
29,0.04665,1177.117
30,0.048317,1175.925
31,0.049983,1175.925
32,0.05165,1172.051
33,0.053317,1168.922
34,0.054983,1167.879
35,0.056633,1167.879
36,0.0583,1165.345
37,0.059967,1168.027
38,0.061633,1167.879
39,0.0633,1167.879
40,0.064967,1171.231
41,0.066667,1176
42,0.0683,1176
43,0.069967,1173.243
44,0.071633,1173.913
45,0.0733,1170.412
46,0.07496700000000001,1170.412
47,0.07663300000000001,1168.4
48,0.07829999999999999,1169.145
49,0.079967,1169.369
50,0.081633,1169.369
51,0.0833,1173.019
52,0.084967,1170.784
53,0.086633,1174.212
54,0.0883,1174.212
55,0.08996700000000001,1176.298
56,0.09163300000000001,1176.074
57,0.09329999999999999,1178.384
58,0.094967,1178.384
59,0.09669999999999999,1176.968
60,0.0983,1175.702
61,0.09995,1175.702
62,0.101617,1176.894
63,0.103283,1176.67
64,0.10495,1177.639
65,0.106617,1177.639
66,0.108283,1178.458
67,0.10995,1178.309
68,0.111617,1179.054
69,0.113283,1179.054
70,0.11495,1178.533
71,0.116617,1178.607
72,0.118283,1174.36
73,0.11995,1174.36
74,0.121617,1171.455
75,0.123283,1171.157
76,0.12495,1171.157
77,0.126617,1170.933
78,0.1283,1174.36
79,0.130033,1176.968
80,0.131617,1176.968
81,0.133283,1179.501
82,0.13495,1178.756
83,0.136617,1178.756
84,0.138283,1178.756
85,0.13995,1177.117
86,0.141617,1172.945
87,0.143283,1172.423
88,0.14495,1172.423
89,0.146617,1174.435
90,0.148283,1175.776
91,0.14995,1177.713
92,0.151617,1177.713
93,0.153283,1178.235
94,0.15495,1174.807
95,0.156617,1174.807
96,0.158317,1175.553
97,0.15995,1175.851
98,0.1616,1176.447
99,0.163267,1176.447
100,0.164933,1176.596
101,0.1666,1176.447
102,0.168267,1172.796
103,0.169933,1172.796
104,0.1716,1171.306
105,0.173267,1171.753
106,0.174933,1172.945
107,0.1766,1172.945
108,0.178267,1178.235
109,0.179933,1176.819
110,0.1816,1176.819
111,0.183267,1175.776
112,0.184933,1174.659
113,0.1866,1173.541
114,0.188267,1173.541
115,0.189933,1178.011
116,0.1916,1182.556
117,0.193267,1187.921
118,0.194933,1187.921
119,0.1966,1196.042
120,0.1983,1206.249
121,0.199933,1214.296
122,0.2016,1214.296
123,0.203267,1224.801
124,0.204933,1240.447
125,0.2066,1257.36
126,0.208267,1257.36
127,0.209933,1280.829
128,0.2116,1305.64
129,0.213267,1305.64
130,0.214967,1331.493
131,0.2166,1359.731
132,0.218267,1387.522
133,0.219933,1387.522
134,0.221583,1416.43
135,0.22325,1445.636
136,0.224917,1473.278
137,0.226583,1473.278
138,0.22825,1505.092
139,0.229917,1538.545
140,0.231667,1570.806
141,0.23325,1570.806
142,0.234917,1606.867
143,0.236583,1647.845
144,0.23825,1647.845
145,0.239917,1688.823
146,0.2416,1734.719
147,0.24325,1785.979
148,0.244917,1785.979
149,0.246583,1838.431
150,0.24835,1897.663
151,0.249917,1960.546
152,0.251583,1960.546
153,0.25325,2029.017
154,0.254917,2100.542
155,0.256583,2178.475
156,0.25825,2178.475
157,0.259917,2264.231
158,0.261583,2356.693
159,0.26325,2459.958
160,0.264917,2459.958
161,0.266583,2571.344
162,0.26825,2692.193
163,0.269917,2692.193
164,0.271583,2821.833
165,0.27325,2958.551
166,0.274933,3104.061
167,0.276583,3104.061
168,0.27825,3261.417
169,0.279917,3434.345
170,0.281583,3620.163
171,0.283233,3620.163
172,0.2849,3823.415
173,0.286567,4046.41
174,0.288233,4285.648
175,0.2899,4285.648
176,0.291567,4552.826
177,0.293233,4854.128
178,0.2949,4854.128
179,0.296567,5211.011
180,0.298233,5674.288
181,0.2999,6322.339
182,0.301567,6322.339
183,0.303233,7275.12
184,0.3049,8696.615
185,0.306567,10800.734
186,0.308233,10800.734
187,0.3099,13821.87
188,0.311567,17983.168
189,0.313233,23390.799
190,0.3149,23390.799
191,0.316567,29929.951
192,0.318233,37213.563
193,0.3199,37213.563
194,0.321567,44622.867
195,0.323233,51433.742
196,0.324933,56989.344
197,0.326567,56989.344
198,0.328233,60844.645
199,0.3299,62793.195
200,0.331567,62887.594
201,0.333283,62887.594
202,0.3349,61365.441
203,0.336567,58567.523
204,0.338233,54888.426
205,0.3399,54888.426
206,0.34155,50695.465
207,0.343217,46297.461
208,0.3449,41941.852
209,0.3466,41941.852
210,0.3482,37797.539
211,0.34995,33967.867
212,0.351533,33967.867
213,0.3532,30511.17
214,0.354867,27443.096
215,0.356533,24751.648
216,0.3582,24751.648
217,0.359867,22413.508
218,0.361533,20390.674
219,0.3632,18640.906
220,0.364867,18640.906
221,0.366633,17123.744
222,0.3682,15804.618
223,0.369867,14656.633
224,0.371533,14656.633
225,0.3732,13649.464
226,0.374867,12764.409
227,0.376533,12764.409
228,0.3782,11978.745
229,0.379867,11275.56
230,0.381533,10644.123
231,0.3832,10644.123
232,0.384867,10072.962
233,0.386533,9554.772999999999
234,0.3882,9079.799000000001
235,0.389867,9079.799000000001
236,0.391533,8646.174999999999
237,0.3932,8250.4
238,0.394867,7883.683
239,0.396533,7883.683
240,0.3982,7543.415
241,0.399867,7225.722
242,0.401517,6924.942
243,0.403183,6924.942
244,0.40485,6642.118
245,0.406517,6378.517
246,0.408183,6378.517
247,0.40985,6129.891
248,0.411517,5891.621
249,0.413183,5666.464
250,0.41485,5666.464
251,0.41655,5451.813
252,0.418233,5246.997
253,0.41985,5053.058
254,0.421517,5053.058
255,0.423183,4869.252
256,0.42485,4692.599
257,0.426517,4526.302
258,0.428183,4526.302
259,0.42985,4371.479
260,0.431517,4226.342
261,0.433183,4226.342
262,0.43485,4087.835
263,0.436517,3955.96
264,0.438183,3829.375
265,0.43985,3829.375
266,0.441517,3704.727
267,0.443183,3588.647
268,0.44485,3473.833
269,0.446517,3473.833
270,0.4482,3368.482
271,0.44985,3267.974
272,0.451517,3173.053
273,0.453183,3173.053
274,0.45485,3084.689
275,0.456517,2997.294
276,0.458183,2997.294
277,0.45985,2915.859
278,0.4615,2839.416
279,0.463167,2764.016
280,0.464833,2764.016
281,0.4665,2695.024
282,0.46825,2627.075
283,0.469833,2560.467
284,0.4715,2560.467
285,0.473167,2502.725
286,0.474833,2444.61
287,0.4765,2389.997
288,0.478167,2389.997
289,0.479833,2335.757
290,0.4815,2283.305
291,0.483167,2233.237
292,0.484883,2233.237
293,0.486533,2186.447
294,0.4882,2144.128
295,0.489833,2144.128
296,0.4915,2105.012
297,0.493167,2068.654
298,0.494833,2032.891
299,0.4965,2032.891
300,0.498167,2001.375
301,0.499833,1967.773
302,0.5016,1937.375
303,0.503167,1937.375
304,0.504833,1906.455
305,0.5065,1875.013
306,0.508167,1842.38
307,0.509833,1842.38
308,0.5115,1811.46
309,0.513167,1785.532
310,0.514833,1785.532
311,0.5165,1760.2
312,0.518167,1738.667
313,0.519833,1718.029
314,0.521483,1718.029
315,0.52315,1696.274
316,0.524817,1675.189
317,0.526483,1655.891
318,0.52815,1655.891
319,0.529817,1635.775
320,0.531483,1620.203
321,0.53315,1601.279
322,0.534817,1601.279
323,0.536483,1582.652
324,0.53815,1564.547
325,0.539817,1547.039
326,0.541483,1547.039
327,0.54315,1531.169
328,0.544817,1516.864
329,0.5464830000000001,1516.864
330,0.54815,1505.017
331,0.549817,1495.63
332,0.5514829999999999,1488.179
333,0.55315,1488.179
334,0.554817,1476.556
335,0.5564829999999999,1465.082
336,0.55815,1453.757
337,0.559833,1453.757
338,0.561483,1439.378
339,0.5632,1434.088
340,0.564817,1426.935
341,0.566483,1426.935
342,0.56815,1414.12
343,0.569817,1406.446
344,0.571483,1406.446
345,0.57315,1398.176
346,0.574817,1388.863
347,0.576483,1381.934
348,0.5781500000000001,1381.934
349,0.579817,1377.165
350,0.581467,1369.342
351,0.583133,1363.605
352,0.5848,1363.605
353,0.586517,1358.688
354,0.588133,1353.1
355,0.5898,1347.14
356,0.591467,1347.14
357,0.593133,1343.861
358,0.5948,1338.571
359,0.596467,1333.728
360,0.598133,1333.728
361,0.5998,1329.705
362,0.601467,1323.372
363,0.603167,1323.372
364,0.6048,1318.902
365,0.606467,1314.357
366,0.608133,1312.122
367,0.6098,1312.122
368,0.611467,1307.279
369,0.613133,1303.554
370,0.6148,1299.307
371,0.616467,1299.307
372,0.618133,1294.017
373,0.61985,1288.801
374,0.621467,1284.48
375,0.623133,1284.48
376,0.6248,1280.531
377,0.626467,1276.284
378,0.6281330000000001,1276.284
379,0.6298,1274.869
380,0.631467,1273.304
381,0.6331329999999999,1272.932
382,0.6348,1272.932
383,0.636467,1272.336
384,0.638133,1272.634
385,0.639783,1270.473
386,0.641433,1270.473
387,0.6431,1269.653
388,0.644767,1267.865
389,0.646433,1266.524
390,0.6481,1266.524
391,0.649767,1266.375
392,0.651433,1262.203
393,0.6531,1262.203
394,0.654767,1263.246
395,0.656433,1259.968
396,0.6581,1257.062
397,0.659767,1257.062
398,0.661433,1253.709
399,0.6631,1247.898
400,0.664767,1243.278
401,0.6664330000000001,1243.278
402,0.6681,1242.31
403,0.669767,1242.086
404,0.6714329999999999,1242.608
405,0.6731,1242.608
406,0.674767,1243.353
407,0.676433,1241.118
408,0.6781,1240.969
409,0.679767,1240.969
410,0.681433,1236.945
411,0.6831,1237.392
412,0.684767,1237.392
413,0.686433,1237.392
414,0.6881,1236.871
415,0.689767,1239.031
416,0.691433,1239.031
417,0.6931,1236.498
418,0.694767,1235.232
419,0.696433,1234.338
420,0.6981000000000001,1234.338
421,0.699767,1232.177
422,0.701417,1233.965
423,0.703083,1234.412
424,0.704817,1234.412
425,0.706417,1230.612
426,0.708083,1227.632
427,0.70975,1227.632
428,0.711417,1226.664
429,0.713117,1224.577
430,0.71475,1225.248
431,0.716417,1225.248
432,0.718083,1227.707
433,0.71975,1224.205
434,0.721467,1222.864
435,0.723083,1222.864
436,0.72475,1223.311
437,0.726417,1220.852
438,0.728083,1220.48
439,0.72975,1220.48
440,0.731417,1221.895
441,0.733083,1219.586
442,0.73475,1220.629
443,0.736417,1220.629
444,0.73815,1220.927
445,0.73975,1216.009
446,0.741417,1216.009
447,0.743083,1216.084
448,0.74475,1211.39
449,0.746417,1208.41
450,0.7480830000000001,1208.41
451,0.74975,1211.092
452,0.751417,1212.656
453,0.7530829999999999,1215.86
454,0.75475,1215.86
455,0.756417,1215.637
456,0.758083,1212.507
457,0.75975,1211.315
458,0.7614,1211.315
459,0.7630670000000001,1210.347
460,0.764733,1211.166
461,0.7664,1211.166
462,0.7680670000000001,1211.464
463,0.769733,1211.166
464,0.7714,1208.857
465,0.7730669999999999,1208.857
466,0.774767,1207.143
467,0.7764,1206.845
468,0.778067,1206.696
469,0.779733,1206.696
470,0.7814,1208.186
471,0.783067,1209.229
472,0.784733,1211.539
473,0.7864,1211.539
474,0.788067,1209.9
475,0.789733,1211.241
476,0.7914,1212.359
477,0.7931,1212.359
478,0.794733,1212.806
479,0.7964,1213.774
480,0.798067,1213.774
481,0.799733,1211.315
482,0.8014,1210.347
483,0.803067,1207.665
484,0.804733,1207.665
485,0.8064,1207.888
486,0.808067,1209.155
487,0.809733,1206.994
488,0.8114,1206.994
489,0.813067,1206.323
490,0.814733,1204.014
491,0.8164,1198.873
492,0.818067,1198.873
493,0.819733,1199.394
494,0.8214,1200.065
495,0.8230499999999999,1200.065
496,0.824717,1199.693
497,0.826383,1201.704
498,0.82805,1204.759
499,0.829717,1204.759
500,0.831383,1203.269
501,0.83305,1204.535
502,0.834717,1204.535
503,0.836383,1204.535
504,0.83805,1201.108
505,0.83975,1202.375
506,0.841383,1201.183
507,0.8431,1201.183
508,0.8447170000000001,1202.002
509,0.846383,1201.853
510,0.84805,1202.896
511,0.8497169999999999,1202.896
512,0.8514,1205.727
513,0.85305,1205.057
514,0.8547169999999999,1205.057
515,0.8565,1205.131
516,0.85805,1204.014
517,0.859717,1200.885
518,0.861383,1200.885
519,0.86305,1200.736
520,0.864717,1201.853
521,0.866383,1202.673
522,0.86805,1202.673
523,0.869717,1202.151
524,0.871383,1198.873
525,0.87305,1196.563
526,0.874717,1196.563
527,0.876383,1196.563
528,0.87805,1197.085
529,0.8797,1197.085
530,0.881367,1199.543
531,0.883033,1197.979
532,0.884717,1194.85
533,0.886417,1194.85
534,0.888033,1194.403
535,0.8897,1194.328
536,0.891367,1199.842
537,0.893033,1199.842
538,0.8947000000000001,1201.779
539,0.896367,1202.226
540,0.898033,1201.704
541,0.8997000000000001,1201.704
542,0.901367,1196.116
543,0.903033,1193.956
544,0.9046999999999999,1193.956
545,0.906367,1193.136
546,0.908033,1191.869
547,0.9097,1192.689
548,0.911367,1192.689
549,0.913033,1192.987
550,0.9147,1191.497
551,0.916417,1193.062
552,0.918033,1193.062
553,0.9197,1195.073
554,0.921367,1196.191
555,0.923033,1194.924
556,0.9247,1194.924
557,0.9263670000000001,1195.595
558,0.928033,1195.669
559,0.929683,1194.701
560,0.93135,1194.701
561,0.933017,1196.638
562,0.934683,1195.297
563,0.93635,1195.297
564,0.938017,1194.701
565,0.939683,1194.03
566,0.9414169999999999,1190.677
567,0.9429999999999999,1190.677
568,0.944667,1189.336
569,0.946333,1189.038
570,0.948,1192.391
571,0.949667,1192.391
572,0.951333,1196.042
573,0.953,1197.532
574,0.954667,1195.371
575,0.956333,1195.371
576,0.958,1190.007
577,0.959667,1189.485
578,0.961333,1189.485
579,0.963,1189.336
580,0.9646670000000001,1191.571
581,0.966333,1190.975
582,0.968,1190.975
583,0.969683,1189.262
584,0.971333,1189.336
585,0.973,1188.442
586,0.974783,1188.442
587,0.976333,1191.72
588,0.978,1191.422
589,0.979667,1192.763
590,0.981333,1192.763
591,0.983,1194.701
592,0.984667,1193.657
593,0.986333,1194.85
594,0.988,1194.85
595,0.989667,1191.72
596,0.991333,1188.74
597,0.9930330000000001,1188.74
598,0.994667,1189.485
599,0.996333,1191.124
600,0.997983,1192.391
601,0.999667,1192.391
602,1.001317,1192.689
603,1.002983,1192.167
604,1.00465,1189.336
605,1.006317,1189.336
606,1.007983,1188.517
607,1.00965,1187.101
608,1.011317,1188.144
609,1.012983,1188.144
610,1.01465,1189.56
611,1.016317,1191.348
612,1.017983,1191.348
613,1.01965,1196.414
614,1.021317,1193.136
