"ID","sea_time","fid_signal"
1,0,37.611
2,0.001667,37.61
3,0.003333,37.627
4,0.005,37.595
5,0.006667,37.595
6,0.008333,37.536
7,0.01,37.381
8,0.01165,37.209
9,0.013317,37.209
10,0.0151,37.187
11,0.01665,37.245
12,0.018317,37.397
13,0.019983,37.397
14,0.02165,37.557
15,0.023317,37.61
16,0.024983,37.61
17,0.02665,37.645
18,0.028317,37.666
19,0.029983,37.669
20,0.03165,37.669
21,0.033317,37.628
22,0.034983,37.616
23,0.03665,37.594
24,0.038317,37.594
25,0.039983,37.592
26,0.04165,37.614
27,0.043317,37.596
28,0.044983,37.596
29,0.04665,37.593
30,0.048317,37.594
31,0.049983,37.594
32,0.05165,37.603
33,0.053317,37.6
34,0.055,37.602
35,0.05665,37.602
36,0.058317,37.584
37,0.059983,37.573
38,0.06165,37.575
39,0.063317,37.575
40,0.064983,37.588
41,0.06665,37.601
42,0.068317,37.614
43,0.07000000000000001,37.614
44,0.0717,37.634
45,0.0733,37.625
46,0.07496700000000001,37.625
47,0.07663300000000001,37.625
48,0.07829999999999999,37.645
49,0.079967,37.651
50,0.081633,37.651
51,0.0833,37.634
52,0.084967,37.631
53,0.086633,37.599
54,0.0883,37.599
55,0.08996700000000001,37.576
56,0.09163300000000001,37.577
57,0.09329999999999999,37.573
58,0.094967,37.573
59,0.096633,37.588
60,0.0983,37.581
61,0.099983,37.581
62,0.101633,37.581
63,0.1033,37.569
64,0.104967,37.529
65,0.106633,37.529
66,0.1083,37.555
67,0.109967,37.558
68,0.111633,37.578
69,0.1133,37.578
70,0.114967,37.598
71,0.1167,37.577
72,0.1183,37.573
73,0.119967,37.573
74,0.121633,37.539
75,0.123333,37.553
76,0.124967,37.604
77,0.126633,37.604
78,0.1283,37.602
79,0.12995,37.636
80,0.131633,37.622
81,0.133367,37.622
82,0.13495,37.608
83,0.136617,37.613
84,0.138283,37.613
85,0.13995,37.6
86,0.141617,37.597
87,0.143283,37.58
88,0.144967,37.58
89,0.146617,37.592
90,0.148283,37.626
91,0.15005,37.657
92,0.151617,37.657
93,0.153283,37.683
94,0.15495,37.683
95,0.156617,37.66
96,0.158283,37.66
97,0.15995,37.65
98,0.161617,37.634
99,0.163317,37.634
100,0.16495,37.641
101,0.166617,37.65
102,0.168283,37.643
103,0.16995,37.643
104,0.171617,37.649
105,0.173283,37.649
106,0.17495,37.657
107,0.176617,37.657
108,0.178283,37.669
109,0.17995,37.651
110,0.181617,37.653
111,0.183283,37.653
112,0.18495,37.637
113,0.186617,37.609
114,0.188283,37.609
115,0.18995,37.611
116,0.191617,37.607
117,0.193267,37.608
118,0.194933,37.608
119,0.19665,37.634
120,0.198267,37.64
121,0.199933,37.637
122,0.2016,37.637
123,0.203267,37.634
124,0.204933,37.672
125,0.2066,37.695
126,0.208267,37.695
127,0.209933,37.695
128,0.2116,37.732
129,0.213267,37.697
130,0.214933,37.697
131,0.2166,37.712
132,0.218267,37.732
133,0.219933,37.732
134,0.2216,37.742
135,0.223267,37.818
136,0.224933,37.825
137,0.2266,37.825
138,0.228267,37.894
139,0.229933,37.947
140,0.2316,37.992
141,0.233267,37.992
142,0.234933,38.052
143,0.2366,38.067
144,0.238267,38.099
145,0.239917,38.099
146,0.241583,38.103
147,0.243267,38.151
148,0.244917,38.151
149,0.246583,38.256
150,0.248233,38.329
151,0.249917,38.399
152,0.251633,38.399
153,0.253233,38.492
154,0.2549,38.543
155,0.256567,38.647
156,0.258233,38.647
157,0.2599,38.785
158,0.261567,38.913
159,0.263233,39.022
160,0.2649,39.022
161,0.266567,39.12
162,0.26835,39.207
163,0.2699,39.3
164,0.271583,39.3
165,0.273233,39.45
166,0.2749,39.637
167,0.276567,39.637
168,0.278233,39.855
169,0.2799,40.109
170,0.281567,40.372
171,0.283233,40.372
172,0.2849,40.668
173,0.286567,40.995
174,0.288233,41.407
175,0.2899,41.407
176,0.291567,41.92
177,0.293233,42.546
178,0.2949,43.41
179,0.296567,43.41
180,0.298233,44.505
181,0.2999,45.982
182,0.301567,45.982
183,0.303233,47.893
184,0.3049,50.233
185,0.306567,53.012
186,0.308217,53.012
187,0.3099,56.188
188,0.31155,59.62
189,0.313217,63.213
190,0.314883,63.213
191,0.31655,66.833
192,0.318217,70.274
193,0.3199,73.473
194,0.32155,73.473
195,0.323217,76.31699999999999
196,0.324883,78.699
197,0.32655,80.676
198,0.328217,80.676
199,0.329883,82.252
200,0.331583,83.47
201,0.333217,83.47
202,0.3349,84.437
203,0.336583,85.101
204,0.338217,85.486
205,0.339883,85.486
206,0.34155,85.629
207,0.343217,85.483
208,0.344883,85.129
209,0.34655,85.129
210,0.348217,84.569
211,0.349883,83.821
212,0.35155,83.01300000000001
213,0.353267,83.01300000000001
214,0.354883,82.149
215,0.35655,81.31999999999999
216,0.358217,81.31999999999999
217,0.359883,80.59099999999999
218,0.36155,79.97499999999999
219,0.363217,79.527
220,0.364883,79.527
221,0.36655,79.262
222,0.368217,79.193
223,0.369883,79.348
224,0.371533,79.348
225,0.3732,79.72
226,0.374867,80.31
227,0.376533,81.117
228,0.3782,81.117
229,0.379867,82.134
230,0.381533,83.34999999999999
231,0.3832,83.34999999999999
232,0.384867,84.777
233,0.386533,86.384
234,0.3882,88.20399999999999
235,0.389867,88.20399999999999
236,0.391533,90.227
237,0.3932,92.482
238,0.394867,95.01900000000001
239,0.396533,95.01900000000001
240,0.3982,97.834
241,0.399867,101.019
242,0.401533,104.593
243,0.4032,104.593
244,0.404867,108.64
245,0.406533,113.214
246,0.4082,118.45
247,0.409867,118.45
248,0.411533,124.465
249,0.4132,131.375
250,0.4149,131.375
251,0.416533,139.341
252,0.4182,148.439
253,0.419867,158.796
254,0.421533,158.796
255,0.4232,170.511
256,0.424867,183.642
257,0.426533,198.246
258,0.4282,198.246
259,0.42985,214.28
260,0.431517,231.753
261,0.433183,250.535
262,0.43485,250.535
263,0.436517,270.484
264,0.438183,291.466
265,0.43985,291.466
266,0.441517,313.192
267,0.443183,335.473
268,0.44485,358.11
269,0.446517,358.11
270,0.448183,380.798
271,0.44985,403.273
272,0.451517,425.308
273,0.453183,425.308
274,0.45485,446.55
275,0.456517,466.858
276,0.458183,485.985
277,0.45985,485.985
278,0.461517,503.719
279,0.463183,519.944
280,0.46485,534.444
281,0.466517,534.444
282,0.468183,547.1900000000001
283,0.46985,558.116
284,0.471517,558.116
285,0.473183,567.199
286,0.47485,574.51
287,0.476517,580.046
288,0.478183,580.046
289,0.479867,583.837
290,0.481567,585.966
291,0.483183,586.479
292,0.48485,586.479
293,0.486517,585.495
294,0.488167,583.154
295,0.48985,579.51
296,0.4915,579.51
297,0.493167,574.718
298,0.494833,568.891
299,0.4965,568.891
300,0.498167,562.126
301,0.499833,554.587
302,0.5014999999999999,546.357
303,0.503167,546.357
304,0.50495,537.55
305,0.5065,528.26
306,0.508167,518.557
307,0.509833,518.557
308,0.5115,508.523
309,0.513167,498.237
310,0.514833,487.788
311,0.5165,487.788
312,0.518167,477.207
313,0.519833,466.593
314,0.5215,455.961
315,0.523167,455.961
316,0.524833,445.318
317,0.5265,434.775
318,0.5281670000000001,434.775
319,0.529833,424.287
320,0.531483,413.916
321,0.53315,403.672
322,0.534817,403.672
323,0.536483,393.584
324,0.53815,383.657
325,0.539817,373.939
326,0.541483,373.939
327,0.54315,364.409
328,0.544817,355.097
329,0.5464830000000001,346.021
330,0.54815,346.021
331,0.549817,337.117
332,0.551467,328.439
333,0.553133,328.439
334,0.554867,319.967
335,0.556467,311.707
336,0.558133,303.707
337,0.5598,303.707
338,0.561467,295.951
339,0.563133,288.366
340,0.5648,281.018
341,0.5664670000000001,281.018
342,0.568133,273.836
343,0.5698,266.839
344,0.5714669999999999,260.113
345,0.573133,260.113
346,0.5748,253.548
347,0.576467,247.179
348,0.578133,247.179
349,0.5798,241.002
350,0.581467,235.007
351,0.583133,229.223
352,0.5848,229.223
353,0.586467,223.616
354,0.588133,218.185
355,0.58985,212.902
356,0.591467,212.902
357,0.593133,207.75
358,0.5948,202.759
359,0.596467,197.934
360,0.598133,197.934
361,0.5998,193.233
362,0.601467,188.673
363,0.603133,184.283
364,0.6048,184.283
365,0.606467,180.034
366,0.608133,175.963
367,0.6098,175.963
368,0.61145,172.008
369,0.613117,168.167
370,0.614783,164.434
371,0.6164500000000001,164.434
372,0.618117,160.802
373,0.619783,157.31
374,0.6214499999999999,153.943
375,0.623117,153.943
376,0.624783,150.656
377,0.62645,147.436
378,0.628117,144.356
379,0.629833,144.356
380,0.63145,141.308
381,0.633117,138.373
382,0.634783,138.373
383,0.63645,135.569
384,0.638117,132.814
385,0.639783,130.179
386,0.64145,130.179
387,0.643117,127.634
388,0.644783,125.153
389,0.64645,122.754
390,0.6481170000000001,122.754
391,0.649783,120.423
392,0.65145,118.145
393,0.6531169999999999,115.917
394,0.654783,115.917
395,0.65645,113.768
396,0.658117,111.708
397,0.659783,109.704
398,0.66145,109.704
399,0.663117,107.779
400,0.664783,105.896
401,0.66645,105.896
402,0.668117,104.07
403,0.669767,102.351
404,0.6714329999999999,100.63
405,0.6731,100.63
406,0.674767,98.98099999999999
407,0.676433,97.35899999999999
408,0.6781,95.739
409,0.679767,95.739
410,0.681433,94.22799999999999
411,0.6831,92.72799999999999
412,0.684767,91.31100000000001
413,0.686433,91.31100000000001
414,0.6881,89.93899999999999
415,0.689767,88.595
416,0.691433,88.595
417,0.6931,87.274
418,0.694783,85.995
419,0.6964669999999999,84.755
420,0.6981000000000001,84.755
421,0.699767,83.52500000000001
422,0.701433,82.389
423,0.7030999999999999,81.233
424,0.704767,81.233
425,0.706433,80.121
426,0.708133,79.07899999999999
427,0.709767,78.03100000000001
428,0.711433,78.03100000000001
429,0.7131,77.03
430,0.714767,76.06699999999999
431,0.716433,75.11499999999999
432,0.7181,75.11499999999999
433,0.719767,74.202
434,0.721433,73.316
435,0.7231,73.316
436,0.7248830000000001,72.462
437,0.726433,71.613
438,0.7281,70.791
439,0.7297670000000001,70.791
440,0.731417,70.01900000000001
441,0.733083,69.236
442,0.73475,68.50700000000001
443,0.736417,68.50700000000001
444,0.738083,67.786
445,0.73975,67.066
446,0.74155,66.376
447,0.743083,66.376
448,0.74475,65.68899999999999
449,0.746417,65.05800000000001
450,0.7480830000000001,65.05800000000001
451,0.74975,64.413
452,0.751417,63.788
453,0.7530829999999999,63.188
454,0.75475,63.188
455,0.756417,62.586
456,0.758083,62.033
457,0.75975,61.496
458,0.761417,61.496
459,0.763083,60.958
460,0.76475,60.435
461,0.766417,59.919
462,0.768083,59.919
463,0.76975,59.412
464,0.771433,58.942
465,0.773133,58.479
466,0.77475,58.479
467,0.776433,58.027
468,0.778083,57.594
469,0.7797500000000001,57.594
470,0.781417,57.166
471,0.783083,56.75
472,0.7847499999999999,56.347
473,0.786417,56.347
474,0.788083,55.93
475,0.78975,55.522
476,0.7914,55.104
477,0.793067,55.104
478,0.794733,54.723
479,0.7964,54.353
480,0.798067,54.029
481,0.799733,54.029
482,0.8014,53.696
483,0.803067,53.348
484,0.804733,53.348
485,0.8064,53.051
486,0.808067,52.711
487,0.809733,52.39
488,0.8114,52.39
489,0.813067,52.087
490,0.814733,51.785
491,0.8164,51.504
492,0.818067,51.504
493,0.819733,51.256
494,0.8214,50.983
495,0.8230499999999999,50.754
496,0.824717,50.754
497,0.826433,50.502
498,0.82805,50.234
499,0.829717,50.234
500,0.831383,49.997
501,0.83305,49.677
502,0.834717,49.447
503,0.836383,49.447
504,0.83805,49.201
505,0.839733,48.967
506,0.8414,48.784
507,0.843117,48.784
508,0.8447170000000001,48.598
509,0.846383,48.412
510,0.84805,48.227
511,0.8497169999999999,48.227
512,0.851367,48.055
513,0.853033,47.828
514,0.8547,47.642
515,0.856367,47.642
516,0.858033,47.462
517,0.859833,47.285
518,0.861367,47.285
519,0.8630330000000001,47.144
520,0.8647,46.987
521,0.866367,46.833
522,0.8680330000000001,46.833
523,0.8697,46.63
524,0.871367,46.445
525,0.8730329999999999,46.294
526,0.8747,46.294
527,0.876367,46.133
528,0.878033,46.033
529,0.8797,45.916
530,0.881367,45.916
531,0.883033,45.776
532,0.8847,45.636
533,0.886367,45.636
534,0.888033,45.46
535,0.8897,45.294
536,0.891367,45.142
537,0.893033,45.142
538,0.8947000000000001,45.013
539,0.896367,44.886
540,0.898033,44.796
541,0.8997000000000001,44.796
542,0.901367,44.697
543,0.903033,44.572
544,0.9046999999999999,44.471
545,0.906367,44.471
546,0.908033,44.34
547,0.909717,44.206
548,0.9114,44.125
549,0.913017,44.125
550,0.914683,44.033
551,0.91635,43.949
552,0.918017,43.949
553,0.919683,43.877
554,0.92135,43.78
555,0.92305,43.681
556,0.924683,43.681
557,0.92635,43.588
558,0.928017,43.489
559,0.929683,43.402
560,0.93135,43.402
561,0.933017,43.323
562,0.934683,43.213
563,0.93635,43.125
564,0.938017,43.125
565,0.939683,43.041
566,0.94135,42.969
567,0.943017,42.969
568,0.9446830000000001,42.889
569,0.94635,42.822
570,0.948017,42.727
571,0.9496830000000001,42.727
572,0.951367,42.643
573,0.953017,42.596
574,0.9546829999999999,42.517
575,0.95635,42.517
576,0.958017,42.444
577,0.959683,42.395
578,0.961417,42.334
579,0.963017,42.334
580,0.964683,42.281
581,0.96635,42.238
582,0.968017,42.238
583,0.969683,42.156
584,0.971333,42.093
585,0.973,42.033
586,0.974667,42.033
587,0.976333,41.962
588,0.978133,41.916
589,0.979667,41.85
590,0.981333,41.85
591,0.983,41.809
592,0.984667,41.77
593,0.9863499999999999,41.683
594,0.988,41.683
595,0.989667,41.608
596,0.991333,41.518
597,0.993,41.464
598,0.994767,41.464
599,0.996333,41.442
600,0.998,41.417
601,0.999667,41.417
602,1.001333,41.388
603,1.003,41.339
604,1.004667,41.293
605,1.006333,41.293
606,1.008,41.259
607,1.009667,41.237
608,1.01135,41.224
609,1.013,41.224
610,1.014667,41.21
611,1.016333,41.16
612,1.018,41.115
613,1.019667,41.115
614,1.021333,41.037
615,1.023,40.963
616,1.024667,40.963
617,1.026333,40.926
618,1.028,40.873
619,1.029667,40.834
620,1.031317,40.834
621,1.032983,40.799
622,1.03465,40.78
623,1.036317,40.727
624,1.037983,40.727
625,1.03965,40.703
626,1.041317,40.685
627,1.042983,40.644
628,1.04465,40.644
629,1.046317,40.65
630,1.047983,40.62
631,1.04965,40.573
632,1.051317,40.573
633,1.052983,40.495
634,1.054667,40.462
635,1.056317,40.462
636,1.057983,40.422
637,1.05965,40.391
638,1.061317,40.404
639,1.062983,40.404
640,1.06465,40.378
641,1.066317,40.355
642,1.067983,40.337
643,1.06965,40.337
644,1.071317,40.306
645,1.072983,40.232
646,1.07465,40.2
647,1.076317,40.2
648,1.077983,40.167
649,1.0797,40.118
650,1.081317,40.118
651,1.082983,40.144
652,1.08465,40.146
653,1.086317,40.13
654,1.087983,40.13
655,1.08965,40.109
656,1.09135,40.07
657,1.092967,40.017
658,1.094633,40.017
659,1.09635,40.018
660,1.097967,40.019
661,1.099633,39.99
662,1.1013,39.99
663,1.102967,39.954
664,1.104633,39.907
665,1.1063,39.886
666,1.107967,39.886
667,1.109633,39.851
668,1.1113,39.848
669,1.113067,39.848
670,1.114617,39.807
671,1.116283,39.772
672,1.11795,39.762
673,1.119617,39.762
674,1.121283,39.756
675,1.12295,39.787
676,1.124617,39.779
677,1.1263,39.779
678,1.12795,39.738
679,1.129617,39.718
680,1.131283,39.662
681,1.133,39.662
682,1.134617,39.657
683,1.136283,39.675
684,1.13795,39.675
685,1.139617,39.677
686,1.141283,39.669
687,1.14295,39.631
688,1.144617,39.631
689,1.146283,39.601
690,1.14795,39.597
691,1.149617,39.58
692,1.151267,39.58
693,1.152933,39.579
694,1.1546,39.569
695,1.156267,39.534
696,1.157933,39.534
697,1.1596,39.525
698,1.161267,39.525
699,1.162933,39.525
700,1.1646,39.531
701,1.166267,39.499
702,1.167933,39.455
703,1.1696,39.455
704,1.171267,39.396
705,1.172933,39.354
706,1.1746,39.359
707,1.176283,39.359
708,1.177933,39.375
709,1.1796,39.374
710,1.181267,39.356
711,1.182933,39.356
712,1.1846,39.33
713,1.186267,39.317
714,1.187933,39.313
715,1.1896,39.313
716,1.191267,39.288
717,1.192933,39.261
718,1.1946,39.261
719,1.196267,39.212
720,1.197967,39.184
721,1.199633,39.21
722,1.201267,39.21
723,1.202933,39.241
724,1.2046,39.251
725,1.206267,39.239
726,1.207933,39.239
727,1.209583,39.192
728,1.21125,39.145
729,1.212917,39.148
730,1.214633,39.148
731,1.21625,39.124
732,1.217917,39.116
733,1.219583,39.116
734,1.22125,39.122
735,1.222917,39.132
736,1.224583,39.146
737,1.22625,39.146
738,1.227917,39.14
739,1.229583,39.134
740,1.231267,39.113
741,1.232917,39.113
742,1.234583,39.102
743,1.23625,39.092
744,1.237917,39.065
745,1.239583,39.065
746,1.24125,39.042
747,1.242917,39.057
748,1.244583,39.057
749,1.24625,39.057
750,1.247917,39.036
751,1.249583,39.011
752,1.25125,39.011
753,1.252917,38.96
754,1.254583,38.981
755,1.25625,38.988
756,1.257917,38.988
757,1.259583,39
758,1.26125,39.046
759,1.262917,39.026
760,1.264583,39.026
761,1.26625,39.03
762,1.26795,39.022
763,1.269583,38.982
764,1.271233,38.982
765,1.2729,38.975
766,1.274617,38.961
767,1.276233,38.961
768,1.2779,38.955
769,1.279567,38.929
770,1.281233,38.908
771,1.2829,38.908
772,1.284567,38.87
773,1.286233,38.832
774,1.2879,38.822
775,1.289567,38.822
776,1.291233,38.798
777,1.2929,38.838
778,1.294567,38.867
779,1.296233,38.867
780,1.2979,38.87
781,1.299567,38.878
782,1.301233,38.844
783,1.3029,38.844
784,1.304567,38.816
785,1.306233,38.8
786,1.3079,38.8
787,1.309567,38.818
788,1.311233,38.829
789,1.3129,38.821
790,1.314567,38.821
791,1.316233,38.835
792,1.3179,38.785
793,1.319567,38.73
794,1.321233,38.73
795,1.3229,38.734
796,1.324567,38.756
797,1.326233,38.776
798,1.3279,38.776
799,1.329567,38.839
800,1.331217,38.835
801,1.332917,38.835
802,1.33455,38.799
803,1.336217,38.756
804,1.337883,38.735
805,1.33955,38.735
806,1.341217,38.736
807,1.342883,38.739
808,1.34455,38.78
809,1.346217,38.78
810,1.3479,38.771
811,1.349683,38.761
812,1.351217,38.756
813,1.352883,38.756
814,1.354567,38.713
815,1.356217,38.696
816,1.357883,38.701
817,1.35955,38.701
818,1.361217,38.696
819,1.362883,38.698
820,1.36455,38.698
821,1.366217,38.675
822,1.367883,38.667
823,1.36955,38.642
824,1.371217,38.642
825,1.372883,38.656
826,1.37455,38.686
827,1.376217,38.686
828,1.377883,38.686
829,1.37955,38.681
830,1.381217,38.671
831,1.382883,38.674
832,1.38455,38.674
833,1.386217,38.642
834,1.387883,38.639
835,1.38955,38.639
836,1.3912,38.626
837,1.392867,38.578
838,1.394533,38.587
839,1.3962,38.587
840,1.397867,38.584
841,1.399533,38.569
842,1.4012,38.582
843,1.402867,38.582
844,1.404533,38.581
845,1.406183,38.559
846,1.40785,38.577
847,1.409517,38.577
848,1.411183,38.582
849,1.412867,38.599
850,1.41455,38.649
851,1.416183,38.649
852,1.41785,38.639
853,1.419517,38.626
854,1.421183,38.626
855,1.422883,38.565
856,1.424517,38.537
857,1.426183,38.537
858,1.42785,38.537
859,1.429517,38.531
860,1.431183,38.54
861,1.43285,38.505
862,1.434583,38.505
863,1.436183,38.515
864,1.43785,38.541
865,1.439517,38.557
866,1.441183,38.557
867,1.44285,38.575
868,1.444517,38.56
869,1.446183,38.56
870,1.44785,38.525
871,1.4495,38.498
872,1.451167,38.512
873,1.452833,38.512
874,1.4545,38.507
875,1.456167,38.514
876,1.457833,38.524
877,1.4595,38.524
878,1.461167,38.486
879,1.462833,38.488
880,1.4645,38.472
881,1.466167,38.472
882,1.46795,38.451
883,1.4695,38.449
884,1.471167,38.449
885,1.472833,38.431
886,1.4745,38.423
887,1.476167,38.394
888,1.477833,38.394
889,1.4795,38.396
890,1.481167,38.412
891,1.482833,38.406
892,1.4845,38.406
893,1.486167,38.433
894,1.487833,38.419
895,1.4895,38.404
896,1.491167,38.404
897,1.492833,38.416
898,1.494533,38.435
899,1.496167,38.452
900,1.497833,38.452
901,1.4995,38.476
902,1.501167,38.464
903,1.502833,38.464
904,1.5045,38.432
905,1.506167,38.441
906,1.507833,38.412
907,1.509483,38.412
908,1.51115,38.393
909,1.51285,38.41
910,1.514483,38.393
911,1.51615,38.393
912,1.517817,38.384
913,1.519483,38.388
914,1.52115,38.394
915,1.522817,38.394
916,1.524483,38.414
917,1.52615,38.408
918,1.527817,38.408
919,1.5295,38.413
920,1.53115,38.381
921,1.532817,38.359
922,1.534483,38.359
923,1.53615,38.361
924,1.537817,38.37
925,1.539483,38.391
926,1.54115,38.391
927,1.542817,38.388
928,1.544483,38.394
929,1.54615,38.36
930,1.547817,38.36
931,1.549483,38.345
932,1.55115,38.327
933,1.552867,38.298
934,1.554483,38.298
935,1.55615,38.32
936,1.557817,38.344
937,1.559483,38.344
938,1.56115,38.355
939,1.562817,38.346
940,1.564483,38.315
941,1.566167,38.315
942,1.567817,38.268
943,1.569467,38.276
944,1.571133,38.314
945,1.5728,38.314
946,1.574467,38.348
947,1.576133,38.353
948,1.5778,38.324
949,1.579467,38.324
950,1.581133,38.312
951,1.5828,38.286
952,1.584467,38.286
953,1.58625,38.312
954,1.5878,38.31
955,1.589467,38.315
956,1.591133,38.315
957,1.5928,38.339
958,1.594467,38.313
959,1.596133,38.309
960,1.5978,38.309
961,1.599467,38.273
962,1.601133,38.23
963,1.6028,38.252
964,1.604483,38.252
965,1.606133,38.282
966,1.6078,38.284
967,1.609467,38.284
968,1.611133,38.314
969,1.6128,38.297
970,1.614467,38.271
971,1.616133,38.271
972,1.6178,38.271
973,1.619467,38.251
974,1.621133,38.265
975,1.6228,38.265
976,1.624467,38.26
977,1.626133,38.266
978,1.6278,38.297
979,1.629467,38.297
980,1.631117,38.31
981,1.632783,38.328
982,1.63445,38.372
983,1.636117,38.372
984,1.6378,38.365
985,1.6395,38.318
986,1.641117,38.318
987,1.642783,38.3
