"ID","sea_time","fid_signal"
1,0,1166.686
2,0.001667,1168.251
3,0.003333,1168.698
4,0.005,1166.165
5,0.006667,1166.165
6,0.008333,1166.984
7,0.009983000000000001,1165.867
8,0.01165,1165.867
9,0.0134,1167.133
10,0.014983,1171.082
11,0.01665,1169.741
12,0.018317,1169.741
13,0.019983,1168.773
14,0.02165,1167.282
15,0.023317,1162.887
16,0.024983,1162.887
17,0.02665,1163.036
18,0.028317,1163.557
19,0.03,1163.781
20,0.03165,1163.781
21,0.033317,1165.569
22,0.034983,1166.239
23,0.036633,1166.239
24,0.0383,1166.388
25,0.039967,1168.251
26,0.041633,1166.612
27,0.0433,1166.612
28,0.044967,1166.314
29,0.04675,1168.177
30,0.0483,1168.326
31,0.049967,1168.326
32,0.051633,1168.102
33,0.053317,1167.282
34,0.054967,1168.549
35,0.056633,1168.549
36,0.0583,1170.784
37,0.059967,1172.945
38,0.061633,1172.945
39,0.0633,1172.796
40,0.064967,1168.847
41,0.066633,1166.165
42,0.0683,1166.165
43,0.06995,1166.835
44,0.071617,1168.549
45,0.073283,1171.827
46,0.07495,1171.827
47,0.076617,1172.721
48,0.07828300000000001,1173.317
49,0.079983,1173.168
50,0.081617,1173.168
51,0.083283,1170.859
52,0.08495,1170.486
53,0.086617,1166.686
54,0.088283,1166.686
55,0.08995,1164.973
56,0.091617,1164.451
57,0.093283,1164.451
58,0.09495000000000001,1165.42
59,0.09661699999999999,1166.761
60,0.098283,1166.314
61,0.09995,1166.314
62,0.101617,1168.698
63,0.103283,1165.643
64,0.10495,1166.984
65,0.106617,1166.984
66,0.108283,1168.102
67,0.10995,1166.612
68,0.111617,1167.953
69,0.113283,1167.953
70,0.11495,1165.643
71,0.116617,1163.855
72,0.118283,1163.855
73,0.11995,1164.228
74,0.121617,1162.812
75,0.123317,1164.079
76,0.12495,1164.079
77,0.126617,1165.345
78,0.128283,1164.228
79,0.129933,1168.4
80,0.131667,1168.4
81,0.133267,1171.306
82,0.134933,1171.902
83,0.1366,1172.572
84,0.138267,1172.572
85,0.139933,1172.051
86,0.1416,1168.027
87,0.143267,1165.792
88,0.144933,1165.792
89,0.1466,1165.643
90,0.1483,1160.8
91,0.149933,1160.8
92,0.1516,1163.93
93,0.153267,1165.196
94,0.154933,1165.494
95,0.1566,1165.494
96,0.158267,1168.698
97,0.159933,1166.314
98,0.1616,1165.718
99,0.163267,1165.718
100,0.165033,1162.812
101,0.1666,1160.651
102,0.168267,1160.8
103,0.169983,1160.8
104,0.1716,1162.142
105,0.173267,1164.153
106,0.174933,1164.153
107,0.1766,1164.153
108,0.178267,1166.984
109,0.179933,1166.463
110,0.1816,1166.463
111,0.183267,1165.941
112,0.184917,1167.655
113,0.1866,1164.675
114,0.188267,1164.675
115,0.189917,1163.11
116,0.191583,1165.792
117,0.19325,1166.239
118,0.194917,1166.239
119,0.196583,1167.208
120,0.198283,1167.357
121,0.199917,1165.569
122,0.201583,1165.569
123,0.20325,1165.569
124,0.204917,1166.239
125,0.206583,1166.239
126,0.20825,1168.698
127,0.209917,1171.306
128,0.211583,1169.145
129,0.21325,1169.145
130,0.214917,1169.071
131,0.216583,1169.667
132,0.21825,1169.816
133,0.219917,1169.816
134,0.221583,1171.082
135,0.22325,1170.486
136,0.224917,1170.561
137,0.226583,1170.561
138,0.22825,1171.604
139,0.229917,1172.2
140,0.231583,1172.2
141,0.23325,1172.647
142,0.234917,1172.125
143,0.236583,1167.804
144,0.23825,1167.804
145,0.239917,1167.133
146,0.241583,1168.475
147,0.243267,1166.463
148,0.244917,1166.463
149,0.246583,1169.22
150,0.248233,1169.443
151,0.249933,1166.016
152,0.251567,1166.016
153,0.253233,1166.388
154,0.2549,1167.357
155,0.256567,1167.655
156,0.258233,1167.655
157,0.259917,1171.008
158,0.261567,1173.317
159,0.263233,1173.317
160,0.2649,1172.349
161,0.2666,1172.274
162,0.268233,1169.592
163,0.2699,1169.592
164,0.271567,1167.655
165,0.273233,1165.867
166,0.2749,1165.867
167,0.276567,1165.867
168,0.278233,1165.122
169,0.2799,1167.729
170,0.281567,1169.369
171,0.283333,1169.369
172,0.2849,1174.286
173,0.286567,1180.992
174,0.288233,1180.992
175,0.2899,1183.823
176,0.291567,1190.081
177,0.293233,1191.869
178,0.2949,1191.869
179,0.296567,1196.042
180,0.298233,1205.876
181,0.2999,1216.754
182,0.301567,1216.754
183,0.303233,1234.338
184,0.3049,1255.274
185,0.30655,1277.104
186,0.308217,1277.104
187,0.309883,1300.499
188,0.31155,1325.384
189,0.313217,1325.384
190,0.314883,1348.704
191,0.31655,1370.832
192,0.318217,1391.098
193,0.319883,1391.098
194,0.32155,1409.799
195,0.323217,1427.829
196,0.324883,1441.762
197,0.32655,1441.762
198,0.3282,1455.098
199,0.329883,1462.624
200,0.331533,1466.721
201,0.3332,1466.721
202,0.334867,1468.137
203,0.336533,1466.945
204,0.3382,1468.286
205,0.3399,1468.286
206,0.341533,1466.125
207,0.3432,1460.314
208,0.344867,1460.314
209,0.346533,1452.863
210,0.3482,1435.801
211,0.349867,1418.144
212,0.351533,1418.144
213,0.3532,1404.285
214,0.354867,1387.671
215,0.356533,1376.569
216,0.3582,1376.569
217,0.359867,1365.99
218,0.361533,1352.057
219,0.3632,1339.912
220,0.364867,1339.912
221,0.366533,1329.333
222,0.368217,1319.721
223,0.36985,1319.721
224,0.371517,1313.463
225,0.373183,1307.279
226,0.37485,1301.616
227,0.376517,1301.616
228,0.378183,1298.264
229,0.37985,1295.432
230,0.381517,1296.327
231,0.383183,1296.327
232,0.38485,1300.573
233,0.386517,1305.64
234,0.388183,1313.388
235,0.38985,1313.388
236,0.391517,1323.447
237,0.393183,1337.826
238,0.39485,1355.708
239,0.396517,1355.708
240,0.398183,1382.977
241,0.39985,1417.324
242,0.401617,1417.324
243,0.403183,1457.185
244,0.40485,1508.146
245,0.406517,1570.284
246,0.408183,1570.284
247,0.40985,1643.598
248,0.411517,1730.621
249,0.413183,1833.29
250,0.41485,1833.29
251,0.41655,1946.166
252,0.418183,2071.485
253,0.41985,2209.544
254,0.421517,2209.544
255,0.423183,2356.619
256,0.42485,2514.646
257,0.426517,2514.646
258,0.428183,2683.774
259,0.429833,2860.799
260,0.4315,3046.915
261,0.433167,3046.915
262,0.43485,3236.383
263,0.4365,3432.11
264,0.438167,3627.762
265,0.439833,3627.762
266,0.4415,3824.83
267,0.443167,4024.655
268,0.444833,4224.926
269,0.4465,4224.926
270,0.448167,4427.209
271,0.449833,4625.693
272,0.4515,4826.933
273,0.453167,4826.933
274,0.454833,5023.331
275,0.4565,5218.833
276,0.458167,5218.833
277,0.459833,5414.784
278,0.4615,5603.06
279,0.463167,5788.877
280,0.464833,5788.877
281,0.4665,5964.264
282,0.468167,6136
283,0.469833,6304.011
284,0.4715,6304.011
285,0.473167,6464.646
286,0.474833,6621.704
287,0.4765,6771.46
288,0.478167,6771.46
289,0.479833,6912.127
290,0.4815,7048.175
291,0.483167,7048.175
292,0.484833,7174.164
293,0.486583,7287.711
294,0.488183,7393.062
295,0.489817,7393.062
296,0.491483,7483.065
297,0.49315,7561.967
298,0.494817,7627.085
299,0.496483,7627.085
300,0.49815,7669.851
301,0.499817,7689.893
302,0.501483,7686.764
303,0.50315,7686.764
304,0.504817,7654.354
305,0.506483,7594.377
306,0.50815,7594.377
307,0.509817,7498.264
308,0.511483,7361.77
309,0.51315,7187.724
310,0.514817,7187.724
311,0.516483,6971.657
312,0.51815,6720.125
313,0.519917,6439.611
314,0.521483,6439.611
315,0.52315,6133.839
316,0.524817,5812.198
317,0.526483,5491.301
318,0.52815,5491.301
319,0.529817,5176.514
320,0.531483,4878.715
321,0.53315,4607.812
322,0.534817,4607.812
323,0.536483,4358.888
324,0.53815,4133.284
325,0.539817,4133.284
326,0.541483,3929.809
327,0.54315,3748.164
328,0.544817,3586.337
329,0.5464830000000001,3586.337
330,0.548133,3443.062
331,0.5498,3315.806
332,0.551467,3197.044
333,0.553133,3197.044
334,0.5548,3093.332
335,0.556467,2997.741
336,0.558133,2913.698
337,0.5598,2913.698
338,0.561483,2836.734
339,0.5632,2763.793
340,0.5648,2763.793
341,0.5664670000000001,2697.781
342,0.568133,2632.439
343,0.5698,2576.411
344,0.5714669999999999,2576.411
345,0.573133,2518.52
346,0.5748,2468.228
347,0.576467,2421.066
348,0.578133,2421.066
349,0.5798,2375.021
350,0.581467,2337.694
351,0.583133,2295.747
352,0.5848,2295.747
353,0.586467,2257.228
354,0.588133,2220.198
355,0.5898,2180.338
356,0.591467,2180.338
357,0.593133,2143.979
358,0.5948,2110.824
359,0.596467,2110.824
360,0.598133,2078.489
361,0.5998,2052.188
362,0.601467,2028.495
363,0.603133,2028.495
364,0.60485,2001.673
365,0.606467,1975.447
366,0.608117,1951.903
367,0.609783,1951.903
368,0.61145,1926.795
369,0.613117,1903.623
370,0.614783,1884.103
371,0.6164500000000001,1884.103
372,0.618117,1865.327
373,0.619767,1849.607
374,0.6214499999999999,1849.607
375,0.6231,1831.427
376,0.624767,1812.652
377,0.626433,1791.641
378,0.6281,1791.641
379,0.629767,1771.45
380,0.631433,1755.58
381,0.6331,1737.326
382,0.634783,1737.326
383,0.63645,1720.265
384,0.6381829999999999,1704.395
385,0.639767,1690.015
386,0.641433,1690.015
387,0.6431,1679.733
388,0.644767,1667.738
389,0.646433,1655.296
390,0.6481,1655.296
391,0.649767,1643.375
392,0.651433,1630.336
393,0.6531,1630.336
394,0.654767,1616.478
395,0.656433,1607.388
396,0.6581,1595.542
397,0.659767,1595.542
398,0.661433,1583.472
399,0.6631,1575.202
400,0.664767,1562.759
401,0.6664330000000001,1562.759
402,0.668083,1552.701
403,0.66975,1544.654
404,0.671417,1535.416
405,0.673083,1535.416
406,0.67475,1527.369
407,0.676417,1517.609
408,0.678083,1517.609
409,0.67975,1506.433
410,0.6814170000000001,1499.727
411,0.683083,1488.179
412,0.68475,1488.179
413,0.6864170000000001,1481.399
414,0.688083,1474.842
415,0.68975,1465.231
416,0.6914169999999999,1465.231
417,0.693083,1460.239
418,0.69475,1454.353
419,0.696417,1450.032
420,0.698117,1450.032
421,0.69975,1443.922
422,0.701417,1440.942
423,0.703083,1440.942
424,0.70475,1434.609
425,0.706417,1429.692
426,0.708083,1421.794
427,0.709767,1421.794
428,0.711417,1411.811
429,0.713083,1404.36
430,0.71475,1394.153
431,0.716417,1394.153
432,0.718083,1390.576
433,0.71975,1387.894
434,0.721417,1383.871
435,0.723133,1383.871
436,0.72475,1380.146
437,0.726417,1375.452
438,0.728083,1370.758
439,0.729733,1370.758
440,0.7314000000000001,1369.64
441,0.733067,1364.35
442,0.734733,1364.35
443,0.7364000000000001,1360.178
444,0.738067,1354.367
445,0.73985,1350.567
446,0.7413999999999999,1350.567
447,0.743067,1350.343
448,0.744733,1346.022
449,0.7464,1344.383
450,0.748067,1344.383
451,0.749733,1338.944
452,0.7514,1336.634
453,0.753067,1335.666
454,0.754733,1335.666
455,0.756467,1329.333
456,0.758067,1322.404
457,0.759733,1322.404
458,0.7614,1315.773
459,0.7630670000000001,1311.302
460,0.764733,1308.769
461,0.7664,1308.769
462,0.7680670000000001,1306.608
463,0.769733,1303.107
464,0.7714,1298.785
465,0.773083,1298.785
466,0.774733,1297.742
467,0.7764,1297.668
468,0.778067,1296.476
469,0.779733,1296.476
470,0.7814,1296.401
471,0.783067,1291.856
472,0.784733,1286.715
473,0.7864,1286.715
474,0.78805,1285.225
475,0.789717,1282.096
476,0.7913829999999999,1282.096
477,0.79305,1281.872
478,0.794717,1281.947
479,0.796383,1278.818
480,0.79805,1278.818
481,0.799717,1276.583
482,0.801383,1274.273
483,0.803083,1270.995
484,0.804717,1270.995
485,0.806383,1269.057
486,0.80805,1268.312
487,0.809717,1268.089
488,0.811383,1268.089
489,0.8130500000000001,1266.226
490,0.814717,1264.736
491,0.816383,1264.736
492,0.8180500000000001,1260.862
493,0.819717,1258.031
494,0.821383,1257.286
495,0.8230499999999999,1257.286
496,0.824717,1256.839
497,0.826383,1258.925
498,0.82805,1257.658
499,0.829717,1257.658
500,0.831383,1254.156
501,0.83305,1251.474
502,0.834717,1247.227
503,0.836383,1247.227
504,0.83805,1244.396
505,0.839717,1245.067
506,0.8414,1245.663
507,0.84305,1245.663
508,0.8447170000000001,1244.694
509,0.846383,1242.757
510,0.84805,1242.757
511,0.8497,1241.565
512,0.851367,1237.318
513,0.853033,1235.753
514,0.8547,1235.753
515,0.856367,1234.561
516,0.858117,1234.487
517,0.8597,1235.902
518,0.861367,1235.902
519,0.8630330000000001,1235.53
520,0.8647,1236.126
521,0.866367,1231.953
522,0.8680330000000001,1231.953
523,0.8697,1228.303
524,0.871367,1227.632
525,0.8730329999999999,1227.632
526,0.874783,1228.303
527,0.876367,1228.303
528,0.878033,1228.526
529,0.8797,1228.526
530,0.881367,1224.205
531,0.883033,1221.523
532,0.8847,1220.48
533,0.886367,1220.48
534,0.888033,1217.276
535,0.8897,1217.723
536,0.89145,1217.35
537,0.89305,1217.35
538,0.8947000000000001,1216.307
539,0.896367,1218.17
540,0.898033,1218.17
541,0.8997000000000001,1220.927
542,0.901367,1218.99
543,0.903033,1219.139
544,0.9046999999999999,1219.139
545,0.906367,1215.339
546,0.908033,1213.104
547,0.909683,1212.507
548,0.9113329999999999,1212.507
549,0.913,1210.123
550,0.914667,1208.335
551,0.916333,1207.888
552,0.918017,1207.888
553,0.919717,1207.739
554,0.921333,1207.963
555,0.923,1208.931
556,0.924667,1208.931
557,0.926333,1208.559
558,0.928,1209.08
559,0.929667,1209.08
560,0.931333,1210.943
561,0.9330000000000001,1211.986
562,0.934667,1210.794
563,0.936333,1210.794
564,0.9379999999999999,1208.261
565,0.939667,1205.504
566,0.941333,1204.535
567,0.9429999999999999,1204.535
568,0.944667,1202.077
569,0.946333,1202.449
570,0.948,1202.151
571,0.949667,1202.151
572,0.951333,1203.716
573,0.953,1206.1
574,0.954667,1206.1
575,0.956333,1207.441
576,0.958,1207.665
577,0.959683,1205.057
578,0.961333,1205.057
579,0.963,1200.959
580,0.9646670000000001,1197.308
581,0.966333,1194.999
582,0.968033,1194.999
583,0.96965,1192.316
584,0.971317,1193.359
585,0.972983,1194.03
586,0.97465,1194.03
587,0.976367,1196.191
588,0.977983,1200.065
589,0.97965,1202.151
590,0.981317,1202.151
591,0.9829830000000001,1202.077
592,0.98465,1201.183
593,0.986317,1201.183
594,0.988017,1199.543
595,0.98965,1197.159
596,0.991317,1193.657
597,0.9930330000000001,1193.657
598,0.99465,1191.273
599,0.996317,1190.23
600,0.997983,1187.623
601,0.99965,1187.623
602,1.001317,1188.442
603,1.002983,1190.528
604,1.00465,1191.05
605,1.006317,1191.05
606,1.007983,1190.826
607,1.0097,1189.56
608,1.011317,1189.56
609,1.012983,1186.729
610,1.01465,1184.866
611,1.016317,1187.474
612,1.017983,1187.474
613,1.01965,1190.975
614,1.021317,1194.179
615,1.022983,1195.893
616,1.02465,1195.893
617,1.026317,1193.657
618,1.027967,1190.305
619,1.029633,1190.603
620,1.0313,1190.603
621,1.032967,1189.634
622,1.034633,1191.944
623,1.0363,1192.689
624,1.037967,1192.689
625,1.039633,1190.901
626,1.0413,1190.156
627,1.042967,1190.156
628,1.044633,1186.356
629,1.0463,1185.834
630,1.047967,1183.897
631,1.049633,1183.897
632,1.0513,1182.109
633,1.052967,1183.301
634,1.054633,1182.482
635,1.0563,1182.482
636,1.057983,1185.313
637,1.059633,1185.909
638,1.0613,1185.387
639,1.062967,1185.387
640,1.064633,1187.623
641,1.066317,1188.07
642,1.067967,1188.07
643,1.069633,1188.219
644,1.0713,1187.772
645,1.072967,1188.442
646,1.074633,1188.442
647,1.0763,1184.344
648,1.077967,1185.015
649,1.079633,1188.07
650,1.0813,1188.07
651,1.082967,1185.834
652,1.084633,1187.101
653,1.0863,1186.207
654,1.08795,1186.207
655,1.089617,1183.078
656,1.091283,1182.705
657,1.09295,1182.705
658,1.094633,1183.972
659,1.096283,1185.76
660,1.09795,1185.462
661,1.099617,1185.462
662,1.101283,1186.654
663,1.10295,1184.195
664,1.104617,1183.078
665,1.106283,1183.078
666,1.10795,1183.301
667,1.109617,1184.568
668,1.111283,1186.654
669,1.11295,1186.654
670,1.114617,1184.493
671,1.116283,1185.015
672,1.11795,1184.121
673,1.119617,1184.121
674,1.121283,1183.897
675,1.12295,1188.517
676,1.124617,1188.517
677,1.126283,1189.411
678,1.128067,1189.56
679,1.129617,1188.815
680,1.131283,1188.815
681,1.132967,1184.046
682,1.134617,1179.501
683,1.136317,1178.607
684,1.13795,1178.607
685,1.139617,1176.819
686,1.141283,1179.278
687,1.14295,1182.035
688,1.144617,1182.035
689,1.146283,1181.811
690,1.147933,1183.599
691,1.1496,1183.599
692,1.151267,1183.078
693,1.152933,1181.066
694,1.1546,1179.501
695,1.156267,1179.501
696,1.157933,1180.693
697,1.1596,1182.333
698,1.161267,1184.195
699,1.162933,1184.195
700,1.1646,1183.897
701,1.166267,1183.748
702,1.167933,1183.748
703,1.1696,1183.748
704,1.171267,1185.238
705,1.172933,1185.834
706,1.1746,1183.003
707,1.176267,1183.003
708,1.177933,1179.65
709,1.1796,1177.788
710,1.181267,1177.788
711,1.182933,1180.097
712,1.1846,1183.376
713,1.186267,1183.227
714,1.187933,1183.227
715,1.1896,1182.929
716,1.191267,1182.035
717,1.192933,1178.384
718,1.1946,1178.384
719,1.196267,1179.576
720,1.19795,1181.215
721,1.1996,1182.333
722,1.201267,1182.333
723,1.202917,1181.811
724,1.204583,1181.066
725,1.20625,1181.066
726,1.20795,1180.321
727,1.209567,1179.129
728,1.211233,1178.086
729,1.2129,1178.086
730,1.214567,1179.799
731,1.216233,1178.086
732,1.2179,1175.255
733,1.219567,1175.255
734,1.221233,1177.937
735,1.2229,1175.553
736,1.224567,1177.266
737,1.226233,1177.266
738,1.2279,1179.054
739,1.229567,1180.023
740,1.231233,1179.054
741,1.2329,1179.054
742,1.234567,1178.16
743,1.236233,1177.341
744,1.2379,1177.341
745,1.239567,1176.819
746,1.24125,1176.521
747,1.2429,1174.807
748,1.244567,1174.807
749,1.24635,1175.627
750,1.2479,1174.733
751,1.249567,1178.235
752,1.251233,1178.235
753,1.2529,1177.564
754,1.254567,1175.255
755,1.256233,1175.851
756,1.2579,1175.851
757,1.259567,1173.615
758,1.261233,1177.117
759,1.2629,1177.117
760,1.264567,1180.396
761,1.266233,1177.192
762,1.2679,1178.309
763,1.26955,1178.309
764,1.271217,1174.435
765,1.272933,1173.094
766,1.27455,1175.404
767,1.276217,1175.404
768,1.277883,1175.553
769,1.27955,1178.458
770,1.281217,1174.882
771,1.282883,1174.882
772,1.28455,1173.541
773,1.286217,1171.976
774,1.287883,1171.976
775,1.28955,1172.796
776,1.291217,1174.435
777,1.292883,1175.776
778,1.294567,1175.776
779,1.29625,1178.831
780,1.297883,1178.458
781,1.29955,1182.184
782,1.301217,1182.184
783,1.302883,1182.705
784,1.30455,1177.564
785,1.306217,1175.404
786,1.307883,1175.404
787,1.30955,1172.051
788,1.311217,1170.635
789,1.312883,1172.274
790,1.31455,1172.274
791,1.316217,1171.008
792,1.317883,1171.827
793,1.31955,1171.827
794,1.321217,1171.753
795,1.322883,1172.945
796,1.32455,1176.223
797,1.326217,1176.223
798,1.327867,1174.137
799,1.329533,1173.094
800,1.3312,1172.2
801,1.332867,1172.2
802,1.334533,1169.294
803,1.3362,1170.635
804,1.337867,1173.466
805,1.339533,1173.466
806,1.3412,1172.945
807,1.342883,1176.67
808,1.344533,1176.67
809,1.3462,1177.713
810,1.347867,1175.553
811,1.349533,1177.192
812,1.3512,1177.192
813,1.352867,1177.49
814,1.354533,1178.011
815,1.3562,1177.117
816,1.357867,1177.117
817,1.359533,1175.329
818,1.3612,1172.274
819,1.362867,1171.678
820,1.36465,1171.678
821,1.3662,1174.137
822,1.367867,1178.384
823,1.369533,1179.203
824,1.3712,1179.203
825,1.372867,1179.054
826,1.374533,1177.713
827,1.3762,1177.713
828,1.377867,1175.404
829,1.379533,1176.223
830,1.3812,1178.086
831,1.382867,1178.086
832,1.384533,1179.129
833,1.386183,1179.278
834,1.387883,1177.713
835,1.389517,1177.713
836,1.391183,1173.317
837,1.39285,1169.741
838,1.394517,1170.263
839,1.396183,1170.263
840,1.39785,1172.274
841,1.399517,1175.404
842,1.401183,1175.404
843,1.40285,1177.341
844,1.404517,1175.627
845,1.406183,1176.149
846,1.40785,1176.149
847,1.409517,1173.392
848,1.411183,1175.031
849,1.41285,1176.149
850,1.414517,1176.149
851,1.416183,1175.18
852,1.417883,1177.341
853,1.419517,1177.266
854,1.421183,1177.266
855,1.42285,1175.106
856,1.424517,1174.882
857,1.426183,1173.317
858,1.42785,1173.317
859,1.429517,1173.243
860,1.431183,1172.721
861,1.43285,1172.721
862,1.434517,1172.2
863,1.436183,1172.572
864,1.43785,1170.933
865,1.439517,1170.933
866,1.441183,1169.667
867,1.44285,1170.039
868,1.444517,1172.2
869,1.446167,1172.2
870,1.447833,1172.498
871,1.449567,1173.615
872,1.451167,1172.423
873,1.452833,1172.423
874,1.4545,1169.518
875,1.456167,1168.475
876,1.457833,1168.475
877,1.4595,1168.4
878,1.461167,1169.592
879,1.462833,1171.529
880,1.4645,1171.529
881,1.466267,1172.423
882,1.467833,1174.286
883,1.469517,1174.733
884,1.471167,1174.733
885,1.472833,1174.659
886,1.4745,1176
887,1.476167,1174.882
888,1.477833,1174.882
889,1.4795,1173.541
890,1.481167,1171.529
891,1.482933,1169.592
892,1.4845,1169.592
893,1.486167,1171.306
894,1.487833,1174.137
895,1.4895,1174.137
896,1.491167,1175.851
897,1.492817,1176.223
898,1.494483,1176.447
899,1.496183,1176.447
900,1.497817,1173.988
901,1.499483,1173.988
902,1.50115,1173.168
903,1.502817,1173.168
904,1.504483,1171.008
905,1.50615,1171.008
906,1.5078,1171.38
907,1.509467,1171.38
908,1.511133,1172.721
909,1.5128,1175.851
910,1.514467,1175.851
911,1.516133,1175.627
912,1.5178,1176.223
913,1.519467,1175.106
914,1.521133,1175.106
915,1.5228,1171.604
916,1.524467,1172.125
917,1.526133,1170.784
918,1.5278,1170.784
919,1.529467,1171.082
920,1.531133,1171.082
