"ID","sea_time","fid_signal"
1,0,37.531
2,0.001667,37.531
3,0.003333,37.496
4,0.005,37.484
5,0.006667,37.484
6,0.008333,37.479
7,0.01,37.377
8,0.011717,37.242
9,0.0134,37.242
10,0.015,37.178
11,0.016667,37.147
12,0.018333,37.251
13,0.02,37.251
14,0.021667,37.402
15,0.023333,37.47
16,0.025,37.502
17,0.026667,37.502
18,0.028333,37.529
19,0.03,37.556
20,0.031667,37.556
21,0.033333,37.569
22,0.035,37.563
23,0.036667,37.53
24,0.038333,37.53
25,0.04,37.501
26,0.041667,37.51
27,0.043333,37.498
28,0.045,37.498
29,0.046667,37.511
30,0.048333,37.505
31,0.05,37.491
32,0.051667,37.491
33,0.053333,37.508
34,0.054983,37.497
35,0.05665,37.512
36,0.058317,37.512
37,0.059983,37.512
38,0.06165,37.539
39,0.063317,37.539
40,0.064983,37.565
41,0.06665,37.558
42,0.068317,37.556
43,0.07000000000000001,37.556
44,0.07165000000000001,37.514
45,0.07331699999999999,37.493
46,0.07498299999999999,37.523
47,0.076683,37.523
48,0.07836700000000001,37.535
49,0.079983,37.562
50,0.08165,37.561
51,0.083317,37.561
52,0.084983,37.537
53,0.08665,37.533
54,0.08831700000000001,37.533
55,0.08998299999999999,37.523
56,0.09165,37.541
57,0.093317,37.568
58,0.094983,37.568
59,0.096717,37.553
60,0.098317,37.545
61,0.099983,37.53
62,0.10165,37.53
63,0.103317,37.512
64,0.104983,37.518
65,0.10665,37.511
66,0.108317,37.511
67,0.109983,37.496
68,0.11165,37.51
69,0.113383,37.526
70,0.114967,37.526
71,0.116633,37.535
72,0.1183,37.537
73,0.119967,37.537
74,0.121633,37.523
75,0.1233,37.5
76,0.124967,37.502
77,0.126633,37.502
78,0.1283,37.505
79,0.129967,37.496
80,0.131633,37.494
81,0.1333,37.494
82,0.134967,37.477
83,0.136633,37.508
84,0.1383,37.525
85,0.139967,37.525
86,0.141633,37.524
87,0.1433,37.533
88,0.144967,37.533
89,0.146633,37.507
90,0.1483,37.486
91,0.149967,37.5
92,0.151633,37.5
93,0.15335,37.511
94,0.154983,37.509
95,0.156633,37.507
96,0.1583,37.507
97,0.159967,37.531
98,0.161633,37.546
99,0.1633,37.57
100,0.164967,37.57
101,0.166633,37.602
102,0.1683,37.601
103,0.169967,37.601
104,0.171633,37.59
105,0.173283,37.586
106,0.17495,37.557
107,0.176617,37.557
108,0.178283,37.53
109,0.17995,37.526
110,0.181617,37.531
111,0.183283,37.531
112,0.18495,37.56
113,0.186617,37.578
114,0.188283,37.605
115,0.18995,37.605
116,0.191617,37.62
117,0.193283,37.644
118,0.19495,37.742
119,0.196617,37.742
120,0.198283,37.951
121,0.19995,38.406
122,0.201617,38.406
123,0.203283,39.293
124,0.20495,40.818
125,0.206617,43.212
126,0.208283,43.212
127,0.20995,46.66
128,0.211617,51.337
129,0.213283,57.212
130,0.214967,57.212
131,0.216617,64.28100000000001
132,0.218283,72.404
133,0.21995,81.408
134,0.22165,81.408
135,0.223283,91.188
136,0.22495,101.545
137,0.226617,101.545
138,0.228283,112.372
139,0.22995,123.537
140,0.231683,134.98
141,0.233283,134.98
142,0.234933,146.721
143,0.2366,158.735
144,0.238267,171.054
145,0.239933,171.054
146,0.2416,183.722
147,0.243267,196.776
148,0.244933,210.299
149,0.246583,210.299
150,0.248383,224.363
151,0.249917,239.063
152,0.251583,254.437
153,0.25325,254.437
154,0.254917,270.566
155,0.256583,287.51
156,0.25825,287.51
157,0.259917,305.355
158,0.261583,324.181
159,0.26325,344.095
160,0.264917,344.095
161,0.266583,365.181
162,0.26825,387.503
163,0.269917,411.172
164,0.271583,411.172
165,0.27325,436.236
166,0.274917,462.811
167,0.276583,491.032
168,0.27825,491.032
169,0.279917,521.03
170,0.281583,553.0069999999999
171,0.28325,553.0069999999999
172,0.284917,587.079
173,0.286583,623.36
174,0.28825,662.072
175,0.289917,662.072
176,0.291583,703.359
177,0.293267,747.58
178,0.2949,795.075
179,0.296567,795.075
180,0.298233,846.373
181,0.2999,902.35
182,0.301567,964.165
183,0.303233,964.165
184,0.3049,1033.577
185,0.306567,1112.425
186,0.308233,1112.425
187,0.3099,1202.361
188,0.311583,1303.916
189,0.313233,1415.241
190,0.3149,1415.241
191,0.316567,1531.845
192,0.318233,1646.243
193,0.3199,1748.952
194,0.321567,1748.952
195,0.323233,1830.567
196,0.3249,1883.196
197,0.326567,1902.21
198,0.328233,1902.21
199,0.3299,1886.901
200,0.331567,1840.086
201,0.333233,1767.332
202,0.3349,1767.332
203,0.336567,1675.409
204,0.338233,1571.328
205,0.3399,1571.328
206,0.341567,1461.299
207,0.343233,1350.279
208,0.3449,1242.014
209,0.346567,1242.014
210,0.348233,1139.007
211,0.349967,1042.813
212,0.351567,954.229
213,0.353233,954.229
214,0.354883,873.484
215,0.35655,800.501
216,0.358217,734.86
217,0.359883,734.86
218,0.36155,676.063
219,0.363217,623.5650000000001
220,0.364917,576.729
221,0.36665,576.729
222,0.368217,534.973
223,0.369883,497.709
224,0.37155,497.709
225,0.373217,464.421
226,0.374883,434.618
227,0.37655,407.919
228,0.378217,407.919
229,0.379883,383.953
230,0.38155,362.367
231,0.383333,342.899
232,0.384883,342.899
233,0.38655,325.263
234,0.388217,309.215
235,0.389883,294.575
236,0.39155,294.575
237,0.393217,281.172
238,0.394883,268.837
239,0.39655,268.837
240,0.398217,257.456
241,0.399883,246.931
242,0.401583,237.121
243,0.403217,237.121
244,0.404883,228.003
245,0.40655,219.468
246,0.408217,211.515
247,0.409883,211.515
248,0.41155,204.057
249,0.413217,197.051
250,0.414883,190.478
251,0.416533,190.478
252,0.4182,184.2
253,0.419867,178.283
254,0.421533,178.283
255,0.4232,172.666
256,0.424867,167.32
257,0.426533,162.257
258,0.4282,162.257
259,0.429867,157.418
260,0.431533,152.808
261,0.433233,148.448
262,0.434867,148.448
263,0.436533,144.28
264,0.4382,140.28
265,0.439867,136.446
266,0.441533,136.446
267,0.4432,132.754
268,0.444867,129.238
269,0.446533,125.897
270,0.4482,125.897
271,0.449867,122.712
272,0.451533,119.635
273,0.4532,119.635
274,0.454867,116.655
275,0.456533,113.826
276,0.4582,111.101
277,0.459867,111.101
278,0.461533,108.492
279,0.4632,105.984
280,0.464867,103.553
281,0.466533,103.553
282,0.468233,101.224
283,0.469867,98.983
284,0.471533,96.849
285,0.4732,96.849
286,0.47485,94.79000000000001
287,0.476517,92.78100000000001
288,0.478183,92.78100000000001
289,0.47985,90.902
290,0.481517,89.108
291,0.483183,87.34699999999999
292,0.484917,87.34699999999999
293,0.486517,85.66500000000001
294,0.488183,84.005
295,0.48985,82.39100000000001
296,0.491517,82.39100000000001
297,0.493183,80.922
298,0.49485,79.48999999999999
299,0.496517,78.087
300,0.498183,78.087
301,0.49985,76.78
302,0.5016,75.45399999999999
303,0.503183,74.19799999999999
304,0.50485,74.19799999999999
305,0.506517,73.01000000000001
306,0.5081830000000001,71.85599999999999
307,0.509883,71.85599999999999
308,0.511517,70.759
309,0.5131829999999999,69.69799999999999
310,0.51485,68.68899999999999
311,0.516517,68.68899999999999
312,0.5181829999999999,67.711
313,0.51985,66.78100000000001
314,0.521517,65.874
315,0.523183,65.874
316,0.52485,64.991
317,0.526517,64.117
318,0.528183,63.272
319,0.52985,63.272
320,0.531517,62.457
321,0.533183,61.673
322,0.534833,61.673
323,0.536483,60.926
324,0.53815,60.221
325,0.539817,59.555
326,0.541483,59.555
327,0.54315,58.893
328,0.544817,58.256
329,0.5464830000000001,57.627
330,0.54815,57.627
331,0.549817,57.053
332,0.5514829999999999,56.521
333,0.55315,55.962
334,0.554817,55.962
335,0.5564829999999999,55.438
336,0.55815,54.892
337,0.559817,54.892
338,0.561483,54.398
339,0.563167,53.97
340,0.56485,53.545
341,0.566483,53.545
342,0.56815,53.114
343,0.569817,52.674
344,0.571483,52.24
345,0.57315,52.24
346,0.574817,51.838
347,0.576483,51.452
348,0.578167,51.092
349,0.579817,51.092
350,0.581483,50.729
351,0.5831499999999999,50.368
352,0.584817,50.037
353,0.586533,50.037
354,0.58815,49.686
355,0.589817,49.356
356,0.591483,49.356
357,0.59315,49.043
358,0.5948,48.727
359,0.596467,48.429
360,0.598133,48.429
361,0.5998,48.156
362,0.601467,47.879
363,0.60315,47.636
364,0.6048,47.636
365,0.606467,47.408
366,0.608133,47.16
367,0.6098,46.93
368,0.611467,46.93
369,0.613133,46.704
370,0.6148,46.5
371,0.616467,46.5
372,0.618133,46.293
373,0.619833,46.086
374,0.621467,45.905
375,0.623133,45.905
376,0.6248,45.696
377,0.626467,45.518
378,0.6281330000000001,45.346
379,0.6298,45.346
380,0.631467,45.151
381,0.6331329999999999,44.991
382,0.6348,44.826
383,0.636467,44.826
384,0.638133,44.668
385,0.6398,44.521
386,0.641467,44.352
387,0.643133,44.352
388,0.6448,44.206
389,0.646467,44.072
390,0.648133,44.072
391,0.6498,43.96
392,0.651483,43.846
393,0.653183,43.726
394,0.6548,43.726
395,0.65645,43.603
396,0.658117,43.473
397,0.659783,43.38
398,0.66145,43.38
399,0.663117,43.28
400,0.664783,43.195
401,0.66645,43.099
402,0.668117,43.099
403,0.669783,43.014
404,0.67145,42.927
405,0.673117,42.927
406,0.674783,42.801
407,0.67645,42.669
408,0.678117,42.543
409,0.679783,42.543
410,0.68145,42.448
411,0.683117,42.365
412,0.684783,42.309
413,0.68645,42.309
414,0.688117,42.218
415,0.689783,42.128
416,0.69145,42.07
417,0.693117,42.07
418,0.694783,42.017
419,0.69645,41.951
420,0.698117,41.889
421,0.699783,41.889
422,0.701467,41.804
423,0.703117,41.737
424,0.704783,41.737
425,0.70645,41.669
426,0.708117,41.595
427,0.7097830000000001,41.538
428,0.71145,41.538
429,0.7131,41.487
430,0.714767,41.452
431,0.716433,41.424
432,0.7181,41.424
433,0.719767,41.377
434,0.7215,41.316
435,0.7231,41.246
436,0.7247670000000001,41.246
437,0.726433,41.161
438,0.728117,41.103
439,0.7298,41.103
440,0.731433,41.045
441,0.7331,41.01
442,0.7347669999999999,40.976
443,0.736433,40.976
444,0.7382,40.934
445,0.739767,40.901
446,0.741433,40.872
447,0.7431,40.872
448,0.744767,40.828
449,0.746433,40.793
450,0.7481,40.727
451,0.749767,40.727
452,0.751433,40.664
453,0.7531,40.617
454,0.754767,40.617
455,0.756433,40.54
456,0.7581,40.508
457,0.759767,40.472
458,0.761433,40.472
459,0.7631,40.466
460,0.764767,40.486
461,0.766433,40.478
462,0.7681,40.478
463,0.769767,40.47
464,0.771433,40.424
465,0.7731,40.381
466,0.774767,40.381
467,0.776417,40.329
468,0.778083,40.261
469,0.7797500000000001,40.249
470,0.781417,40.249
471,0.783083,40.2
472,0.7847499999999999,40.161
473,0.786417,40.161
474,0.788083,40.159
475,0.78975,40.126
476,0.791417,40.132
477,0.793083,40.132
478,0.79475,40.144
479,0.796417,40.098
480,0.7981,40.068
481,0.799783,40.068
482,0.801417,40.007
483,0.803083,39.946
484,0.80475,39.939
485,0.8064170000000001,39.939
486,0.808083,39.917
487,0.80975,39.928
488,0.8114170000000001,39.928
489,0.813083,39.902
490,0.81475,39.865
491,0.8164169999999999,39.853
492,0.818083,39.853
493,0.81975,39.808
494,0.821417,39.802
495,0.823133,39.793
496,0.82475,39.793
497,0.826417,39.757
498,0.828067,39.738
499,0.8297330000000001,39.686
500,0.8314,39.686
501,0.833067,39.648
502,0.8347329999999999,39.607
503,0.836383,39.605
504,0.83805,39.605
505,0.839717,39.633
506,0.841383,39.636
507,0.84305,39.636
508,0.8447170000000001,39.639
509,0.846383,39.641
510,0.84805,39.615
511,0.8497169999999999,39.615
512,0.851383,39.597
513,0.85305,39.558
514,0.8547169999999999,39.537
515,0.856467,39.537
516,0.85805,39.528
517,0.859717,39.504
518,0.861383,39.507
519,0.86305,39.507
520,0.864717,39.455
521,0.866383,39.45
522,0.86805,39.45
523,0.869717,39.472
524,0.871383,39.463
525,0.87305,39.449
526,0.874717,39.449
527,0.876467,39.41
528,0.87805,39.371
529,0.879717,39.357
530,0.881383,39.357
531,0.88305,39.356
532,0.884717,39.347
533,0.886383,39.341
534,0.88805,39.341
535,0.889717,39.353
536,0.891383,39.36
537,0.893033,39.36
538,0.8947000000000001,39.34
539,0.896367,39.315
540,0.898033,39.275
541,0.8997000000000001,39.275
542,0.901367,39.234
543,0.903033,39.209
544,0.9046999999999999,39.2
545,0.906367,39.2
546,0.908033,39.221
547,0.9097,39.226
548,0.911367,39.246
549,0.913033,39.246
550,0.9147,39.234
551,0.916367,39.213
552,0.918033,39.208
553,0.9197,39.208
554,0.921367,39.194
555,0.923033,39.199
556,0.9247,39.199
557,0.9263670000000001,39.181
558,0.928033,39.168
559,0.9297,39.148
560,0.9313669999999999,39.148
561,0.933033,39.101
562,0.9347,39.068
563,0.9363669999999999,39.043
564,0.938033,39.043
565,0.9397,39.012
566,0.941367,39.02
567,0.943033,39.023
568,0.944733,39.023
569,0.946367,39.04
570,0.9480499999999999,39.065
571,0.9497,39.065
572,0.951367,39.057
573,0.953033,39.052
574,0.9547,39.051
575,0.95635,39.051
576,0.958017,39.042
577,0.959683,39.07
578,0.96135,39.051
579,0.963017,39.051
580,0.964683,39.029
581,0.96635,39.045
582,0.968017,39.004
583,0.969683,39.004
584,0.97135,38.986
585,0.973017,38.934
586,0.9747670000000001,38.899
587,0.9763500000000001,38.899
588,0.978017,38.907
589,0.979683,38.926
590,0.9813499999999999,38.926
591,0.983017,38.978
592,0.984683,38.967
593,0.9863499999999999,38.958
594,0.988017,38.958
595,0.989683,38.952
596,0.99135,38.935
597,0.993017,38.942
598,0.994683,38.942
599,0.99635,38.909
600,0.998017,38.913
601,0.999683,38.899
602,1.00135,38.899
603,1.003017,38.891
604,1.004683,38.892
605,1.00635,38.892
606,1.008017,38.854
607,1.009683,38.831
608,1.01135,38.84
609,1.013017,38.84
610,1.014667,38.841
611,1.016333,38.833
612,1.018,38.823
613,1.019717,38.823
614,1.021333,38.792
615,1.023,38.783
