"ID","sea_time","fid_signal"
1,0,140.57
2,0.001667,140.57
3,0.003333,140.57
4,0.005083,140.488
5,0.006667,140.689
6,0.008333,140.533
7,0.01,140.533
8,0.011667,140.138
9,0.013333,139.832
10,0.015,139.676
11,0.016667,139.676
12,0.018333,139.84
13,0.02,140.093
14,0.021767,140.384
15,0.023333,140.384
16,0.025,140.198
17,0.026667,140.063
18,0.028333,140.063
19,0.03,140.145
20,0.031683,140.175
21,0.033333,140.399
22,0.035,140.399
23,0.036667,140.555
24,0.038433,140.458
25,0.04,140.28
26,0.041667,140.28
27,0.043333,140.265
28,0.045,140.376
29,0.046667,140.175
30,0.048333,140.175
31,0.05,140.22
32,0.05165,140.056
33,0.053317,140.056
34,0.054983,139.773
35,0.05665,139.944
36,0.0583,140.198
37,0.059967,140.198
38,0.061633,140.183
39,0.0633,139.989
40,0.064967,139.989
41,0.066633,139.989
42,0.0683,139.788
43,0.069967,140.078
44,0.071633,140.466
45,0.0733,140.466
46,0.07496700000000001,140.592
47,0.07663300000000001,140.704
48,0.07829999999999999,140.622
49,0.079967,140.622
50,0.081633,140.697
51,0.0833,140.734
52,0.084967,140.734
53,0.086633,140.652
54,0.08835,140.63
55,0.08996700000000001,140.518
56,0.09163300000000001,140.518
57,0.09329999999999999,140.533
58,0.094967,140.63
59,0.096633,140.503
60,0.0983,140.503
61,0.099967,140.57
62,0.101633,140.503
63,0.1033,140.436
64,0.104967,140.436
65,0.106633,140.667
66,0.108283,140.667
67,0.109983,140.667
68,0.111617,140.794
69,0.113283,140.756
70,0.114967,140.831
71,0.116617,140.831
72,0.118283,141.084
73,0.11995,140.861
74,0.121617,140.958
75,0.1233,140.958
76,0.12495,140.689
77,0.126617,140.443
78,0.128283,140.488
79,0.12995,140.488
80,0.131617,140.354
81,0.133283,140.354
82,0.13495,140.287
83,0.136617,140.287
84,0.138283,140.265
85,0.139967,140.071
86,0.141617,140.071
87,0.143283,140.272
88,0.14495,140.309
89,0.146617,140.212
90,0.148283,140.212
91,0.14995,140.242
92,0.151617,140.011
93,0.153283,140.078
94,0.15495,140.078
95,0.156733,140.317
96,0.158283,140.525
97,0.15995,140.585
98,0.161617,140.585
99,0.163283,140.376
100,0.164967,140.168
101,0.166617,140.168
102,0.168283,140.265
103,0.169933,140.16
104,0.171617,140.175
105,0.173267,140.175
106,0.174933,140.22
107,0.1766,139.967
108,0.178267,140.123
109,0.179933,140.123
110,0.1816,140.212
111,0.183267,140.22
112,0.184933,140.317
113,0.1866,140.317
114,0.188267,140.153
115,0.189933,140.049
116,0.1916,140.049
117,0.193267,139.862
118,0.194933,139.683
119,0.1966,139.847
120,0.198267,139.847
121,0.199933,139.907
122,0.2016,140.101
123,0.2033,140.496
124,0.204933,140.496
125,0.2066,140.391
126,0.208267,140.548
127,0.209933,140.391
128,0.2116,140.391
129,0.213267,140.242
130,0.214933,140.361
131,0.2166,140.302
132,0.218267,140.302
133,0.219933,140.578
134,0.2216,140.57
135,0.223267,140.57
136,0.224933,140.652
137,0.2266,140.6
138,0.228283,140.607
139,0.229917,140.607
140,0.231583,140.861
141,0.23325,140.995
142,0.234917,141.107
143,0.236583,141.107
144,0.23825,141.293
145,0.239917,141.725
146,0.24165,142.321
147,0.24325,142.321
148,0.244917,143.506
149,0.246583,144.787
150,0.24825,144.787
151,0.249917,146.389
152,0.251583,148.945
153,0.25325,151.88
154,0.254917,151.88
155,0.256583,155.494
156,0.258267,159.658
157,0.259917,164.166
158,0.261583,164.166
159,0.26325,169.575
160,0.264917,175.521
161,0.266583,182.122
162,0.26825,182.122
163,0.269917,189.468
164,0.271583,196.993
165,0.27325,205.271
166,0.275033,205.271
167,0.276583,214.107
168,0.27825,222.862
169,0.279917,222.862
170,0.281583,232.22
171,0.28325,242.032
172,0.284917,251.681
173,0.286583,251.681
174,0.28825,262.097
175,0.2899,272.579
176,0.291583,283.509
177,0.29325,283.509
178,0.294933,295.304
179,0.296567,307.389
180,0.298233,320.159
181,0.2999,320.159
182,0.301567,333.495
183,0.303233,347.517
184,0.304933,347.517
185,0.306567,362.359
186,0.308233,378.177
187,0.3099,394.575
188,0.311567,394.575
189,0.313233,411.63
190,0.3149,428.967
191,0.316567,446.349
192,0.318233,446.349
193,0.3199,463.761
194,0.321567,481.211
195,0.323233,498.801
196,0.3249,498.801
197,0.326567,516.549
198,0.328233,534.713
199,0.3299,553.481
200,0.331567,553.481
201,0.333233,573.188
202,0.3349,595.309
203,0.336567,595.309
204,0.338233,622.287
205,0.3399,657.7670000000001
206,0.341567,708.766
207,0.343233,708.766
208,0.3449,783.712
209,0.346567,893.369
210,0.348233,1049.109
211,0.349883,1049.109
212,0.351533,1260.765
213,0.3532,1535.669
214,0.354867,1875.214
215,0.356533,1875.214
216,0.3582,2275.556
217,0.35995,2726.585
218,0.361533,2726.585
219,0.3632,3213.942
220,0.364867,3720.455
221,0.366533,4227.512
222,0.368217,4227.512
223,0.369883,4716.925
224,0.371533,5170.263
225,0.3732,5571.365
226,0.374867,5571.365
227,0.376533,5906.396
228,0.3782,6164.305
229,0.379867,6338.306
230,0.381533,6338.306
231,0.3832,6424.896
232,0.384867,6425.187
233,0.386533,6425.187
234,0.3882,6345.473
235,0.389867,6194.703
236,0.391533,5985.782
237,0.393317,5985.782
238,0.394867,5732.879
239,0.396533,5449.198
240,0.3982,5148.016
241,0.399867,5148.016
242,0.401533,4839.994
243,0.4032,4533.5
244,0.404867,4235.022
245,0.406533,4235.022
246,0.408183,3948.599
247,0.409867,3677.458
248,0.411517,3422.618
249,0.413183,3422.618
250,0.41485,3185.019
251,0.416517,2965.003
252,0.418183,2965.003
253,0.41985,2761.416
254,0.421517,2574.109
255,0.423183,2402.343
256,0.42485,2402.343
257,0.426517,2244.256
258,0.428183,2099.253
259,0.42985,1966.29
260,0.431517,1966.29
261,0.433183,1843.84
262,0.43485,1731.634
263,0.436517,1628.734
264,0.438183,1628.734
265,0.43985,1534.142
266,0.44155,1447.417
267,0.443217,1447.417
268,0.44485,1367.584
269,0.446517,1294.315
270,0.448183,1226.939
271,0.44985,1226.939
272,0.451517,1164.883
273,0.453183,1107.484
274,0.45485,1054.317
275,0.456517,1054.317
276,0.458183,1005.314
277,0.45985,959.896
278,0.461517,918.277
279,0.463183,918.277
280,0.46485,879.452
281,0.466517,843.249
282,0.468183,809.908
283,0.46985,809.908
284,0.4715,779.01
285,0.473167,750.452
286,0.474833,750.452
287,0.4765,723.772
288,0.47825,698.425
289,0.479833,674.434
290,0.4815,674.434
291,0.483167,651.814
292,0.484833,630.967
293,0.4865,611.082
294,0.488167,611.082
295,0.489833,592.396
296,0.4915,574.999
297,0.493167,558.235
298,0.494833,558.235
299,0.4965,542.924
300,0.498167,528.2089999999999
301,0.499833,528.2089999999999
302,0.5014999999999999,514.254
303,0.503167,501.126
304,0.504833,488.594
305,0.5065,488.594
306,0.508167,476.852
307,0.509833,465.84
308,0.511617,455
309,0.5131829999999999,455
310,0.514833,444.546
311,0.5165,434.726
312,0.518167,425.026
313,0.519833,425.026
314,0.521533,416.003
315,0.523167,407.569
316,0.524833,399.254
317,0.5265,399.254
318,0.5281670000000001,391.662
319,0.529833,384.331
320,0.531483,384.331
321,0.53315,377.096
322,0.534817,370.264
323,0.536483,363.112
324,0.53815,363.112
325,0.539817,356.488
326,0.541483,350.401
327,0.54315,344.113
328,0.544817,344.113
329,0.5464830000000001,338.569
330,0.54815,333.138
331,0.549817,327.535
332,0.5514829999999999,327.535
333,0.55315,322.781
334,0.554817,318.088
335,0.5564829999999999,318.088
336,0.55815,313.059
337,0.559817,308.327
338,0.561483,303.276
339,0.56315,303.276
340,0.564817,298.694
341,0.566483,294.328
342,0.56815,290.446
343,0.569817,290.446
344,0.5715,286.706
345,0.57315,282.839
346,0.574817,279.33
347,0.576483,279.33
348,0.5781500000000001,275.657
349,0.579817,272.207
350,0.581483,268.668
351,0.5831499999999999,268.668
352,0.584817,265.412
353,0.5865,262.171
354,0.58815,262.171
355,0.589817,259.079
356,0.591467,256.367
357,0.593133,253.588
358,0.5948,253.588
359,0.5965,250.593
360,0.598133,247.791
361,0.5998,244.886
362,0.601467,244.886
363,0.603133,242.166
364,0.6048,239.834
365,0.606467,237.39
366,0.608133,237.39
367,0.6098,235.155
368,0.611467,232.749
369,0.61325,230.603
370,0.6148,230.603
371,0.616467,228.539
372,0.618133,226.207
373,0.6198,226.207
374,0.621467,224.106
375,0.623133,222.012
376,0.6248,220.083
377,0.626467,220.083
378,0.6281330000000001,218.056
379,0.6299169999999999,216.305
380,0.631467,214.636
381,0.6331329999999999,214.636
382,0.6348,212.818
383,0.636467,211.209
384,0.638133,211.209
385,0.6398,209.339
386,0.64145,207.29
387,0.643117,205.815
388,0.644783,205.815
389,0.64645,204.347
390,0.6481170000000001,203.177
391,0.649783,201.851
392,0.651433,201.851
393,0.6531,200.205
394,0.654767,198.774
395,0.656433,197.269
396,0.6581,197.269
397,0.659767,195.95
398,0.661433,194.788
399,0.663117,193.559
400,0.664767,193.559
401,0.6664330000000001,192.18
402,0.6681,191.011
403,0.669767,191.011
404,0.6714329999999999,190.005
405,0.6731,188.954
406,0.674767,187.978
407,0.676433,187.978
408,0.6781,186.868
409,0.679767,185.564
410,0.681467,184.655
411,0.6831,184.655
412,0.684767,184.059
413,0.686433,183.567
414,0.6881,182.86
415,0.689767,182.86
416,0.691433,181.958
417,0.6931,181.019
418,0.694767,181.019
419,0.696433,180.028
420,0.6981000000000001,179.246
421,0.699767,178.628
422,0.701433,178.628
423,0.7030999999999999,177.808
424,0.704767,177.1
425,0.706433,176.162
426,0.7081,176.162
427,0.709767,174.955
428,0.711417,173.971
429,0.713083,173.293
430,0.7148,173.293
431,0.716417,172.95
432,0.718083,172.57
433,0.71975,172.108
434,0.721417,172.108
435,0.723083,171.348
436,0.72475,170.521
437,0.726417,170.521
438,0.728083,169.881
439,0.7298,169.18
440,0.73155,168.51
441,0.733083,168.51
442,0.73475,167.809
443,0.736417,167.176
444,0.738083,166.722
445,0.73975,166.722
446,0.741417,165.977
447,0.743083,165.336
448,0.74475,164.799
449,0.746433,164.799
450,0.748167,164.449
451,0.74975,164.226
452,0.751417,164.226
453,0.7530829999999999,164.188
454,0.75475,163.876
455,0.756417,163.347
456,0.758083,163.347
457,0.75975,163.026
458,0.761417,162.4
459,0.763083,162.147
460,0.76475,162.147
461,0.766417,161.864
462,0.768083,161.432
463,0.769767,161.178
464,0.771433,161.178
465,0.7730669999999999,160.642
466,0.774733,160.396
467,0.7764,160.396
468,0.778067,159.994
469,0.779733,159.778
470,0.7814,159.562
471,0.783067,159.562
472,0.784733,159.279
473,0.7864,159.085
474,0.788067,158.913
475,0.789733,158.913
476,0.7914,158.638
477,0.793067,158.191
478,0.794733,158.079
479,0.7964,158.079
480,0.798067,157.721
481,0.799733,157.401
482,0.8014,157.028
483,0.8031,157.028
484,0.804733,156.559
485,0.8064,156.105
486,0.808067,156.105
487,0.809733,155.658
488,0.8114,155.479
489,0.813067,155.136
490,0.814733,155.136
491,0.8164,154.741
492,0.818067,154.622
493,0.819733,154.287
494,0.8214,154.287
495,0.823067,154.324
496,0.824733,154.205
497,0.8264,153.862
498,0.828067,153.862
499,0.8297330000000001,153.713
500,0.831383,153.355
501,0.83305,153.355
502,0.834717,153.065
503,0.836383,152.931
504,0.83805,152.767
505,0.839717,152.767
506,0.841383,152.484
507,0.84305,152.484
508,0.8447170000000001,152.588
509,0.846383,152.588
510,0.84805,152.23
511,0.8497169999999999,152.215
512,0.851383,151.873
513,0.85305,151.873
514,0.8547169999999999,151.373
515,0.856383,151.068
516,0.858083,151.113
517,0.859717,151.113
518,0.861383,151.418
519,0.86305,151.336
520,0.864717,151.336
521,0.8664500000000001,151.336
522,0.86805,150.904
523,0.869717,150.71
524,0.871383,150.71
525,0.873067,150.502
526,0.874717,150.539
527,0.876383,150.494
528,0.87805,150.494
529,0.879717,150.152
530,0.881383,150.301
531,0.88315,150.241
532,0.884717,150.241
533,0.886383,149.876
534,0.88805,149.466
535,0.889717,149.466
536,0.891367,149.265
537,0.893033,149.027
538,0.8947000000000001,149.347
539,0.896367,149.347
540,0.898033,149.682
541,0.8997000000000001,149.541
542,0.901367,149.332
543,0.903033,149.332
544,0.9046999999999999,148.997
545,0.906367,148.609
546,0.908033,148.572
547,0.9097,148.572
548,0.911367,148.602
549,0.913033,148.512
550,0.9147,148.728
551,0.916367,148.728
552,0.918033,148.624
553,0.9197,148.52
554,0.921367,148.52
555,0.923033,148.386
556,0.9247,148.118
557,0.9263670000000001,147.954
558,0.928033,147.954
559,0.9297,147.924
560,0.9313669999999999,147.738
561,0.933017,147.559
562,0.934683,147.559
563,0.93635,147.827
564,0.938033,147.596
565,0.939683,147.738
566,0.941367,147.738
567,0.943017,147.633
568,0.9446830000000001,147.112
569,0.94635,147.112
570,0.948017,147.313
571,0.9496830000000001,147.089
572,0.951333,147.38
573,0.953,147.38
574,0.954667,147.596
575,0.956333,147.387
576,0.958,147.626
577,0.959667,147.626
578,0.961333,147.32
579,0.963,147.097
580,0.9646670000000001,147.298
581,0.966333,147.298
582,0.968017,147.134
583,0.9696669999999999,147.045
584,0.971333,147.045
585,0.973,147.119
586,0.974667,146.501
587,0.976333,146.076
588,0.978,146.076
589,0.979667,146.203
590,0.981333,145.912
591,0.983,145.935
592,0.98475,145.935
593,0.986333,146.069
594,0.988,146.054
595,0.989667,145.897
596,0.991333,145.897
597,0.993,145.86
598,0.994667,145.823
599,0.996333,145.42
600,0.998,145.42
601,0.999667,145.435
602,1.001433,145.622
603,1.003,145.622
604,1.004667,145.756
605,1.006333,146.106
606,1.008,146.076
607,1.00965,146.076
608,1.011317,145.972
609,1.012983,145.517
610,1.01465,145.137
611,1.016317,145.137
612,1.017983,145.383
613,1.019667,145.398
614,1.021333,145.733
615,1.022983,145.733
616,1.02465,145.897
617,1.026317,145.771
618,1.027983,145.771
619,1.02965,145.622
620,1.031317,145.406
621,1.032983,145.361
622,1.03465,145.361
623,1.036317,145.13
624,1.037983,144.929
625,1.03965,144.899
626,1.041317,144.899
627,1.042983,144.601
628,1.04465,144.534
629,1.046317,144.728
630,1.047983,144.728
631,1.04965,144.862
632,1.051317,144.951
633,1.052983,144.75
634,1.05465,144.75
635,1.056317,144.742
636,1.057983,144.385
637,1.05965,144.385
638,1.061317,144.556
639,1.062983,144.877
640,1.06465,145.011
641,1.066317,145.011
642,1.067983,145.04
643,1.069633,144.839
644,1.071317,144.571
645,1.072967,144.571
646,1.074633,144.385
647,1.0763,144.176
648,1.077967,143.863
649,1.079633,143.863
650,1.0813,143.915
651,1.082967,143.953
652,1.084633,143.953
653,1.08635,144.348
654,1.087967,144.511
655,1.089633,144.266
656,1.0913,144.266
657,1.092967,143.878
658,1.094633,143.774
659,1.096317,143.915
660,1.098,143.915
661,1.099633,144.28
662,1.1013,144.608
663,1.102967,144.482
664,1.104633,144.482
665,1.1063,144.333
666,1.107967,144.087
667,1.109633,144.027
668,1.1113,144.027
669,1.112967,144.012
670,1.114633,144.146
671,1.1163,144.146
672,1.117967,144.258
673,1.119733,144.31
674,1.1213,144.407
675,1.122967,144.407
676,1.124633,144.057
677,1.1263,143.863
678,1.127967,143.573
679,1.129633,143.573
680,1.131283,143.655
681,1.13295,143.93
682,1.134617,144.251
683,1.136283,144.251
684,1.13795,144.43
685,1.139617,144.348
686,1.141283,144.348
687,1.14295,144.266
688,1.144617,144.258
689,1.146283,144.236
690,1.14795,144.236
691,1.149633,144.184
692,1.151283,144.228
693,1.15295,144.124
694,1.154617,144.124
695,1.156283,143.811
696,1.15795,143.565
697,1.159617,143.297
698,1.1613,143.297
699,1.162983,143.252
700,1.164617,143.372
701,1.166283,143.319
702,1.16795,143.319
703,1.169617,143.67
704,1.171283,143.573
705,1.17295,143.573
706,1.174617,143.521
707,1.176283,143.498
708,1.17795,142.984
709,1.179633,142.984
710,1.181283,142.91
711,1.18295,143.193
712,1.184617,143.297
713,1.186283,143.297
714,1.18795,143.446
715,1.189617,143.386
716,1.191267,143.141
717,1.192933,143.141
718,1.1946,143.215
719,1.196267,143.088
720,1.197933,143.088
721,1.1996,143.275
722,1.201267,143.245
723,1.202933,143.096
724,1.204683,143.096
725,1.206267,143.223
726,1.207933,143.275
727,1.2096,143.252
728,1.211267,143.252
729,1.212933,143.401
730,1.2146,143.655
731,1.216267,143.692
732,1.217933,143.692
733,1.2196,143.58
734,1.221283,143.468
735,1.222933,143.468
736,1.224583,143.163
737,1.2263,142.843
738,1.227917,143.155
739,1.229583,143.155
740,1.23125,143.126
741,1.232917,143.185
742,1.234583,143.215
743,1.23625,143.215
744,1.238017,142.902
745,1.239583,142.939
746,1.24125,142.902
747,1.242917,142.902
748,1.244583,142.917
749,1.24625,142.887
750,1.247917,143.163
751,1.249583,143.163
752,1.251233,143.215
753,1.2529,143.2
754,1.254567,143.2
755,1.256233,143.29
756,1.2579,143.193
757,1.259567,143.193
758,1.261233,143.193
759,1.2629,143.193
760,1.264567,143.379
761,1.266233,143.372
762,1.2679,143.372
763,1.269567,143.252
764,1.271233,143.439
765,1.272933,143.282
766,1.274567,143.282
767,1.276233,143.066
768,1.2779,143.148
769,1.279567,143.148
770,1.281233,142.947
771,1.2829,142.887
772,1.284567,142.604
773,1.286233,142.604
774,1.2879,142.321
775,1.289567,142.559
776,1.291233,142.694
777,1.2929,142.694
778,1.294567,142.999
779,1.296233,143.491
780,1.2979,143.096
781,1.299567,143.096
782,1.301283,142.768
783,1.3029,142.731
784,1.304567,142.261
785,1.306233,142.261
786,1.3079,142.5
787,1.309567,142.694
788,1.311217,142.694
789,1.312883,142.641
790,1.31455,142.559
791,1.316217,142.187
792,1.317883,142.187
793,1.31955,141.911
794,1.321217,141.598
795,1.32295,141.844
796,1.324567,141.844
797,1.326217,142.053
798,1.327883,142.53
799,1.32955,142.723
800,1.331217,142.723
801,1.332883,142.604
802,1.33455,142.559
803,1.336217,142.559
804,1.337883,142.314
805,1.33955,142.381
806,1.341217,142.291
807,1.342883,142.291
808,1.34455,142.261
809,1.346217,142.336
810,1.347883,142.254
811,1.34955,142.254
812,1.351217,142.232
813,1.352883,142.366
814,1.35455,142.336
815,1.356233,142.336
816,1.357883,142.366
817,1.35955,142.41
818,1.361217,142.41
819,1.362883,142.47
820,1.36455,142.612
821,1.366217,142.641
822,1.367883,142.641
823,1.369533,142.649
824,1.3712,142.232
825,1.372867,141.926
826,1.374533,141.926
827,1.3762,142.09
828,1.377867,142.127
829,1.379567,142.395
830,1.3812,142.395
831,1.382867,142.582
832,1.384533,142.358
833,1.3862,142.425
834,1.387867,142.425
835,1.389533,142.343
836,1.3912,142.425
837,1.392867,142.425
838,1.394533,142.314
839,1.3962,142.224
840,1.397867,142.477
841,1.399533,142.477
842,1.4012,142.41
843,1.402867,142.626
844,1.404533,142.85
845,1.4062,142.85
846,1.407867,142.507
847,1.409533,142.246
848,1.4112,142.016
849,1.412867,142.016
850,1.414533,141.822
851,1.4162,141.956
852,1.417867,141.956
853,1.419533,142.157
854,1.4212,142.649
855,1.422867,142.761
856,1.424533,142.761
857,1.4262,142.671
858,1.427867,142.53
859,1.429517,142.217
860,1.431183,142.217
861,1.43285,142.321
862,1.434533,142.574
863,1.436233,142.515
864,1.43785,142.515
865,1.439517,142.328
866,1.441183,142.358
867,1.44285,142.187
868,1.444533,142.187
869,1.446183,142.15
870,1.44785,142.276
871,1.449517,142.276
872,1.451183,142.15
873,1.45285,142.06
874,1.454517,142.135
875,1.456183,142.135
876,1.45785,142.157
877,1.459517,142.246
878,1.461183,142.567
879,1.46285,142.567
880,1.464517,142.664
881,1.466183,142.626
882,1.46785,142.589
883,1.469517,142.589
884,1.471183,142.5
885,1.47285,142.492
886,1.474633,142.336
887,1.476183,142.336
888,1.47785,142.053
889,1.479517,141.889
890,1.481183,141.889
891,1.48285,141.881
892,1.484517,141.926
893,1.486183,141.844
894,1.48785,141.844
895,1.4895,141.986
896,1.491167,142.12
897,1.492833,142.53
898,1.4945,142.53
899,1.496167,142.895
900,1.497833,142.783
901,1.4995,142.716
902,1.501167,142.716
903,1.502833,142.328
904,1.5045,142.224
905,1.506167,142.224
906,1.507833,142.097
907,1.5095,142.008
908,1.511167,142.246
909,1.512833,142.246
910,1.5145,142.045
911,1.516167,141.978
912,1.517833,141.695
913,1.519483,141.695
914,1.52115,141.487
915,1.522817,141.494
916,1.524483,141.419
917,1.52615,141.419
918,1.527817,141.405
919,1.529483,141.203
920,1.53115,141.203
921,1.532817,141.203
922,1.534483,141.598
923,1.53615,141.956
924,1.537817,141.956
925,1.539483,142.105
926,1.54115,142.06
927,1.542817,141.777
928,1.544483,141.777
929,1.54615,141.568
930,1.5478,141.755
931,1.549467,141.807
932,1.551133,141.807
933,1.5528,141.598
934,1.554467,141.501
935,1.556133,141.501
936,1.5578,141.285
937,1.559517,141.382
938,1.561133,141.785
939,1.5628,141.785
940,1.564467,142.06
941,1.566133,142.075
942,1.5678,142.023
943,1.569467,142.023
944,1.571133,141.792
945,1.5728,141.688
946,1.574467,141.807
947,1.576133,141.807
948,1.5778,141.889
949,1.579467,142.232
950,1.581133,142.239
951,1.5828,142.239
952,1.584467,142.209
953,1.586133,141.963
954,1.58785,141.963
955,1.589483,141.822
956,1.591133,141.844
957,1.592917,141.658
958,1.594467,141.658
959,1.596133,141.74
960,1.5978,141.539
961,1.599467,141.546
