"ID","sea_time","fid_signal"
1,0,1166.239
2,0.001667,1168.4
3,0.003333,1168.4
4,0.005,1167.879
5,0.006667,1170.039
6,0.008333,1171.157
7,0.01,1171.157
8,0.011667,1172.349
9,0.013333,1172.498
10,0.015,1172.498
11,0.016667,1171.008
12,0.018333,1167.655
13,0.02,1164.973
14,0.0217,1164.973
15,0.023333,1165.643
16,0.025,1166.314
17,0.026667,1168.922
18,0.028333,1168.922
19,0.03,1171.157
20,0.031717,1173.243
21,0.033333,1173.466
22,0.035,1173.466
23,0.036667,1173.913
24,0.038333,1172.2
25,0.04,1172.2
26,0.041667,1169.518
27,0.043333,1166.984
28,0.045,1163.036
29,0.0467,1163.036
30,0.048317,1162.216
31,0.05,1161.844
32,0.05165,1161.546
33,0.053317,1161.546
34,0.054983,1162.887
35,0.05665,1165.941
36,0.058317,1168.177
37,0.059983,1168.177
38,0.06165,1169.741
39,0.063317,1168.475
40,0.064983,1164.898
41,0.06665,1164.898
42,0.0683,1162.291
43,0.069967,1161.024
44,0.071633,1161.024
45,0.0733,1163.036
46,0.07496700000000001,1167.208
47,0.07663300000000001,1171.38
48,0.07829999999999999,1171.38
49,0.079967,1173.392
50,0.081633,1172.87
51,0.0833,1167.506
52,0.084967,1167.506
53,0.086633,1163.408
54,0.0883,1163.557
55,0.08996700000000001,1162.961
56,0.09163300000000001,1162.961
57,0.09329999999999999,1165.569
58,0.094967,1168.4
59,0.096633,1168.4
60,0.0983,1168.4
61,0.099967,1171.604
62,0.101633,1170.561
63,0.1033,1170.561
64,0.104967,1168.922
65,0.106633,1167.059
66,0.1083,1164.6
67,0.10995,1164.6
68,0.111617,1164.824
69,0.1133,1163.557
70,0.115,1161.844
71,0.116667,1161.844
72,0.118367,1160.875
73,0.11995,1161.322
74,0.121617,1163.11
75,0.123283,1163.11
76,0.12495,1164.749
77,0.126617,1164.675
78,0.1283,1164.675
79,0.12995,1164.898
80,0.131617,1164.228
81,0.133283,1166.835
82,0.13495,1166.835
83,0.136617,1169.816
84,0.138283,1170.188
85,0.13995,1168.996
86,0.141617,1168.996
87,0.143283,1168.326
88,0.14495,1167.879
89,0.146617,1169.816
90,0.148283,1169.816
91,0.14995,1173.913
92,0.151617,1175.18
93,0.153283,1175.18
94,0.15495,1174.51
95,0.156617,1175.478
96,0.158283,1175.031
97,0.15995,1175.031
98,0.161617,1171.902
99,0.163283,1170.859
100,0.16495,1167.506
101,0.166733,1167.506
102,0.168283,1162.663
103,0.16995,1162.067
104,0.1716,1163.557
105,0.173267,1163.557
106,0.174933,1164.079
107,0.1766,1166.835
108,0.178267,1166.835
109,0.179933,1166.91
110,0.1816,1168.027
111,0.18335,1169.518
112,0.184933,1169.518
113,0.1866,1172.498
114,0.188283,1176.819
115,0.189933,1177.49
116,0.1916,1177.49
117,0.1933,1175.851
118,0.194933,1173.615
119,0.1966,1171.827
120,0.198267,1171.827
121,0.199933,1168.102
122,0.2016,1167.059
123,0.203267,1167.059
124,0.204933,1167.059
125,0.2066,1167.953
126,0.208267,1168.773
127,0.209933,1168.773
128,0.2116,1172.051
129,0.213267,1170.71
130,0.214933,1171.082
131,0.2166,1171.082
132,0.218267,1173.168
133,0.219933,1173.168
134,0.2216,1172.796
135,0.223267,1172.796
136,0.224933,1172.274
137,0.2266,1169.592
138,0.228267,1167.655
139,0.229933,1167.655
140,0.231583,1168.4
141,0.23325,1165.494
142,0.234917,1165.494
143,0.236583,1165.643
144,0.23825,1164.675
145,0.239917,1164.526
146,0.241583,1164.526
147,0.24325,1166.388
148,0.244917,1169.145
149,0.246583,1173.243
150,0.24825,1173.243
151,0.249917,1175.255
152,0.251583,1173.839
153,0.25325,1172.87
154,0.254917,1172.87
155,0.256583,1172.572
156,0.258267,1172.647
157,0.259917,1175.255
158,0.261617,1175.255
159,0.26325,1176.67
160,0.264917,1177.266
161,0.266583,1177.266
162,0.26825,1176.819
163,0.269917,1180.768
164,0.271583,1186.281
165,0.27325,1186.281
166,0.274917,1191.571
167,0.276583,1200.438
168,0.27825,1210.868
169,0.279917,1210.868
170,0.281583,1222.268
171,0.28325,1238.436
172,0.285017,1257.956
173,0.286583,1257.956
174,0.28825,1276.061
175,0.289917,1299.53
176,0.291567,1299.53
177,0.293233,1323.074
178,0.2949,1350.492
179,0.296567,1384.765
180,0.298233,1384.765
181,0.2999,1414.344
182,0.30165,1447.126
183,0.303233,1478.493
184,0.3049,1478.493
185,0.306567,1509.637
186,0.308233,1543.388
187,0.3099,1576.617
188,0.311567,1576.617
189,0.313233,1610.219
190,0.3149,1640.916
191,0.316567,1670.197
192,0.31835,1670.197
193,0.3199,1695.231
194,0.321567,1718.551
195,0.323233,1718.551
196,0.3249,1740.53
197,0.326567,1760.2
198,0.328233,1778.677
199,0.3299,1778.677
200,0.331567,1796.782
201,0.333233,1805.35
202,0.3349,1811.758
203,0.336567,1811.758
204,0.338267,1816.899
205,0.3399,1814.887
206,0.341567,1814.365
207,0.343233,1814.365
208,0.3449,1811.236
209,0.346567,1803.637
210,0.348233,1803.637
211,0.3499,1791.567
212,0.35155,1775.846
213,0.353217,1759.529
214,0.354883,1759.529
215,0.356567,1738.444
216,0.358217,1721.382
217,0.359867,1703.203
218,0.361533,1703.203
219,0.3632,1682.267
220,0.364867,1667.142
221,0.366533,1648.888
222,0.3682,1648.888
223,0.369867,1633.242
224,0.371533,1623.109
225,0.3732,1623.109
226,0.374867,1613.945
227,0.376533,1614.615
228,0.3782,1625.344
229,0.379867,1625.344
230,0.381533,1643.747
231,0.3832,1673.922
232,0.384867,1716.018
233,0.386533,1716.018
234,0.3882,1772.046
235,0.389867,1843.05
236,0.391533,1932.755
237,0.3932,1932.755
238,0.394867,2038.181
239,0.396533,2155.08
240,0.3982,2290.234
241,0.399867,2290.234
242,0.401533,2435.446
243,0.403233,2592.355
244,0.404867,2592.355
245,0.406533,2763.42
246,0.4082,2943.352
247,0.40985,3135.13
248,0.411517,3135.13
249,0.413183,3337.115
250,0.41485,3548.115
251,0.416517,3763.959
252,0.418183,3763.959
253,0.419917,3986.657
254,0.421517,4209.876
255,0.423183,4434.139
256,0.42485,4434.139
257,0.426517,4660.338
258,0.428183,4885.495
259,0.42985,4885.495
260,0.431517,5111.843
261,0.433183,5339.682
262,0.43485,5567.521
263,0.436633,5567.521
264,0.438183,5794.391
265,0.43985,6019.25
266,0.441517,6241.5
267,0.443183,6241.5
268,0.44485,6461.367
269,0.446517,6677.806
270,0.448183,6895.661
271,0.44985,6895.661
272,0.451517,7109.716
273,0.453183,7319.227
274,0.45485,7526.651
275,0.456517,7526.651
276,0.458183,7731.169
277,0.45985,7930.845
278,0.461517,7930.845
279,0.463183,8129.85
280,0.46485,8327.066999999999
281,0.466517,8519.218000000001
282,0.468183,8519.218000000001
283,0.469833,8711.069
284,0.4715,8900.538
285,0.473167,9086.579
286,0.474833,9086.579
287,0.4765,9269.342000000001
288,0.478167,9450.391
289,0.4799,9625.405000000001
290,0.4815,9625.405000000001
291,0.483167,9797.662
292,0.484833,9965.896000000001
293,0.4865,9965.896000000001
294,0.488167,10129.362
295,0.489833,10294.914
296,0.4915,10460.242
297,0.493167,10460.242
298,0.494833,10624.751
299,0.4965,10787.621
300,0.498167,10942.295
301,0.499833,10942.295
302,0.5014999999999999,11091.456
303,0.503167,11238.902
304,0.504833,11383.966
305,0.5065,11383.966
306,0.508167,11530.369
307,0.509833,11676.103
308,0.5115,11821.24
309,0.513167,11821.24
310,0.514833,11963.397
311,0.5165,12101.158
312,0.518167,12101.158
313,0.519833,12237.653
314,0.521517,12368.038
315,0.523167,12497.455
316,0.524833,12497.455
317,0.5265,12627.318
318,0.5281670000000001,12756.81
319,0.529833,12886.375
320,0.5315,12886.375
321,0.53315,13012.886
322,0.534817,13137.087
323,0.536483,13255.552
324,0.538167,13255.552
325,0.539817,13374.463
326,0.541483,13493.598
327,0.54315,13493.598
328,0.544817,13608.262
329,0.5464830000000001,13725.013
330,0.54815,13836.398
331,0.549817,13836.398
332,0.5514829999999999,13944.134
333,0.553167,14052.168
334,0.554967,14157.37
335,0.5564829999999999,14157.37
336,0.55815,14266.372
337,0.559817,14376.343
338,0.561483,14481.321
339,0.56315,14481.321
340,0.564817,14583.319
341,0.566483,14680.848
342,0.56815,14772.937
343,0.569817,14772.937
344,0.571483,14867.41
345,0.57315,14964.342
346,0.574817,14964.342
347,0.576483,15061.87
348,0.5781500000000001,15158.504
349,0.579817,15251.115
350,0.581483,15251.115
351,0.5831499999999999,15340.671
352,0.584817,15423.298
353,0.586483,15505.329
354,0.58815,15505.329
355,0.589817,15586.987
356,0.591483,15664.92
357,0.593133,15736.073
358,0.5948,15736.073
359,0.596467,15795.23
360,0.598133,15832.707
361,0.5998,15832.707
362,0.601467,15802.16
363,0.603133,15530.064
364,0.6048,14703.199
365,0.606467,14703.199
366,0.608133,13211.891
367,0.6098,11214.018
368,0.611467,9067.058999999999
369,0.613133,9067.058999999999
370,0.6148169999999999,7223.562
371,0.6165,5888.269
372,0.618133,5005.747
373,0.6198,5005.747
374,0.621467,4429.072
375,0.623133,4042.611
376,0.6248,4042.611
377,0.626467,3774.688
378,0.6281330000000001,3575.608
379,0.62985,3422.126
380,0.631467,3422.126
381,0.6331329999999999,3296.658
382,0.6348,3191.754
383,0.636467,3102.049
384,0.638133,3102.049
385,0.6398,3022.552
386,0.641467,2954.155
387,0.643133,2890.825
388,0.6448,2890.825
389,0.646467,2833.456
390,0.648133,2777.427
391,0.649767,2728.403
392,0.651433,2728.403
393,0.6531,2684.295
394,0.654767,2639.443
395,0.656433,2639.443
396,0.6581,2600.998
397,0.659767,2558.008
398,0.661433,2516.359
399,0.6631,2516.359
400,0.664767,2479.628
401,0.6664330000000001,2444.908
402,0.6681,2414.063
403,0.669767,2414.063
404,0.6714329999999999,2382.249
405,0.673217,2351.329
406,0.674767,2322.942
407,0.676433,2322.942
408,0.6781,2296.939
409,0.679767,2270.49
410,0.681433,2270.49
411,0.6831,2243.444
412,0.684767,2214.089
413,0.686433,2186.895
414,0.6881,2186.895
415,0.689767,2161.711
416,0.691433,2138.242
417,0.6931,2118.573
418,0.6948,2118.573
419,0.696433,2096.593
420,0.6981000000000001,2076.477
421,0.699767,2055.69
422,0.701433,2055.69
423,0.7030999999999999,2032.965
424,0.704767,2010.986
425,0.706433,1989.752
426,0.7081,1989.752
427,0.709767,1970.232
428,0.711417,1952.648
429,0.713083,1952.648
430,0.71475,1934.32
431,0.716417,1915.693
432,0.718083,1897.737
433,0.71975,1897.737
434,0.721417,1880.154
435,0.7231,1862.645
436,0.72475,1849.309
437,0.726417,1849.309
438,0.728083,1835.972
439,0.72975,1822.114
440,0.731417,1809.374
441,0.733083,1809.374
442,0.73475,1796.484
443,0.736417,1780.912
444,0.738083,1780.912
445,0.73975,1769.14
446,0.741417,1758.859
447,0.743083,1748.055
448,0.74475,1748.055
449,0.746417,1736.879
450,0.7480830000000001,1721.308
451,0.74975,1708.642
452,0.751417,1708.642
453,0.7530829999999999,1694.038
454,0.75475,1683.161
455,0.756417,1674.146
456,0.758083,1674.146
457,0.759767,1663.342
458,0.761417,1653.135
459,0.763083,1653.135
460,0.76475,1642.704
461,0.766417,1631.379
462,0.768083,1622.662
463,0.769733,1622.662
464,0.7714,1614.913
465,0.7730669999999999,1608.804
466,0.774733,1601.279
467,0.7764,1601.279
468,0.778067,1589.879
469,0.779733,1582.876
470,0.7814,1572.669
471,0.783067,1572.669
472,0.784733,1562.908
473,0.7864,1555.011
474,0.788067,1548.231
475,0.789733,1548.231
476,0.791517,1543.313
477,0.793067,1541.227
478,0.794733,1541.227
479,0.7964,1534.671
480,0.798067,1524.836
481,0.799733,1515.672
482,0.8014,1515.672
483,0.803067,1503.751
484,0.804733,1497.79
485,0.8064,1490.34
486,0.808067,1490.34
487,0.809733,1485.348
488,0.8114,1481.026
489,0.8131,1476.631
490,0.814733,1476.631
491,0.8164,1473.203
492,0.818067,1468.435
493,0.819733,1468.435
494,0.8214,1465.231
495,0.823067,1459.047
496,0.824733,1453.161
497,0.8264,1453.161
498,0.828067,1445.86
499,0.829717,1439.452
500,0.831383,1432.374
501,0.833083,1432.374
502,0.8347830000000001,1424.998
503,0.836383,1422.986
504,0.83805,1420.155
505,0.839717,1420.155
506,0.841383,1416.728
507,0.84305,1414.791
508,0.8447170000000001,1408.383
509,0.846383,1408.383
510,0.84805,1402.497
511,0.8497169999999999,1401.082
512,0.851383,1401.082
513,0.85305,1396.462
514,0.8547169999999999,1392.588
515,0.856383,1388.118
516,0.85805,1388.118
517,0.859717,1383.722
518,0.861383,1380.071
519,0.86305,1375.675
520,0.864717,1375.675
521,0.866383,1375.228
522,0.86805,1370.907
523,0.869717,1369.566
524,0.871383,1369.566
525,0.87305,1368.746
526,0.874717,1362.19
527,0.8764,1362.19
528,0.87805,1360.849
529,0.879717,1359.135
530,0.881383,1353.92
531,0.88305,1353.92
532,0.884717,1352.876
533,0.886383,1346.245
534,0.88805,1339.316
535,0.8897,1339.316
536,0.891367,1336.113
537,0.89305,1332.164
538,0.894733,1331.642
539,0.896367,1331.642
540,0.898033,1330.227
541,0.8997000000000001,1330.45
542,0.901367,1327.023
543,0.90305,1327.023
544,0.9046999999999999,1322.627
545,0.906367,1318.976
546,0.908033,1318.976
547,0.909817,1315.698
548,0.911367,1313.984
549,0.913033,1315.325
550,0.9147,1315.325
551,0.916367,1314.059
552,0.918033,1309.067
553,0.9197,1308.769
554,0.921367,1308.769
555,0.923033,1306.161
556,0.9247,1301.84
557,0.9263670000000001,1302.66
558,0.928033,1302.66
559,0.9297,1298.711
560,0.9313669999999999,1293.048
561,0.933033,1293.048
562,0.9347,1290.813
563,0.9363669999999999,1286.194
564,0.938033,1283.81
565,0.9397,1283.81
566,0.94135,1283.437
567,0.943017,1281.723
568,0.9446830000000001,1283.139
569,0.94635,1283.139
570,0.948017,1285.076
571,0.949667,1283.288
572,0.951333,1285.151
573,0.953,1285.151
574,0.954667,1280.904
575,0.956333,1277.328
576,0.958,1277.328
577,0.959667,1276.955
578,0.961333,1274.645
579,0.963,1273.23
580,0.9646670000000001,1273.23
581,0.966333,1269.43
582,0.968,1268.834
583,0.9696669999999999,1269.579
584,0.971367,1269.579
585,0.973067,1268.759
586,0.974667,1270.846
587,0.976333,1268.387
588,0.978,1268.387
589,0.979667,1266.748
590,0.981333,1266.971
591,0.983,1263.469
592,0.984667,1263.469
593,0.986333,1264.811
594,0.988,1262.277
595,0.989667,1262.277
596,0.991333,1259.893
597,0.993,1259.372
598,0.994717,1255.572
599,0.996333,1255.572
600,0.998,1253.56
601,0.999667,1251.474
602,1.001333,1252.294
603,1.003,1252.294
604,1.004667,1251.623
605,1.006333,1250.803
606,1.008,1253.486
607,1.00965,1253.486
608,1.01145,1250.878
609,1.012983,1250.58
610,1.01465,1250.58
611,1.016317,1252.294
612,1.017983,1249.611
613,1.01965,1248.494
614,1.021317,1248.494
615,1.022983,1248.643
616,1.02465,1246.259
617,1.026317,1246.035
618,1.0281,1246.035
619,1.02965,1247.674
620,1.031317,1245.365
621,1.032983,1243.427
622,1.03465,1243.427
623,1.036317,1239.33
624,1.037983,1235.455
625,1.03965,1233.742
626,1.041317,1233.742
627,1.042983,1232.699
628,1.04465,1231.879
629,1.046317,1231.879
630,1.048,1234.189
631,1.04965,1236.945
632,1.051367,1236.647
633,1.052983,1236.647
634,1.05465,1238.51
635,1.056317,1235.53
636,1.057983,1232.848
637,1.05965,1232.848
638,1.061317,1233.518
639,1.062983,1231.059
640,1.06465,1229.271
641,1.066317,1229.271
642,1.067983,1228.228
643,1.069633,1227.93
644,1.0713,1227.93
645,1.072967,1229.271
646,1.074633,1231.208
647,1.0763,1233.816
648,1.077967,1233.816
649,1.079633,1235.157
650,1.0813,1236.2
651,1.082967,1236.126
652,1.084633,1236.126
653,1.0863,1231.656
654,1.087967,1225.62
655,1.089633,1221.225
656,1.0913,1221.225
657,1.092967,1217.574
658,1.094633,1216.829
659,1.0963,1218.617
660,1.097967,1218.617
661,1.099633,1219.437
662,1.1013,1218.915
663,1.102967,1218.915
664,1.104633,1220.703
665,1.1063,1219.437
666,1.107967,1219.064
667,1.109633,1219.064
668,1.1113,1219.958
669,1.113,1219.064
670,1.114633,1221.076
671,1.1163,1221.076
672,1.117967,1224.279
673,1.119633,1225.844
674,1.121333,1223.683
675,1.122967,1223.683
676,1.124633,1220.629
677,1.1263,1216.531
678,1.127967,1216.531
679,1.129717,1215.637
680,1.131283,1216.307
681,1.13295,1217.35
682,1.134617,1217.35
683,1.136283,1219.213
684,1.13795,1217.946
685,1.139617,1216.531
686,1.141283,1216.531
687,1.14295,1214.743
688,1.144617,1209.9
689,1.146367,1206.547
690,1.14795,1206.547
691,1.149617,1204.535
692,1.151283,1204.237
693,1.15295,1205.28
694,1.154617,1205.28
695,1.156283,1205.429
696,1.15795,1209.378
697,1.159617,1209.378
698,1.161283,1210.421
699,1.162967,1210.198
700,1.164617,1210.049
701,1.166283,1210.049
702,1.16795,1206.547
703,1.169617,1207.218
704,1.171283,1209.676
705,1.17295,1209.676
706,1.174617,1209.453
707,1.176283,1207.59
708,1.17795,1204.759
709,1.179617,1204.759
710,1.181283,1200.438
711,1.18295,1199.245
712,1.184617,1199.245
713,1.186283,1200.289
714,1.18795,1202.151
715,1.1896,1206.1
716,1.191267,1206.1
717,1.192933,1209.602
718,1.194667,1212.06
719,1.196267,1208.559
720,1.197933,1208.559
721,1.1996,1206.026
722,1.201267,1206.696
723,1.202933,1203.492
724,1.2046,1203.492
725,1.206267,1203.716
726,1.207933,1205.653
727,1.2096,1205.653
728,1.211267,1205.653
729,1.212933,1208.41
730,1.2146,1212.06
731,1.216267,1212.06
732,1.217933,1209.08
733,1.2196,1209.229
734,1.221267,1207.367
735,1.222933,1207.367
736,1.2246,1207.367
737,1.226267,1208.559
738,1.227933,1205.504
739,1.2296,1205.504
740,1.231267,1204.237
741,1.232917,1198.575
742,1.234583,1197.681
743,1.23625,1197.681
744,1.237917,1196.861
745,1.239583,1196.861
746,1.24125,1196.861
747,1.242917,1198.947
748,1.244583,1198.798
749,1.24625,1195.744
750,1.247967,1195.744
751,1.249567,1196.638
752,1.251233,1198.5
753,1.2529,1200.661
754,1.254567,1200.661
755,1.256233,1204.61
756,1.2579,1204.461
757,1.259567,1202.151
758,1.261233,1202.151
759,1.2629,1199.32
760,1.264567,1198.947
761,1.266233,1198.947
762,1.267917,1197.457
763,1.26965,1198.649
764,1.271233,1198.724
765,1.2729,1198.724
766,1.274567,1197.457
767,1.276233,1198.128
768,1.2779,1196.936
769,1.279567,1196.936
770,1.281333,1195.222
771,1.2829,1194.552
772,1.284567,1194.403
773,1.286233,1194.403
774,1.2879,1191.944
775,1.289567,1193.359
776,1.291233,1193.583
777,1.2929,1193.583
778,1.294567,1194.179
779,1.296233,1196.116
780,1.2979,1196.116
781,1.299567,1196.191
782,1.301233,1196.414
783,1.3029,1195.52
784,1.304567,1195.52
785,1.306233,1195.222
786,1.3079,1195.148
787,1.30955,1196.265
788,1.311217,1196.265
789,1.312883,1196.414
790,1.31455,1199.171
791,1.316217,1198.798
792,1.317883,1198.798
793,1.31955,1193.956
794,1.321217,1192.242
795,1.322883,1192.242
796,1.32455,1189.932
797,1.326217,1190.603
798,1.327883,1192.093
799,1.32955,1192.093
800,1.331217,1193.732
801,1.332883,1194.254
802,1.334583,1193.062
803,1.336217,1193.062
804,1.3379,1194.403
805,1.33955,1192.242
806,1.341217,1191.05
807,1.342883,1191.05
808,1.344583,1191.05
809,1.346217,1192.018
810,1.347883,1192.838
811,1.34955,1192.838
812,1.351217,1192.614
813,1.352883,1193.881
814,1.35455,1193.881
815,1.356217,1193.881
816,1.357883,1193.062
817,1.35955,1191.422
818,1.361217,1191.422
819,1.362883,1187.921
820,1.36455,1185.387
821,1.366217,1183.972
822,1.367883,1183.972
823,1.369533,1182.556
824,1.3712,1184.717
825,1.372867,1185.611
826,1.374533,1185.611
827,1.3762,1189.783
828,1.377867,1192.987
829,1.379533,1192.987
830,1.3812,1192.614
831,1.382867,1192.689
832,1.384533,1191.944
833,1.3862,1191.944
834,1.387867,1189.113
835,1.389533,1187.25
836,1.3912,1186.654
837,1.392867,1186.654
838,1.394533,1185.76
839,1.3962,1187.846
840,1.397867,1187.623
841,1.399633,1187.623
842,1.4012,1186.058
843,1.402867,1182.109
844,1.404533,1182.109
845,1.4062,1180.992
846,1.4079,1182.482
847,1.409533,1185.685
848,1.4112,1185.685
849,1.412867,1188.815
850,1.414533,1188.666
851,1.4162,1186.877
852,1.417867,1186.877
853,1.419533,1183.599
854,1.4212,1183.078
855,1.422867,1185.462
856,1.424533,1185.462
857,1.4262,1187.324
858,1.427867,1190.528
859,1.429517,1189.932
860,1.431183,1189.932
861,1.43285,1187.921
862,1.434517,1186.877
863,1.436183,1186.877
864,1.43785,1184.121
865,1.439533,1186.281
866,1.441217,1186.058
867,1.44285,1186.058
868,1.444517,1188.07
869,1.446183,1189.262
870,1.44785,1187.026
871,1.449517,1187.026
872,1.451183,1188.815
873,1.45285,1186.43
874,1.454517,1186.952
875,1.456183,1186.952
876,1.45785,1189.709
877,1.459517,1191.199
878,1.461183,1191.199
879,1.46285,1193.062
880,1.464517,1191.124
881,1.466183,1190.975
882,1.46785,1190.975
883,1.469517,1190.007
884,1.471217,1190.901
885,1.47285,1191.646
886,1.474517,1191.646
887,1.476183,1189.187
888,1.47785,1189.113
889,1.479517,1185.909
890,1.481183,1185.909
891,1.48285,1184.717
892,1.4845,1185.76
893,1.486183,1183.152
894,1.48785,1183.152
895,1.4895,1185.089
896,1.491167,1188.964
897,1.492833,1188.964
898,1.4945,1191.124
899,1.496167,1190.901
900,1.497833,1189.783
901,1.4995,1189.783
902,1.501167,1188.591
903,1.502833,1184.27
904,1.5045,1181.364
905,1.506167,1181.364
906,1.507833,1179.278
907,1.5095,1178.011
908,1.511167,1178.533
909,1.512833,1178.533
910,1.5145,1182.556
911,1.516167,1183.897
912,1.51795,1182.929
913,1.5195,1182.929
914,1.521167,1183.301
915,1.522833,1184.27
916,1.524483,1184.27
917,1.52615,1184.344
918,1.527817,1185.015
