"ID","sea_time","fid_signal"
1,0,1327.991
2,0.001717,1327.47
3,0.003333,1327.47
4,0.005,1327.693
5,0.006667,1322.031
6,0.008317,1307.502
7,0.009983000000000001,1307.502
8,0.01165,1287.535
9,0.013317,1272.708
10,0.014983,1264.587
11,0.01665,1264.587
12,0.018383,1272.187
13,0.019983,1286.864
14,0.02165,1286.864
15,0.023317,1294.762
16,0.024983,1300.424
17,0.026633,1302.734
18,0.0283,1302.734
19,0.029967,1306.012
20,0.031633,1309.663
21,0.0333,1309.812
22,0.035067,1309.812
23,0.036633,1308.62
24,0.0383,1309.141
25,0.039967,1310.557
26,0.041633,1310.557
27,0.0433,1310.855
28,0.044967,1312.569
29,0.046633,1312.569
30,0.0483,1314.729
31,0.049967,1312.941
32,0.051633,1316.145
33,0.0533,1316.145
34,0.054983,1316.145
35,0.0567,1314.133
36,0.0583,1314.431
37,0.059967,1314.431
38,0.061633,1313.984
39,0.0633,1316.592
40,0.064967,1318.604
41,0.066633,1318.604
42,0.068283,1320.243
43,0.06995,1318.827
44,0.071617,1318.827
45,0.073283,1317.412
46,0.07495,1317.933
47,0.076617,1319.796
48,0.07828300000000001,1319.796
49,0.07994999999999999,1322.18
50,0.081617,1321.584
51,0.083283,1317.561
52,0.08495,1317.561
53,0.086617,1317.486
54,0.088283,1315.996
55,0.08995,1315.177
56,0.091617,1315.177
57,0.093283,1319.87
58,0.09495000000000001,1320.615
59,0.09661699999999999,1321.063
60,0.098283,1321.063
61,0.09995,1321.063
62,0.101617,1319.349
63,0.103283,1319.349
64,0.10495,1318.529
65,0.106617,1318.827
66,0.108283,1321.957
67,0.10995,1321.957
68,0.111617,1321.435
69,0.113283,1320.243
70,0.11495,1321.957
71,0.116617,1321.957
72,0.118283,1321.584
73,0.119983,1321.584
74,0.121617,1321.51
75,0.123283,1321.51
76,0.12495,1322.105
77,0.126617,1324.192
78,0.1283,1325.16
79,0.129933,1325.16
80,0.1316,1324.192
81,0.133267,1320.392
82,0.134933,1320.392
83,0.13665,1317.71
84,0.138267,1316.145
85,0.139933,1315.996
86,0.1416,1315.996
87,0.143267,1318.008
88,0.144933,1318.082
89,0.1466,1319.721
90,0.148267,1319.721
91,0.149933,1319.945
92,0.1516,1318.529
93,0.153383,1319.423
94,0.154933,1319.423
95,0.1566,1319.945
96,0.158267,1318.902
97,0.159933,1318.902
98,0.1616,1322.404
99,0.163267,1321.957
100,0.164933,1322.031
101,0.1666,1322.031
102,0.168267,1323.447
103,0.169933,1320.615
104,0.1716,1319.721
105,0.173267,1319.721
106,0.174933,1316.369
107,0.1766,1317.933
108,0.178267,1316.816
109,0.179933,1316.816
110,0.1816,1315.325
111,0.183267,1316.518
112,0.184933,1316.518
113,0.1866,1313.388
114,0.18825,1313.239
115,0.189917,1313.537
116,0.191583,1313.537
117,0.19325,1311.6
118,0.194917,1312.196
119,0.196583,1314.729
120,0.1983,1314.729
121,0.199917,1315.027
122,0.201583,1316.667
123,0.20325,1317.561
124,0.204917,1317.561
125,0.206583,1314.357
126,0.20825,1316.145
127,0.209917,1315.549
128,0.211583,1315.549
129,0.21325,1312.643
130,0.214917,1315.027
131,0.216583,1315.027
132,0.21825,1312.941
133,0.219917,1313.463
134,0.221583,1316.816
135,0.22325,1316.816
136,0.224917,1314.431
137,0.226583,1315.474
138,0.22825,1315.177
139,0.229917,1315.177
140,0.231583,1316.22
141,0.23325,1315.773
142,0.234917,1313.09
143,0.236583,1313.09
144,0.23825,1312.271
145,0.239917,1312.494
146,0.241583,1312.494
147,0.24325,1313.09
148,0.244917,1315.474
149,0.246583,1314.58
150,0.24825,1314.58
151,0.2499,1312.271
152,0.251567,1313.537
153,0.25325,1312.196
154,0.2549,1312.196
155,0.256567,1310.781
156,0.258233,1309.291
157,0.2599,1309.887
158,0.261567,1309.887
159,0.263233,1310.185
160,0.2649,1313.686
161,0.266567,1311.079
162,0.268233,1311.079
163,0.2699,1307.8
164,0.271667,1306.981
165,0.273233,1306.981
166,0.2749,1303.405
167,0.276567,1305.64
168,0.278233,1306.459
169,0.2799,1306.459
170,0.281567,1309.887
171,0.283233,1313.016
172,0.2849,1314.208
173,0.286567,1314.208
174,0.288233,1314.953
175,0.2899,1311.824
176,0.291567,1311.079
177,0.293233,1311.079
178,0.2949,1311.749
179,0.296567,1311.973
180,0.298233,1311.973
181,0.2999,1311.302
182,0.301567,1309.961
183,0.303233,1309.812
184,0.3049,1309.812
185,0.306567,1310.632
186,0.308217,1311.153
187,0.309883,1314.208
188,0.31155,1314.208
189,0.313217,1314.58
190,0.314883,1313.686
191,0.316533,1313.984
192,0.3182,1313.984
193,0.319867,1312.345
194,0.321533,1311.749
195,0.3232,1311.749
196,0.324867,1313.165
197,0.326533,1314.58
198,0.3282,1314.133
199,0.329867,1314.133
200,0.331533,1316.071
201,0.3332,1314.878
202,0.334867,1313.835
203,0.336567,1313.835
204,0.3382,1317.114
205,0.339867,1314.804
206,0.341533,1312.345
207,0.3432,1312.345
208,0.344867,1312.047
209,0.346533,1310.855
210,0.3482,1309.887
211,0.349867,1309.887
212,0.351533,1313.016
213,0.3532,1314.953
214,0.354867,1314.953
215,0.356533,1315.996
216,0.3582,1320.019
217,0.359867,1321.807
218,0.361533,1321.807
219,0.3632,1322.478
220,0.364867,1324.043
221,0.366533,1323.968
222,0.368183,1323.968
223,0.36985,1325.533
224,0.371517,1330.078
225,0.3732,1329.78
226,0.37485,1329.78
227,0.376517,1332.834
228,0.378183,1337.528
229,0.37985,1337.528
230,0.381517,1336.113
231,0.383183,1338.273
232,0.38485,1341.254
233,0.386533,1341.254
234,0.388183,1342.967
235,0.389917,1350.716
236,0.391517,1361.296
237,0.393183,1361.296
238,0.39485,1370.013
239,0.396517,1373.44
240,0.398183,1377.538
241,0.39985,1377.538
242,0.401517,1381.561
243,0.403183,1382.306
244,0.40485,1386.479
245,0.406517,1386.479
246,0.408183,1388.341
247,0.40985,1390.576
248,0.411517,1390.576
249,0.413183,1396.537
250,0.41485,1402.274
251,0.416517,1407.415
252,0.418183,1407.415
253,0.41985,1413.003
254,0.421517,1417.1
255,0.423183,1419.187
256,0.42485,1419.187
257,0.426517,1421.72
258,0.428183,1420.453
259,0.429833,1417.175
260,0.4315,1417.175
261,0.433167,1418.516
262,0.434833,1419.857
263,0.4365,1419.857
264,0.438167,1418.963
265,0.439833,1421.571
266,0.4415,1420.528
267,0.443167,1420.528
268,0.444833,1417.249
269,0.4465,1416.877
270,0.448167,1415.908
271,0.449833,1415.908
272,0.4515,1415.536
273,0.453167,1418.889
274,0.454833,1424.998
275,0.4565,1424.998
276,0.458167,1434.833
277,0.459833,1456.663
278,0.4615,1490.712
279,0.463183,1490.712
280,0.464833,1543.984
281,0.4665,1622.438
282,0.468167,1622.438
283,0.469833,1735.166
284,0.4715,1897.812
285,0.473167,2118.722
286,0.4749,2118.722
287,0.4765,2415.404
288,0.478167,2804.026
289,0.479833,3297.254
290,0.4815,3297.254
291,0.483167,3908.724
292,0.484833,4645.586
293,0.486517,5511.567
294,0.48815,5511.567
295,0.489817,6510.69
296,0.491483,7638.186
297,0.49315,7638.186
298,0.494817,8893.683999999999
299,0.496483,10263.398
300,0.49815,11736.229
301,0.499817,11736.229
302,0.501483,13307.407
303,0.50315,14960.318
304,0.504817,16682.596
305,0.506483,16682.596
306,0.508267,18460.527
307,0.509817,20282.791
308,0.511483,22129.641
309,0.51315,22129.641
310,0.514817,23989.305
311,0.516483,25839.582
312,0.51815,25839.582
313,0.519817,27659.908
314,0.521483,29440.15
315,0.52315,31164.959
316,0.524817,31164.959
317,0.526483,32822.641
318,0.52815,34399.852
319,0.529817,35881.176
320,0.531483,35881.176
321,0.53315,37254.168
322,0.534817,38511.453
323,0.536483,39643.496
324,0.53815,39643.496
325,0.539817,40649.027
326,0.541483,41522.906
327,0.54315,42264.238
328,0.544817,42264.238
329,0.5464830000000001,42870.27
330,0.548133,43342.637
331,0.5498,43342.637
332,0.551467,43684.766
333,0.553133,43899.27
334,0.554817,43992.996
335,0.556517,43992.996
336,0.558133,43971.016
337,0.5598,43840.484
338,0.561467,43609.516
339,0.563133,43609.516
340,0.5648,43289.215
341,0.5664670000000001,42886.363
342,0.568133,42413.176
343,0.5698,42413.176
344,0.5714669999999999,41875.094
345,0.573133,41280.613
346,0.5748,41280.613
347,0.576467,40643.586
348,0.578133,39963.797
349,0.5798,39254.426
350,0.581467,39254.426
351,0.583133,38520.918
352,0.5848,37770.719
353,0.586467,37008.301
354,0.588133,37008.301
355,0.5898,36240.367
356,0.591467,35471.469
357,0.593183,34701.602
358,0.5948,34701.602
359,0.596467,33944.027
360,0.598133,33195.766
361,0.5998,32459.646
362,0.601467,32459.646
363,0.603133,31738.281
364,0.6048,31025.707
365,0.606467,31025.707
366,0.6081,30329.748
367,0.6097669999999999,29648.318
368,0.611433,28980.822
369,0.6131,28980.822
370,0.614767,28333.291
371,0.616433,27699.918
372,0.6181,27085.395
373,0.619767,27085.395
374,0.621433,26487.559
375,0.6231,25905.893
376,0.624767,25342.33
377,0.6264999999999999,25342.33
378,0.6281,24793.744
379,0.629767,24263.188
380,0.631433,24263.188
381,0.6331,23746.49
382,0.634767,23241.938
383,0.636433,22756.756
384,0.6381,22756.756
385,0.639767,22281.035
386,0.641433,21821.559
387,0.6431,21376.313
388,0.644767,21376.313
389,0.646433,20941.348
390,0.6481,20523.221
391,0.649767,20115.227
392,0.651433,20115.227
393,0.6531,19720.568
394,0.654767,19339.322
395,0.65645,18969.699
396,0.6581,18969.699
397,0.659767,18612.967
398,0.661433,18268.078
399,0.6631,18268.078
400,0.664767,17930.195
401,0.6664330000000001,17601.475
402,0.668083,17281.846
403,0.66975,17281.846
404,0.671417,16970.857
405,0.673083,16670.377
406,0.67475,16376.823
407,0.676417,16376.823
408,0.678083,16091.764
409,0.67975,15817.955
410,0.6814170000000001,15548.766
411,0.683083,15548.766
412,0.68475,15291.05
413,0.6864170000000001,15042.35
414,0.688083,15042.35
415,0.68975,14795.064
416,0.6914169999999999,14561.191
417,0.693083,14329.255
418,0.69475,14329.255
419,0.696417,14103.576
420,0.6981000000000001,13886.169
421,0.69975,13670.399
422,0.701433,13670.399
423,0.703083,13463.199
424,0.70475,13261.885
425,0.706417,13064.146
426,0.708083,13064.146
427,0.70975,12870.654
428,0.71145,12684.241
429,0.713083,12684.241
430,0.71475,12499.169
431,0.716417,12319.684
432,0.718083,12148.172
433,0.71975,12148.172
434,0.721417,11978.075
435,0.723083,11811.033
436,0.72475,11647.939
437,0.726417,11647.939
438,0.728133,11488.349
439,0.729733,11329.8
440,0.7314000000000001,11179.671
441,0.733067,11179.671
442,0.734733,11035.204
443,0.7364000000000001,10890.29
444,0.738067,10752.827
445,0.739733,10752.827
446,0.7413999999999999,10615.736
447,0.743067,10479.391
448,0.744833,10346.695
449,0.7464,10346.695
450,0.748067,10216.608
451,0.749733,10091.216
452,0.7514,10091.216
453,0.753067,9966.865
454,0.754733,9849.593000000001
455,0.7564,9736.866
456,0.758067,9736.866
457,0.759733,9624.213
458,0.7614,9515.956
459,0.7630670000000001,9405.538
460,0.764733,9405.538
461,0.7664,9295.940000000001
462,0.7680670000000001,9189.620999999999
463,0.769733,9189.620999999999
464,0.7714,9085.610000000001
465,0.7730669999999999,8984.879000000001
466,0.774733,8886.754999999999
467,0.7764,8886.754999999999
468,0.778067,8790.717000000001
469,0.7797500000000001,8696.093999999999
470,0.781417,8602.888000000001
471,0.783067,8602.888000000001
472,0.784733,8511.319
473,0.7864,8422.509
474,0.78805,8336.306
475,0.789717,8336.306
476,0.7913829999999999,8254.126
477,0.79305,8169.785
478,0.794717,8088.723
479,0.796383,8088.723
480,0.79805,8004.531
481,0.799717,7920.936
482,0.801383,7920.936
483,0.80305,7840.768
484,0.804717,7760.897
485,0.806383,7685.944
486,0.80805,7685.944
487,0.809717,7614.643
488,0.811383,7545.874
489,0.8130500000000001,7474.199
490,0.814717,7474.199
491,0.816383,7407.069
492,0.8180500000000001,7338.822
493,0.819717,7270.426
494,0.821383,7270.426
495,0.8230499999999999,7210.448
496,0.824717,7145.554
497,0.826383,7145.554
498,0.82805,7080.585
499,0.82975,7018.67
500,0.831383,6954.446
501,0.83305,6954.446
502,0.834717,6892.905
503,0.836383,6836.354
504,0.83805,6777.644
505,0.839717,6777.644
506,0.841383,6722.436
507,0.84305,6667.972
508,0.8447170000000001,6609.038
509,0.84645,6609.038
510,0.848033,6554.35
511,0.8497,6496.087
512,0.851367,6442.89
513,0.853067,6442.89
514,0.8547,6391.704
515,0.856367,6340.295
516,0.858033,6340.295
517,0.8597,6290.674
518,0.861367,6240.532
519,0.8631,6191.656
520,0.8647,6191.656
521,0.866367,6146.208
522,0.8680330000000001,6099.939
523,0.8697,6056.13
524,0.871367,6056.13
525,0.8730329999999999,6012.395
526,0.8747,5965.382
527,0.876367,5920.753
528,0.878033,5920.753
529,0.879817,5874.038
530,0.881367,5830.601
531,0.883033,5830.601
532,0.884717,5789.846
533,0.886367,5750.433
534,0.888033,5714.521
535,0.8897,5714.521
536,0.891367,5675.629
537,0.893033,5634.501
538,0.8947000000000001,5592.555
539,0.896367,5592.555
540,0.898033,5549.267
541,0.899683,5510.673
542,0.90135,5476.102
543,0.903017,5476.102
544,0.904683,5442.127
545,0.90635,5406.886
546,0.908,5406.886
547,0.909667,5370.229
548,0.9113329999999999,5333.573
549,0.913,5296.469
550,0.914667,5296.469
551,0.916333,5262.568
552,0.918,5230.308
553,0.919667,5194.843
554,0.92135,5194.843
555,0.923,5165.189
556,0.924667,5135.983
557,0.926333,5102.828
558,0.928,5102.828
559,0.929667,5071.089
560,0.931333,5037.114
561,0.9330000000000001,5002.096
562,0.934667,5002.096
563,0.936333,4970.431
564,0.9379999999999999,4940.778
565,0.939667,4940.778
566,0.941333,4913.807
567,0.9429999999999999,4884.303
568,0.944667,4854.5
569,0.946333,4854.5
570,0.948,4825.815
571,0.949667,4796.609
572,0.951333,4768.669
573,0.953,4768.669
574,0.954667,4743.337
575,0.956333,4716.292
576,0.958,4689.247
577,0.959667,4689.247
578,0.961333,4662.797
579,0.963,4637.241
580,0.964717,4611.611
581,0.966333,4611.611
582,0.967983,4585.907
583,0.96965,4562.289
584,0.971317,4562.289
585,0.972983,4538.074
586,0.97465,4513.487
587,0.976317,4487.112
588,0.977983,4487.112
589,0.97965,4463.792
590,0.981383,4438.46
591,0.9829830000000001,4417.077
592,0.98465,4417.077
593,0.986317,4397.481
594,0.9879829999999999,4373.342
595,0.98965,4350.319
596,0.991317,4350.319
597,0.9929829999999999,4329.383
598,0.99465,4309.565
599,0.996317,4309.565
600,0.9981,4289.374
601,0.99965,4269.704
602,1.001317,4245.788
603,1.002983,4245.788
604,1.00465,4222.617
605,1.006317,4202.127
606,1.007983,4180.074
607,1.00965,4180.074
608,1.011317,4161.745
609,1.012983,4141.107
610,1.01465,4120.767
611,1.016317,4120.767
612,1.017983,4103.78
613,1.01965,4088.134
614,1.021317,4088.134
615,1.022983,4072.86
616,1.02465,4057.735
617,1.026317,4036.799
618,1.027967,4036.799
619,1.029633,4015.192
620,1.0313,3993.958
621,1.032967,3972.724
622,1.034633,3972.724
623,1.0363,3958.419
624,1.037967,3941.879
625,1.039633,3926.083
626,1.0413,3926.083
627,1.042967,3907.233
628,1.044633,3888.011
629,1.0463,3868.49
630,1.047967,3868.49
631,1.049633,3851.131
632,1.0513,3837.719
633,1.052967,3837.719
634,1.054633,3824.905
635,1.0563,3812.388
636,1.057967,3794.879
637,1.05965,3794.879
638,1.061317,3779.382
639,1.062967,3759.936
640,1.064633,3744.96
641,1.0663,3744.96
642,1.067967,3730.208
643,1.069633,3713.816
644,1.0713,3702.119
645,1.072967,3702.119
646,1.074633,3683.94
647,1.0763,3669.113
648,1.077967,3669.113
649,1.079633,3653.467
650,1.0813,3636.554
651,1.082983,3622.845
652,1.084633,3622.845
653,1.0863,3610.551
654,1.08795,3600.121
655,1.089617,3588.125
656,1.091283,3588.125
657,1.09295,3575.608
658,1.094617,3561.75
659,1.096283,3546.774
660,1.09795,3546.774
661,1.099617,3532.842
662,1.101283,3520.772
663,1.10295,3520.772
664,1.104617,3505.945
665,1.106283,3493.726
666,1.10795,3482.997
667,1.109617,3482.997
668,1.111283,3467.5
669,1.11295,3453.717
670,1.114617,3437.847
671,1.1164,3437.847
672,1.11795,3421.083
673,1.119617,3409.982
674,1.121283,3399.476
675,1.12295,3399.476
676,1.124617,3388.449
677,1.126283,3379.881
678,1.12795,3371.015
679,1.129617,3371.015
680,1.131283,3361.404
681,1.13295,3354.177
682,1.134617,3354.177
683,1.136283,3342.331
684,1.13795,3328.472
685,1.139617,3316.775
686,1.141283,3316.775
687,1.14295,3303.364
688,1.144617,3294.572
689,1.146283,3284.216
690,1.147933,3284.216
691,1.1496,3271.997
692,1.151267,3262.46
693,1.152933,3251.731
694,1.1546,3251.731
695,1.156267,3240.854
696,1.157933,3231.168
697,1.1596,3231.168
698,1.161267,3217.757
699,1.162933,3204.569
700,1.1646,3196.15
701,1.166267,3196.15
702,1.167933,3187.805
703,1.1696,3179.237
704,1.171267,3167.689
705,1.172933,3167.689
706,1.1746,3155.619
707,1.176267,3145.114
708,1.17795,3136.471
709,1.1796,3136.471
710,1.181267,3128.424
711,1.182933,3118.143
712,1.1846,3111.139
713,1.186267,3111.139
714,1.187933,3100.485
715,1.1896,3091.991
716,1.19125,3091.991
717,1.192917,3083.423
718,1.194583,3071.576
719,1.19625,3064.424
720,1.197917,3064.424
721,1.199583,3054.738
722,1.201283,3046.617
723,1.202917,3037.974
724,1.204583,3037.974
725,1.206233,3028.438
726,1.2079,3020.391
727,1.209567,3014.281
728,1.211233,3014.281
729,1.2129,3005.117
730,1.214567,2997.145
731,1.216233,2997.145
732,1.2179,2990.663
733,1.219567,2980.977
734,1.221233,2975.24
735,1.2229,2975.24
736,1.224567,2966.3
737,1.226233,2958.104
738,1.2279,2951.398
739,1.229567,2951.398
740,1.231233,2942.383
741,1.2329,2936.05
742,1.234683,2925.545
743,1.236233,2925.545
744,1.2379,2913.55
745,1.239567,2904.534
746,1.241233,2895.072
747,1.2429,2895.072
748,1.244567,2890.974
749,1.246233,2887.771
750,1.2479,2887.771
751,1.249567,2879.128
752,1.251233,2874.434
753,1.2529,2865.344
754,1.254567,2865.344
755,1.256233,2856.105
756,1.2579,2852.827
757,1.259567,2843.589
758,1.261233,2843.589
759,1.2629,2835.318
760,1.264567,2829.73
761,1.26625,2819.598
762,1.267883,2819.598
763,1.26955,2811.7
764,1.271217,2804.92
765,1.272883,2804.92
766,1.27455,2797.917
767,1.276267,2792.701
768,1.277883,2787.262
769,1.27955,2787.262
770,1.281217,2781.078
771,1.282883,2774.298
772,1.28455,2767.369
773,1.286217,2767.369
774,1.287883,2762.601
775,1.28955,2758.428
776,1.291217,2750.978
777,1.292883,2750.978
778,1.29455,2744.868
779,1.296217,2738.61
780,1.297883,2738.61
781,1.29955,2732.5
782,1.301217,2727.062
783,1.302883,2722.517
784,1.30455,2722.517
785,1.306217,2714.694
786,1.307883,2707.764
787,1.30955,2701.431
788,1.311217,2701.431
789,1.312883,2693.459
790,1.31455,2687.052
791,1.316217,2679.676
792,1.317883,2679.676
793,1.319633,2673.268
794,1.321217,2667.382
795,1.322883,2664.402
796,1.32455,2664.402
797,1.3262,2658.516
798,1.327867,2652.779
799,1.329533,2652.779
800,1.3312,2644.956
801,1.332867,2636.76
802,1.334533,2630.875
803,1.336217,2630.875
804,1.337867,2626.553
805,1.339533,2621.04
806,1.3412,2615.005
807,1.342883,2615.005
808,1.344533,2611.503
809,1.3462,2607.48
810,1.347883,2606.66
811,1.349533,2606.66
812,1.3512,2601.221
813,1.352967,2595.708
814,1.354533,2595.708
815,1.3562,2588.257
816,1.357867,2580.807
817,1.359533,2578.497
818,1.3612,2578.497
819,1.362867,2573.356
820,1.364533,2565.98
821,1.3662,2557.561
822,1.367867,2557.561
823,1.369533,2547.428
824,1.3712,2539.978
825,1.372867,2539.158
826,1.374533,2539.158
827,1.3762,2535.507
828,1.377867,2532.75
829,1.379533,2527.312
830,1.3812,2527.312
831,1.382867,2519.041
832,1.384533,2514.273
833,1.3862,2514.273
834,1.38785,2507.567
835,1.389517,2505.481
836,1.391183,2502.278
837,1.39285,2502.278
838,1.394517,2496.764
839,1.396183,2492.666
840,1.39785,2485.588
841,1.399517,2485.588
842,1.401183,2479.479
843,1.40285,2477.169
844,1.404517,2474.189
845,1.406183,2474.189
846,1.40785,2470.836
847,1.409517,2468.75
848,1.4112,2468.75
849,1.41285,2466.142
850,1.414517,2462.044
851,1.416183,2456.457
852,1.41785,2456.457
853,1.419517,2447.292
854,1.421183,2439.544
855,1.42285,2436.787
856,1.424517,2436.787
857,1.426183,2432.838
858,1.42785,2430.305
859,1.429517,2426.58
860,1.431183,2426.58
861,1.43285,2420.843
862,1.434517,2416.149
863,1.436183,2411.231
864,1.437917,2411.231
865,1.439517,2408.475
866,1.441183,2405.494
867,1.44285,2405.494
868,1.444517,2402.663
869,1.446183,2400.502
870,1.447833,2397.299
871,1.4495,2397.299
872,1.451167,2390.519
873,1.452833,2385.899
874,1.4545,2380.46
875,1.456167,2380.46
876,1.457833,2371.892
877,1.4595,2369.657
878,1.461167,2368.018
879,1.46285,2368.018
880,1.4645,2365.932
881,1.466167,2364.591
882,1.467833,2364.591
883,1.4695,2360.865
884,1.4713,2356.917
885,1.472833,2351.478
886,1.4745,2351.478
887,1.476167,2350.733
888,1.477833,2345.89
889,1.4795,2340.972
890,1.481167,2340.972
891,1.482817,2337.247
892,1.484483,2329.052
893,1.48615,2327.71
894,1.48785,2327.71
895,1.489483,2325.326
896,1.49115,2322.271
897,1.492817,2322.271
898,1.494483,2319.664
899,1.49615,2312.213
900,1.497817,2304.316
901,1.499483,2304.316
902,1.50115,2301.41
903,1.502817,2299.026
904,1.504483,2295.747
905,1.50615,2295.747
906,1.5078,2296.344
907,1.509467,2291.203
908,1.511133,2286.583
909,1.5128,2286.583
