"ID","sea_time","fid_signal"
1,0,1315.549
2,0.00165,1315.549
3,0.003317,1316.816
4,0.004983,1320.317
5,0.00665,1320.466
6,0.008317,1320.466
7,0.01,1307.577
8,0.01165,1291.335
9,0.013333,1291.335
10,0.014983,1278.371
11,0.01665,1271.367
12,0.018317,1278.669
13,0.019983,1278.669
14,0.02165,1289.994
15,0.023317,1297.295
16,0.024983,1300.573
17,0.02665,1300.573
18,0.028317,1303.181
19,0.030083,1306.981
20,0.03165,1311.377
21,0.033317,1311.377
22,0.034983,1314.282
23,0.03665,1315.549
24,0.038317,1315.549
25,0.039983,1315.624
26,0.04165,1314.357
27,0.043317,1316.965
28,0.044983,1316.965
29,0.04675,1317.561
30,0.048317,1316.816
31,0.05,1315.549
32,0.05165,1315.549
33,0.053317,1315.4
34,0.054983,1315.624
35,0.05665,1314.953
36,0.058317,1314.953
37,0.059983,1315.922
38,0.061633,1317.114
39,0.06338299999999999,1320.317
40,0.064967,1320.317
41,0.066633,1326.129
42,0.0683,1328.066
43,0.069967,1328.066
44,0.071633,1327.843
45,0.0733,1325.458
46,0.07496700000000001,1321.51
47,0.07663300000000001,1321.51
48,0.07829999999999999,1320.317
49,0.079967,1318.678
50,0.081633,1321.211
51,0.083317,1321.211
52,0.084967,1323.968
53,0.086633,1324.862
54,0.0883,1324.713
55,0.08996700000000001,1324.713
56,0.09163300000000001,1322.553
57,0.09329999999999999,1320.094
58,0.094967,1320.094
59,0.096633,1317.561
60,0.0983,1313.91
61,0.099967,1316.071
62,0.101633,1316.071
63,0.1033,1315.027
64,0.104967,1314.133
65,0.106633,1317.337
66,0.1083,1317.337
67,0.109967,1316.518
68,0.111633,1316.816
69,0.1133,1319.125
70,0.114967,1319.125
71,0.116633,1318.455
72,0.1183,1319.945
73,0.119967,1319.945
74,0.121617,1323.968
75,0.123283,1325.905
76,0.12495,1327.395
77,0.126617,1327.395
78,0.128283,1322.478
79,0.12995,1322.105
80,0.131617,1320.69
81,0.133283,1320.69
82,0.13495,1323.596
83,0.136617,1325.384
84,0.138283,1324.862
85,0.13995,1324.862
86,0.141617,1323.968
87,0.143283,1319.572
88,0.14495,1318.604
89,0.146617,1318.604
90,0.14835,1315.698
91,0.14995,1315.102
92,0.151633,1315.102
93,0.153283,1317.784
94,0.15495,1321.137
95,0.156617,1323
96,0.158283,1323
97,0.15995,1324.043
98,0.161617,1324.341
99,0.163283,1323.447
100,0.165017,1323.447
101,0.166617,1321.435
102,0.168283,1323.149
103,0.16995,1321.807
104,0.171617,1321.807
105,0.173283,1323.074
106,0.17495,1323.372
107,0.176617,1323.372
108,0.178283,1320.317
109,0.17995,1322.18
110,0.181717,1322.329
111,0.183267,1322.329
112,0.184933,1324.043
113,0.1866,1322.851
114,0.188267,1318.827
115,0.189933,1318.827
116,0.1916,1317.337
117,0.193267,1318.38
118,0.194933,1320.168
119,0.1966,1320.168
120,0.198283,1320.988
121,0.199933,1320.541
122,0.2016,1320.839
123,0.203267,1320.839
124,0.204933,1323.894
125,0.2066,1323.372
126,0.208267,1323.372
127,0.209933,1321.063
128,0.2116,1317.635
129,0.213267,1312.941
130,0.214933,1312.941
131,0.2166,1311.451
132,0.218267,1314.059
133,0.219933,1313.984
134,0.2216,1313.984
135,0.223267,1315.773
136,0.224933,1318.306
137,0.226583,1316.592
138,0.22825,1316.592
139,0.229917,1316.741
140,0.231583,1318.753
141,0.23325,1318.753
142,0.234917,1318.082
143,0.236583,1317.859
144,0.23825,1317.039
145,0.239917,1317.039
146,0.241567,1315.698
147,0.243233,1318.231
148,0.2449,1317.859
149,0.246567,1317.859
150,0.248233,1320.839
151,0.2499,1318.827
152,0.251567,1312.941
153,0.253233,1312.941
154,0.2549,1312.792
155,0.256567,1309.216
156,0.258233,1309.216
157,0.2599,1311.898
158,0.261567,1318.455
159,0.263233,1320.839
160,0.2649,1320.839
161,0.266617,1322.776
162,0.268233,1320.764
163,0.2699,1318.082
164,0.271567,1318.082
165,0.273233,1312.271
166,0.2749,1308.62
167,0.276567,1308.173
168,0.278233,1308.173
169,0.2799,1306.906
170,0.281567,1309.812
171,0.283283,1312.494
172,0.2849,1312.494
173,0.286567,1314.059
174,0.288233,1313.984
175,0.2899,1313.984
176,0.291567,1312.271
177,0.293233,1311.228
178,0.2949,1310.185
179,0.296567,1310.185
180,0.298233,1310.334
181,0.300033,1311.675
182,0.30155,1312.42
183,0.303217,1312.42
184,0.304883,1314.059
185,0.30655,1311.6
186,0.308217,1312.122
187,0.309883,1312.122
188,0.31155,1315.177
189,0.313217,1315.251
190,0.314883,1315.251
191,0.31655,1316.145
192,0.318217,1317.263
193,0.319883,1314.878
194,0.32155,1314.878
195,0.323217,1313.835
196,0.324883,1315.4
197,0.32655,1314.282
198,0.328217,1314.282
199,0.329883,1313.835
200,0.33155,1315.251
201,0.333217,1315.325
202,0.334883,1315.325
203,0.33655,1314.506
204,0.338217,1315.4
205,0.339883,1316.443
206,0.34155,1316.443
207,0.343217,1315.847
208,0.344883,1318.753
209,0.34655,1318.753
210,0.348217,1321.137
211,0.349883,1318.455
212,0.35155,1320.988
213,0.353217,1320.988
214,0.354883,1321.658
215,0.35655,1320.541
216,0.358217,1321.063
217,0.359883,1321.063
218,0.361533,1319.87
219,0.3632,1320.392
220,0.3649,1321.137
221,0.366533,1321.137
222,0.3682,1322.255
223,0.369867,1326.65
224,0.371533,1326.65
225,0.3732,1330.003
226,0.374867,1333.579
227,0.376533,1339.167
228,0.3782,1339.167
229,0.379867,1342.818
230,0.381533,1346.99
231,0.3832,1351.759
232,0.384867,1351.759
233,0.386533,1356.9
234,0.3882,1362.413
235,0.389867,1364.946
236,0.391533,1364.946
237,0.3932,1371.205
238,0.394867,1375.75
239,0.396533,1377.836
240,0.3982,1377.836
241,0.399867,1384.02
242,0.401533,1385.957
243,0.4032,1385.957
244,0.404867,1390.129
245,0.406533,1394.451
246,0.4082,1399.964
247,0.409867,1399.964
248,0.411533,1407.489
249,0.4132,1413.45
250,0.414867,1420.006
251,0.416533,1420.006
252,0.4183,1423.731
253,0.419867,1426.339
254,0.421517,1427.457
255,0.423183,1427.457
256,0.42485,1430.064
257,0.426517,1430.809
258,0.428183,1430.809
259,0.42985,1432.672
260,0.431517,1434.386
261,0.433183,1433.417
262,0.43485,1433.417
263,0.436517,1434.237
264,0.4382,1435.652
265,0.439933,1438.707
266,0.441517,1438.707
267,0.443183,1442.581
268,0.44485,1443.55
269,0.446517,1444.668
270,0.448183,1444.668
271,0.44985,1448.542
272,0.451517,1459.569
273,0.4532,1478.046
274,0.45485,1478.046
275,0.456517,1507.774
276,0.458183,1557.693
277,0.45985,1557.693
278,0.461517,1633.465
279,0.463183,1754.388
280,0.46485,1930.967
281,0.466517,1930.967
282,0.468183,2178.252
283,0.46985,2512.708
284,0.471517,2954.379
285,0.473183,2954.379
286,0.47485,3521.74
287,0.476517,4230.887
288,0.478183,5104.765
289,0.47985,5104.765
290,0.4815,6141.588
291,0.483167,7349.998
292,0.484833,7349.998
293,0.4865,8731.558999999999
294,0.488167,10277.629
295,0.489833,11991.188
296,0.4915,11991.188
297,0.493167,13859.049
298,0.494833,15875.25
299,0.4965,18027.426
300,0.498167,18027.426
301,0.499833,20303.354
302,0.5014999999999999,22692.531
303,0.503217,25171.861
304,0.504833,25171.861
305,0.5065,27731.807
306,0.508167,30355.826
307,0.50985,33023.059
308,0.511517,33023.059
309,0.513167,35718.605
310,0.514817,38418.695
311,0.516483,38418.695
312,0.51815,41102.543
313,0.519817,43752.492
314,0.521483,46359.078
315,0.52315,46359.078
316,0.524817,48905.09
317,0.526483,51376.82
318,0.52815,53762.496
319,0.529817,53762.496
320,0.531483,56048.559
321,0.53315,58225.395
322,0.534817,60286.371
323,0.5366,60286.371
324,0.53815,62229.781
325,0.539817,64041.613
326,0.541467,64041.613
327,0.543133,65720.602
328,0.5448,67263.398
329,0.546467,68658.141
330,0.548133,68658.141
331,0.5498,69900.008
332,0.551467,70984.06299999999
333,0.553133,71901.234
334,0.5548,71901.234
335,0.556467,72644.352
336,0.558133,73216.859
337,0.5598,73609.875
338,0.561467,73609.875
339,0.563133,73813.20299999999
340,0.5648,73830.18799999999
341,0.5664670000000001,73830.18799999999
342,0.568133,73654.648
343,0.5698,73287.039
344,0.5714669999999999,72737.414
345,0.573133,72737.414
346,0.5748,72011.05499999999
347,0.576467,71112.883
348,0.578133,70065.70299999999
349,0.5798,70065.70299999999
350,0.581467,68880.54700000001
351,0.583133,67576.242
352,0.58485,66173.523
353,0.5865,66173.523
354,0.588133,64683.109
355,0.5898,63133.613
356,0.591467,61539.262
357,0.593133,61539.262
358,0.5948,59918.238
359,0.596467,58287.234
360,0.598133,58287.234
361,0.5998,56651.906
362,0.60145,55027.457
363,0.603117,53422.527
364,0.604783,53422.527
365,0.60645,51844.863
366,0.608117,50298.645
367,0.609783,48790.5
368,0.61145,48790.5
369,0.613117,47326.238
370,0.614783,45909.063
371,0.6164500000000001,44543.371
372,0.618117,44543.371
373,0.619783,43227.227
374,0.621517,41956.379
375,0.623117,41956.379
376,0.624783,40731.207
377,0.62645,39555.805
378,0.6281330000000001,38425.551
379,0.629783,38425.551
380,0.63145,37342.457
381,0.633117,36297.887
382,0.634783,35292.582
383,0.63645,35292.582
384,0.638117,34323.93
385,0.639783,33392.535
386,0.64145,32499.73
387,0.643117,32499.73
388,0.644783,31639.189
389,0.64645,30808.896
390,0.6481170000000001,30006.244
391,0.649783,30006.244
392,0.65145,29234.887
393,0.6531169999999999,28494.672
394,0.654883,28494.672
395,0.65645,27783.588
396,0.658117,27098.879
397,0.659783,26437.863
398,0.661433,26437.863
399,0.6631,25797.635
400,0.664817,25185.271
401,0.6664330000000001,24594.738
402,0.6681,24594.738
403,0.669767,24026.633
404,0.6714329999999999,23479.09
405,0.6731,22947.268
406,0.674767,22947.268
407,0.676433,22436.23
408,0.6781,21942.854
409,0.679767,21942.854
410,0.681433,21470.264
411,0.6831,21013.99
412,0.684767,20573.289
413,0.686433,20573.289
414,0.6881,20148.531
415,0.689767,19735.619
416,0.691433,19336.268
417,0.6931,19336.268
418,0.694767,18949.658
419,0.696433,18574.818
420,0.6981000000000001,18210.783
421,0.699767,18210.783
422,0.701433,17862.395
423,0.7030999999999999,17524.51
424,0.704767,17524.51
425,0.706433,17196.834
426,0.7081,16879.217
427,0.709767,16569.793
428,0.711433,16569.793
429,0.7131,16271.621
430,0.714767,15984.923
431,0.716433,15707.389
432,0.7181,15707.389
433,0.719767,15435.74
434,0.721417,15171.543
435,0.723083,14913.008
436,0.72475,14913.008
437,0.726417,14659.315
438,0.728117,14416.65
439,0.72975,14178.38
440,0.731417,14178.38
441,0.733083,13947.487
442,0.73475,13728.961
443,0.736417,13728.961
444,0.738083,13513.118
445,0.7398,13305.992
446,0.741417,13103.709
447,0.743083,13103.709
448,0.74475,12904.405
449,0.746417,12710.914
450,0.7480830000000001,12524.128
451,0.74975,12524.128
452,0.751417,12343.601
453,0.7530829999999999,12167.171
454,0.75475,11997.223
455,0.756417,11997.223
456,0.758083,11828.318
457,0.75975,11662.841
458,0.761417,11662.841
459,0.763083,11501.163
460,0.76475,11342.466
461,0.766417,11188.909
462,0.768083,11188.909
463,0.76975,11039.228
464,0.771417,10893.494
465,0.7732,10747.909
466,0.77475,10747.909
467,0.776417,10607.615
468,0.778083,10472.089
469,0.7797500000000001,10337.159
470,0.7814,10337.159
471,0.783067,10209.903
472,0.784733,10081.604
473,0.7864,9955.466
474,0.788067,9955.466
475,0.789733,9833.201999999999
476,0.7914,9712.428
477,0.793067,9712.428
478,0.794733,9597.912
479,0.7964,9486.303
480,0.798067,9380.877
481,0.799733,9380.877
482,0.801433,9276.494000000001
483,0.803067,9173.975
484,0.804733,9072.870000000001
485,0.806383,9072.870000000001
486,0.80805,8972.213
487,0.809717,8872.300999999999
488,0.811383,8770.823
489,0.8130500000000001,8770.823
490,0.814717,8671.806
491,0.816383,8573.904
492,0.8180500000000001,8573.904
493,0.819717,8483.454
494,0.8214,8395.091
495,0.8230499999999999,8307.620999999999
496,0.824717,8307.620999999999
497,0.826383,8222.535
498,0.82805,8137.673
499,0.829717,8056.313
500,0.831383,8056.313
501,0.83305,7976.815
502,0.834717,7897.317
503,0.836383,7818.341
504,0.83805,7818.341
505,0.839717,7742.271
506,0.841367,7665.828
507,0.843033,7665.828
508,0.8447,7591.993
509,0.846367,7516.518
510,0.848033,7444.471
511,0.8497,7444.471
512,0.851367,7375.628
513,0.853033,7305.89
514,0.8547,7238.537
515,0.856367,7238.537
516,0.858067,7169.694
517,0.8597,7101.745
518,0.861367,7038.787
519,0.8630330000000001,7038.787
520,0.8647,6979.406
521,0.866367,6919.95
522,0.8680330000000001,6859.228
523,0.869733,6859.228
524,0.871367,6796.494
525,0.8730329999999999,6734.58
526,0.8747,6734.58
527,0.876367,6675.124
528,0.878033,6621.256
529,0.8797,6571.188
530,0.881367,6571.188
531,0.883033,6518.29
532,0.8847,6464.646
533,0.886367,6412.044
534,0.888033,6412.044
535,0.8897,6358.176
536,0.891483,6307.587
537,0.893033,6260.201
538,0.8947000000000001,6260.201
539,0.896367,6208.42
540,0.898033,6160.885
541,0.8997000000000001,6160.885
542,0.90135,6114.468
543,0.903017,6066.71
544,0.904683,6020.367
545,0.90635,6020.367
546,0.908017,5973.578
547,0.909683,5927.011
548,0.91135,5881.042
549,0.913017,5881.042
550,0.9147,5839.393
551,0.91635,5797.148
552,0.918017,5754.009
553,0.919683,5754.009
554,0.92135,5713.18
555,0.923017,5669.892
556,0.924683,5627.796
557,0.92635,5627.796
558,0.928017,5590.692
559,0.929683,5552.917
560,0.93135,5552.917
561,0.933017,5518.124
562,0.934683,5482.584
563,0.93635,5445.555
564,0.938017,5445.555
565,0.939683,5409.047
566,0.94135,5373.88
567,0.943033,5339.458
568,0.9446830000000001,5339.458
569,0.94635,5308.166
570,0.948017,5274.415
571,0.9496830000000001,5240.292
572,0.95135,5240.292
573,0.953017,5204.901
574,0.9546829999999999,5166.083
575,0.95635,5166.083
576,0.958017,5131.14
577,0.959667,5097.762
578,0.961333,5068.183
579,0.963,5068.183
580,0.9646670000000001,5037.561
581,0.966333,5007.833
582,0.968,4979.968
583,0.9696669999999999,4979.968
584,0.971333,4950.091
585,0.973,4923.344
586,0.974667,4895.181
587,0.976383,4895.181
588,0.978,4862.771
589,0.979667,4830.957
590,0.981333,4800.707
591,0.983,4800.707
592,0.984667,4772.619
593,0.986333,4745.424
594,0.988,4745.424
595,0.989667,4718.453
596,0.991333,4690.587
597,0.993,4664.958
598,0.994667,4664.958
599,0.996333,4640.445
600,0.998,4616.976
601,0.999667,4594.997
602,1.001333,4594.997
603,1.003,4570.261
604,1.004667,4544.705
605,1.006333,4519.299
606,1.008,4519.299
607,1.009767,4494.265
608,1.011333,4471.466
609,1.013,4471.466
610,1.014667,4448.294
611,1.016333,4426.092
612,1.018,4399.643
613,1.019667,4399.643
614,1.021333,4372.895
615,1.022983,4349.202
616,1.02465,4326.329
617,1.02645,4326.329
618,1.027983,4306.51
619,1.02965,4289.299
620,1.031333,4268.736
621,1.032983,4268.736
622,1.03465,4247.65
623,1.036317,4224.852
624,1.037983,4202.873
625,1.03965,4202.873
626,1.041317,4184.991
627,1.042983,4167.929
628,1.04465,4167.929
629,1.046317,4150.793
630,1.047983,4131.124
631,1.04965,4109.964
632,1.051317,4109.964
633,1.052983,4087.761
634,1.05465,4067.942
635,1.056317,4047.006
636,1.057983,4047.006
637,1.05965,4029.125
638,1.061317,4012.063
639,1.062983,3994.778
640,1.06465,3994.778
641,1.066317,3979.206
642,1.067983,3961.474
643,1.06965,3961.474
644,1.071317,3942.847
645,1.072983,3925.189
646,1.07465,3909.394
647,1.076317,3909.394
648,1.077983,3891.289
649,1.079633,3874.451
650,1.0813,3859.401
651,1.083,3859.401
652,1.084633,3844.723
653,1.0863,3829.748
654,1.087967,3814.548
655,1.089633,3814.548
656,1.0913,3798.157
657,1.092967,3782.213
658,1.094633,3782.213
659,1.096283,3767.684
660,1.09795,3752.41
661,1.099617,3736.988
662,1.101283,3736.988
663,1.10295,3722.087
664,1.104617,3703.982
665,1.106283,3692.135
666,1.10795,3692.135
667,1.109617,3679.618
668,1.11135,3663.227
669,1.11295,3651.977
670,1.114617,3651.977
671,1.116283,3638.64
672,1.11795,3620.684
673,1.119617,3604.814
674,1.121283,3604.814
675,1.12295,3590.733
676,1.124617,3575.832
677,1.126283,3575.832
678,1.128017,3563.315
679,1.129617,3551.543
680,1.131283,3540.814
681,1.13295,3540.814
682,1.134617,3527.328
683,1.136283,3514.811
684,1.13795,3501.177
685,1.139617,3501.177
686,1.141267,3485.605
687,1.142933,3471.523
688,1.144717,3461.167
689,1.146267,3461.167
690,1.147933,3450.96
691,1.1496,3441.051
692,1.151267,3441.051
693,1.152933,3429.13
694,1.1546,3416.091
695,1.156267,3403.798
696,1.157967,3403.798
697,1.159667,3390.014
698,1.161267,3380.478
699,1.162933,3369.376
700,1.1646,3369.376
701,1.166267,3357.083
702,1.167933,3345.981
703,1.1696,3333.092
704,1.171267,3333.092
705,1.172933,3323.406
706,1.1746,3311.932
707,1.176267,3299.49
708,1.177933,3299.49
709,1.1796,3287.718
710,1.181267,3276.169
711,1.182933,3276.169
712,1.1846,3266.707
713,1.186267,3256.053
714,1.187933,3244.206
715,1.1896,3244.206
716,1.191267,3232.285
717,1.192933,3219.917
718,1.1946,3211.573
719,1.196267,3211.573
720,1.197933,3204.793
721,1.1996,3196.374
722,1.201267,3188.327
723,1.202917,3188.327
724,1.204583,3177.598
725,1.206267,3166.869
726,1.207917,3166.869
727,1.209583,3156.811
728,1.21125,3146.231
729,1.212917,3135.577
730,1.214583,3135.577
731,1.21625,3127.307
732,1.21795,3118.44
733,1.219583,3110.692
734,1.22125,3110.692
735,1.222933,3101.677
736,1.224583,3090.724
737,1.22625,3081.486
738,1.227917,3081.486
739,1.2296,3071.353
740,1.23125,3062.636
741,1.232917,3052.726
742,1.234583,3052.726
743,1.23625,3045.201
744,1.237917,3036.335
745,1.239583,3036.335
746,1.24125,3027.543
747,1.242917,3020.018
748,1.244583,3010.407
749,1.246283,3010.407
750,1.247917,3001.615
751,1.249583,2996.4
752,1.25125,2992.079
753,1.252917,2992.079
754,1.254583,2982.318
755,1.25625,2975.613
756,1.257917,2966.002
757,1.259583,2966.002
758,1.26125,2956.167
759,1.263033,2947.897
760,1.264567,2947.897
761,1.266233,2940.148
762,1.2679,2932.325
763,1.269567,2923.31
764,1.271233,2923.31
765,1.2729,2917.573
766,1.274567,2912.134
767,1.276233,2906.993
768,1.2779,2906.993
769,1.279567,2897.605
770,1.281233,2888.367
771,1.2829,2878.83
772,1.284567,2878.83
773,1.286233,2870.038
774,1.2879,2865.717
775,1.289567,2865.717
776,1.291233,2859.533
777,1.292917,2851.337
778,1.294567,2847.165
779,1.296233,2847.165
780,1.2979,2840.608
781,1.299567,2834.499
782,1.301233,2828.538
783,1.3029,2828.538
784,1.304567,2816.021
785,1.306233,2807.528
786,1.3079,2800.226
787,1.309567,2800.226
788,1.311233,2793.595
789,1.3129,2792.254
790,1.314567,2785.772
791,1.316233,2785.772
792,1.3179,2779.812
793,1.319567,2772.734
794,1.321233,2772.734
795,1.322883,2762.452
796,1.32455,2755.225
797,1.326217,2748.221
798,1.327883,2748.221
799,1.32955,2743.155
800,1.331217,2736.747
801,1.332883,2733.543
802,1.33455,2733.543
803,1.336217,2727.657
804,1.337883,2719.536
805,1.33955,2713.948
806,1.341217,2713.948
807,1.342883,2707.094
808,1.34455,2699.047
809,1.346217,2699.047
810,1.34795,2692.342
811,1.34955,2687.797
812,1.351217,2684.668
813,1.352883,2684.668
814,1.35455,2680.123
815,1.356217,2675.503
816,1.357883,2666.712
817,1.35955,2666.712
818,1.361217,2657.697
819,1.362883,2652.183
820,1.364567,2645.18
821,1.366217,2645.18
822,1.367883,2639.219
823,1.36955,2631.098
824,1.371217,2622.604
825,1.372883,2622.604
826,1.37455,2618.134
827,1.376217,2613.664
828,1.377883,2613.664
829,1.37955,2610.087
830,1.381333,2605.319
831,1.382867,2601.37
832,1.384533,2601.37
833,1.3862,2597.198
834,1.38785,2590.418
835,1.389517,2588.034
836,1.391183,2588.034
837,1.39285,2583.712
838,1.394517,2578.125
839,1.396183,2574.325
840,1.39785,2574.325
841,1.399517,2569.854
842,1.401183,2562.776
843,1.40285,2562.776
844,1.404517,2558.008
845,1.406183,2553.165
846,1.40785,2546.087
847,1.409517,2546.087
848,1.411183,2541.766
849,1.41285,2535.433
850,1.414517,2529.621
851,1.416183,2529.621
852,1.41785,2525.896
853,1.419517,2520.531
854,1.421183,2515.465
855,1.42285,2515.465
856,1.424517,2512.112
857,1.426183,2505.481
858,1.42785,2499.893
859,1.429517,2499.893
860,1.431183,2499.446
861,1.43285,2494.082
862,1.434517,2494.082
863,1.436183,2489.388
864,1.437867,2484.396
865,1.439517,2479.032
866,1.441167,2479.032
867,1.442833,2475.232
868,1.4445,2472.55
869,1.446167,2469.346
870,1.447833,2469.346
871,1.4495,2466.068
872,1.451167,2460.331
873,1.452833,2454.817
874,1.4545,2454.817
875,1.456167,2450.272
876,1.457833,2442.226
877,1.4595,2442.226
878,1.461167,2438.649
879,1.462833,2435.52
880,1.4645,2432.167
881,1.466233,2432.167
882,1.467833,2430.826
883,1.4695,2429.709
884,1.471167,2425.76
885,1.472833,2425.76
886,1.4745,2420.545
887,1.476167,2413.615
888,1.477833,2404.824
889,1.479533,2404.824
890,1.481167,2399.608
891,1.482833,2394.468
892,1.4845,2394.468
893,1.486167,2392.978
894,1.487833,2391.562
895,1.4895,2389.327
896,1.491167,2389.327
897,1.492833,2387.017
898,1.4945,2380.684
899,1.496167,2376.214
900,1.497833,2376.214
901,1.499583,2370.775
902,1.50115,2365.708
903,1.502817,2362.952
904,1.504483,2362.952
905,1.50615,2359.599
906,1.507817,2354.532
