"ID","sea_time","fid_signal"
1,0,1185.536
2,0.00165,1182.631
3,0.003317,1182.631
4,0.004983,1181.662
5,0.00665,1181.662
6,0.008317,1179.948
7,0.009983000000000001,1177.937
8,0.01165,1176.596
9,0.013317,1176.596
10,0.014983,1177.564
11,0.01665,1181.066
12,0.018317,1185.536
13,0.019983,1185.536
14,0.02165,1189.56
15,0.023317,1191.348
16,0.024967,1191.348
17,0.026633,1191.348
18,0.0283,1185.685
19,0.029967,1185.313
20,0.031633,1185.313
21,0.0333,1182.929
22,0.034967,1182.556
23,0.0367,1186.43
24,0.0383,1186.43
25,0.039967,1184.568
26,0.041633,1184.791
27,0.0433,1183.748
28,0.044967,1183.748
29,0.046633,1185.536
30,0.0483,1184.642
31,0.049967,1184.642
32,0.05165,1183.972
33,0.053333,1182.258
34,0.054967,1178.756
35,0.056633,1178.756
36,0.0583,1178.384
37,0.059967,1176.149
38,0.061633,1175.776
39,0.0633,1175.776
40,0.064967,1176.074
41,0.066633,1177.415
42,0.0683,1180.097
43,0.070033,1180.097
44,0.071633,1180.246
45,0.0733,1181.662
46,0.07496700000000001,1183.003
47,0.07663300000000001,1183.003
48,0.07829999999999999,1184.27
49,0.079967,1184.419
50,0.081633,1184.419
51,0.0833,1182.929
52,0.08495,1180.843
53,0.086617,1178.756
54,0.088283,1178.756
55,0.08995,1178.384
56,0.091617,1180.545
57,0.093283,1180.917
58,0.09495000000000001,1180.917
59,0.09661699999999999,1183.078
60,0.098283,1187.026
61,0.09995,1186.207
62,0.101617,1186.207
63,0.103283,1185.536
64,0.10495,1182.556
65,0.106617,1182.556
66,0.108283,1178.98
67,0.10995,1177.117
68,0.111617,1177.341
69,0.113283,1177.341
70,0.11495,1180.172
71,0.116617,1180.023
72,0.118283,1180.843
73,0.119983,1180.843
74,0.121633,1180.172
75,0.123283,1180.693
76,0.12495,1180.47
77,0.126617,1180.47
78,0.128283,1179.129
79,0.12995,1178.011
80,0.131617,1176
81,0.133283,1176
82,0.13495,1176.447
83,0.136617,1178.309
84,0.138283,1178.309
85,0.13995,1179.427
86,0.141617,1179.874
87,0.143283,1180.321
88,0.144933,1180.321
89,0.1466,1179.948
90,0.148267,1180.768
91,0.149933,1179.948
92,0.1516,1179.948
93,0.153267,1178.756
94,0.154967,1180.768
95,0.1566,1180.396
96,0.158267,1180.396
97,0.159933,1180.693
98,0.1616,1183.376
99,0.163267,1183.376
100,0.164933,1183.674
101,0.1666,1184.493
102,0.168267,1183.45
103,0.169933,1183.45
104,0.1716,1181.737
105,0.173267,1179.501
106,0.174933,1177.117
107,0.1766,1177.117
108,0.178267,1179.874
109,0.179933,1182.184
110,0.1816,1183.525
111,0.183267,1183.525
112,0.184933,1185.834
113,0.1866,1181.29
114,0.1884,1177.415
115,0.189933,1177.415
116,0.1916,1176.67
117,0.193267,1175.106
118,0.194933,1175.106
119,0.1966,1177.862
120,0.198283,1177.117
121,0.199933,1175.627
122,0.2016,1175.627
123,0.20325,1176
124,0.204917,1174.957
125,0.206583,1176.521
126,0.20825,1176.521
127,0.209917,1176.149
128,0.211583,1178.98
129,0.21325,1179.948
130,0.214917,1179.948
131,0.216583,1178.16
132,0.21825,1177.862
133,0.219917,1177.862
134,0.221583,1174.51
135,0.22325,1174.882
136,0.224917,1175.031
137,0.226583,1175.031
138,0.228267,1172.87
139,0.229917,1174.063
140,0.231583,1174.733
141,0.23325,1174.733
142,0.234917,1175.329
143,0.236583,1178.384
144,0.23825,1177.415
145,0.239917,1177.415
146,0.241583,1176.447
147,0.24325,1178.309
148,0.244917,1177.341
149,0.246583,1177.341
150,0.24825,1178.905
151,0.249917,1179.203
152,0.251583,1179.203
153,0.25325,1179.501
154,0.254917,1180.321
155,0.256583,1179.576
156,0.25825,1179.576
157,0.259917,1181.96
158,0.261583,1183.823
159,0.263233,1184.27
160,0.264917,1184.27
161,0.266633,1184.121
162,0.268233,1181.513
163,0.2699,1179.576
164,0.271567,1179.576
165,0.27325,1176.894
166,0.2749,1177.117
167,0.27655,1177.117
168,0.278217,1176.074
169,0.279883,1176.149
170,0.28155,1177.937
171,0.283217,1177.937
172,0.284883,1174.807
173,0.28655,1175.404
174,0.288217,1174.659
175,0.289933,1174.659
176,0.29155,1172.349
177,0.293217,1172.349
178,0.294883,1172.945
179,0.29655,1172.945
180,0.298217,1169.443
181,0.299883,1173.988
182,0.30155,1173.988
183,0.303217,1173.69
184,0.304883,1173.466
185,0.30665,1174.286
186,0.308217,1174.286
187,0.309883,1169.145
188,0.31155,1168.027
189,0.313217,1167.729
190,0.314883,1167.729
191,0.31655,1171.678
192,0.318217,1175.702
193,0.319883,1181.364
194,0.32155,1181.364
195,0.323217,1182.631
196,0.324867,1183.152
197,0.326533,1180.619
198,0.3282,1180.619
199,0.329867,1179.65
200,0.331533,1182.333
201,0.3332,1182.333
202,0.334867,1181.513
203,0.336533,1189.485
204,0.3382,1192.987
205,0.339867,1192.987
206,0.341583,1195.893
207,0.3432,1204.908
208,0.344867,1209.825
209,0.346533,1209.825
210,0.3482,1217.127
211,0.349867,1228.154
212,0.351533,1236.424
213,0.3532,1236.424
214,0.354867,1252.219
215,0.356533,1267.642
216,0.3582,1267.642
217,0.359867,1285.896
218,0.361533,1311.973
219,0.3632,1334.399
220,0.364867,1334.399
221,0.366533,1367.629
222,0.3682,1403.838
223,0.369867,1443.55
224,0.371533,1443.55
225,0.3732,1491.532
226,0.374867,1542.047
227,0.376533,1595.467
228,0.3782,1595.467
229,0.379867,1656.115
230,0.381533,1723.245
231,0.3832,1799.911
232,0.38485,1799.911
233,0.386517,1887.605
234,0.388183,1984.015
235,0.38985,1984.015
236,0.39155,2089.59
237,0.393183,2205.819
238,0.39485,2335.012
239,0.396517,2335.012
240,0.398183,2479.777
241,0.39985,2643.913
242,0.401517,2830.029
243,0.4032,2830.029
244,0.40485,3041.625
245,0.406517,3285.333
246,0.408283,3566.667
247,0.40985,3566.667
248,0.411517,3896.058
249,0.413183,4282.519
250,0.41485,4282.519
251,0.416517,4735.44
252,0.418183,5270.392
253,0.41985,5898.401
254,0.421517,5898.401
255,0.423183,6636.083
256,0.424917,7494.688
257,0.426517,8486.657999999999
258,0.428183,8486.657999999999
259,0.42985,9621.157999999999
260,0.431517,10903.105
261,0.433183,12333.542
262,0.43485,12333.542
263,0.436517,13901.293
264,0.438183,15595.63
265,0.43985,15595.63
266,0.441633,17391.443
267,0.443183,19263.998
268,0.444833,21175.668
269,0.4465,21175.668
270,0.448167,23081.898
271,0.449833,24939.553
272,0.4515,26697.666
273,0.453167,26697.666
274,0.454833,28317.869
275,0.4565,29757.32
276,0.458167,30983.463
277,0.459833,30983.463
278,0.4615,31975.881
279,0.463167,32718.182
280,0.464833,33209.25
281,0.4665,33209.25
282,0.468167,33456.832
283,0.469833,33476.727
284,0.4715,33476.727
285,0.473167,33292.473
286,0.474833,32926.871
287,0.4765,32404.215
288,0.478167,32404.215
289,0.479833,31743.943
290,0.4815,30973.629
291,0.4832,30120.834
292,0.484833,30120.834
293,0.4865,29207.84
294,0.488167,28257.221
295,0.489833,27279.928
296,0.4915,27279.928
297,0.493167,26291.906
298,0.494833,25305.6
299,0.4965,25305.6
300,0.498167,24332.105
301,0.499833,23379.102
302,0.5014999999999999,22450.686
303,0.503167,22450.686
304,0.504817,21546.93
305,0.506483,20675.361
306,0.50815,19837.469
307,0.509817,19837.469
308,0.511483,19033.477
309,0.51315,18266.738
310,0.514817,17533.6
311,0.516483,17533.6
312,0.51815,16832.576
313,0.519817,16162.172
314,0.521483,15523.136
315,0.52315,15523.136
316,0.524817,14909.655
317,0.526583,14326.945
318,0.52815,14326.945
319,0.529817,13771.504
320,0.531483,13240.948
321,0.53315,12732.073
322,0.534817,12732.073
323,0.536483,12246.594
324,0.53815,11778.921
325,0.539817,11332.109
326,0.541483,11332.109
327,0.5432169999999999,10906.384
328,0.544817,10496.006
329,0.5464830000000001,10105.521
330,0.54815,10105.521
331,0.549817,9726.286
332,0.5514829999999999,9366.572
333,0.55315,9366.572
334,0.554817,9020.492
335,0.5564829999999999,8689.388999999999
336,0.558167,8378.252
337,0.559933,8378.252
338,0.561483,8073.226
339,0.56315,7784.739
340,0.5648,7508.323
341,0.5664670000000001,7508.323
342,0.568117,7239.431
343,0.569783,6985.217
344,0.57145,6740.168
345,0.573117,6740.168
346,0.574783,6505.698
347,0.57645,6283.894
348,0.578133,6071.925
349,0.579783,6071.925
350,0.58145,5870.238
351,0.583117,5677.641
352,0.5847830000000001,5677.641
353,0.58645,5489.439
354,0.588117,5309.805
355,0.5897829999999999,5135.089
356,0.59145,5135.089
357,0.593117,4966.631
358,0.594783,4809.052
359,0.59645,4658.476
360,0.598117,4658.476
361,0.599783,4515.797
362,0.60145,4380.047
363,0.603117,4251.003
364,0.604783,4251.003
365,0.60645,4127.771
366,0.608117,4007.965
367,0.609783,4007.965
368,0.61145,3892.481
369,0.613117,3781.84
370,0.614783,3676.415
371,0.6164500000000001,3676.415
372,0.618117,3576.726
373,0.619783,3482.476
374,0.6214499999999999,3391.281
375,0.6231,3391.281
376,0.6248,3306.195
377,0.626433,3224.537
378,0.6281,3146.008
379,0.629783,3146.008
380,0.631433,3072.172
381,0.6331,2998.635
382,0.634767,2998.635
383,0.636433,2928.302
384,0.6381,2861.47
385,0.639767,2797.097
386,0.641433,2797.097
387,0.6431,2739.355
388,0.644833,2684.221
389,0.646433,2629.459
390,0.6481,2629.459
391,0.649767,2574.101
392,0.651433,2518.445
393,0.6531,2467.558
394,0.654767,2467.558
395,0.656433,2419.278
396,0.6581,2374.426
397,0.659767,2332.479
398,0.661433,2332.479
399,0.6631,2289.489
400,0.664767,2249.181
401,0.6664330000000001,2249.181
402,0.6681,2212.152
403,0.669767,2174.377
404,0.6714329999999999,2141.222
405,0.6731,2141.222
406,0.674767,2108.663
407,0.676433,2077.371
408,0.6782,2049.059
409,0.679767,2049.059
410,0.681433,2020.225
411,0.6831,1991.54
412,0.68475,1966.655
413,0.6864170000000001,1966.655
414,0.688083,1941.472
415,0.68975,1915.47
416,0.6914169999999999,1915.47
417,0.693083,1891.479
418,0.69475,1866.743
419,0.696417,1844.391
420,0.698083,1844.391
421,0.699783,1822.412
422,0.701417,1805.276
423,0.703083,1787.245
424,0.70475,1787.245
425,0.706417,1765.713
426,0.708083,1749.992
427,0.70975,1728.907
428,0.711417,1728.907
429,0.713083,1709.461
430,0.71475,1694.038
431,0.716417,1676.679
432,0.718083,1676.679
433,0.719767,1662.821
434,0.721417,1649.484
435,0.723083,1649.484
436,0.72475,1635.849
437,0.726417,1621.917
438,0.728083,1610.667
439,0.72975,1610.667
440,0.731417,1596.585
441,0.733083,1584.142
442,0.73475,1572.147
443,0.736417,1572.147
444,0.738083,1557.097
445,0.73975,1547.784
446,0.741417,1537.502
447,0.743083,1537.502
448,0.744733,1529.157
449,0.7464,1523.793
450,0.748067,1523.793
451,0.749733,1512.915
452,0.7514,1503.751
453,0.753067,1495.555
454,0.754733,1495.555
455,0.7564,1486.242
456,0.758067,1479.983
457,0.759733,1470
458,0.7614,1470
459,0.763083,1461.357
460,0.764733,1451.299
461,0.7664,1440.495
462,0.7680670000000001,1440.495
463,0.769733,1434.758
464,0.7714,1424.7
465,0.7730669999999999,1421.273
466,0.774733,1421.273
467,0.7764,1417.175
468,0.778067,1410.022
469,0.779733,1410.022
470,0.7814,1405.478
471,0.783067,1395.941
472,0.784733,1387.224
473,0.7864,1387.224
474,0.788067,1384.541
475,0.789733,1379.326
476,0.7914,1375.079
477,0.793067,1375.079
478,0.794733,1372.248
479,0.7965,1367.778
480,0.798067,1361.892
481,0.799733,1361.892
482,0.8014,1356.378
483,0.803067,1352.876
484,0.804717,1352.876
485,0.8064,1346.543
486,0.80805,1346.022
487,0.809733,1343.34
488,0.811383,1343.34
489,0.8130500000000001,1338.273
490,0.814717,1335.219
491,0.816383,1332.611
492,0.8180500000000001,1332.611
493,0.819717,1331.493
494,0.821383,1330.003
495,0.8230499999999999,1328.29
496,0.824717,1328.29
497,0.826383,1325.16
498,0.82805,1322.329
499,0.829717,1318.902
500,0.831383,1318.902
501,0.83305,1314.208
502,0.834717,1311.675
503,0.836383,1311.675
504,0.83805,1305.789
505,0.839717,1302.213
506,0.841383,1296.177
507,0.84305,1296.177
508,0.8447170000000001,1291.186
509,0.846383,1290.59
510,0.84805,1289.621
511,0.8497169999999999,1289.621
512,0.851383,1289.025
513,0.85305,1286.641
514,0.8547169999999999,1283.884
515,0.856383,1283.884
516,0.85805,1282.096
517,0.8597,1284.778
518,0.861367,1284.778
519,0.8630330000000001,1284.629
520,0.864683,1279.637
521,0.86635,1275.986
522,0.868017,1275.986
523,0.869683,1269.281
524,0.87135,1266.152
525,0.873017,1268.238
526,0.874683,1268.238
527,0.87635,1266.599
528,0.878017,1269.43
529,0.879683,1266.003
530,0.8814,1266.003
531,0.8830170000000001,1262.575
532,0.884683,1262.203
533,0.88635,1262.203
534,0.8880169999999999,1257.211
535,0.889683,1254.603
536,0.89135,1251.996
537,0.8930169999999999,1251.996
538,0.894683,1248.345
539,0.89635,1247.153
540,0.898017,1247.674
541,0.899683,1247.674
542,0.90135,1245.141
543,0.903017,1243.8
544,0.904683,1241.49
545,0.90635,1241.49
546,0.908017,1239.702
547,0.9097,1240.373
548,0.91135,1241.267
549,0.913017,1241.267
550,0.914683,1240.373
551,0.91635,1239.255
552,0.918017,1239.255
553,0.919683,1240.745
554,0.92135,1239.181
555,0.923017,1238.137
556,0.924667,1238.137
557,0.926333,1239.106
558,0.928,1236.796
559,0.929667,1232.773
560,0.931333,1232.773
561,0.9330000000000001,1230.91
562,0.934667,1228.675
563,0.936333,1227.483
564,0.9379999999999999,1227.483
565,0.939667,1230.091
566,0.941333,1232.401
567,0.9429999999999999,1232.401
568,0.944667,1233.295
569,0.946333,1232.177
570,0.948,1228.824
571,0.949667,1228.824
572,0.951333,1228.005
573,0.953,1223.311
574,0.954667,1221.15
575,0.956333,1221.15
576,0.958,1221.821
577,0.959667,1218.542
578,0.961333,1220.331
579,0.963,1220.331
580,0.9646670000000001,1220.256
581,0.966333,1219.809
582,0.968,1219.884
583,0.9696669999999999,1219.884
584,0.971333,1216.233
585,0.973,1216.009
586,0.974667,1216.009
587,0.976333,1215.264
588,0.978,1216.531
589,0.979667,1214.668
590,0.981333,1214.668
591,0.983,1211.092
592,0.98465,1209.304
593,0.986317,1206.1
594,0.9879829999999999,1206.1
595,0.98965,1207.069
596,0.991317,1206.771
597,0.9929829999999999,1207.888
598,0.99465,1207.888
599,0.996317,1209.155
600,0.997983,1210.123
601,0.999717,1210.123
602,1.001317,1210.198
603,1.002983,1206.696
604,1.00465,1204.386
605,1.006317,1204.386
606,1.007983,1203.269
607,1.00965,1208.112
608,1.011317,1207.59
609,1.012983,1207.59
610,1.01465,1207.143
611,1.016383,1209.006
612,1.017983,1203.045
613,1.01965,1203.045
614,1.021317,1203.269
