"ID","sea_time","fid_signal"
1,0,1168.922
2,0.001667,1166.239
3,0.003333,1167.357
4,0.005,1167.953
5,0.006667,1167.953
6,0.008333,1170.784
7,0.01,1171.604
8,0.011667,1171.306
9,0.013333,1171.306
10,0.015,1167.059
11,0.016667,1163.855
12,0.018333,1163.855
13,0.02,1163.855
14,0.021667,1165.196
15,0.023333,1169.816
16,0.025,1172.349
17,0.026667,1172.349
18,0.028333,1173.168
19,0.03,1171.306
20,0.031717,1171.306
21,0.033333,1169.965
22,0.035,1165.42
23,0.036667,1164.377
24,0.038333,1164.377
25,0.04,1165.122
26,0.041683,1164.228
27,0.043317,1165.271
28,0.044983,1165.271
29,0.04665,1169.294
30,0.048317,1167.282
31,0.049983,1168.922
32,0.05165,1168.922
33,0.053317,1170.188
34,0.054983,1171.008
35,0.05665,1171.008
36,0.058317,1174.807
37,0.059983,1176.298
38,0.06165,1179.203
39,0.063317,1179.203
40,0.065083,1173.839
41,0.06665,1173.913
42,0.068317,1173.541
43,0.069983,1173.541
44,0.07165000000000001,1169.592
45,0.07331699999999999,1172.423
46,0.07498299999999999,1171.604
47,0.07665,1171.604
48,0.078317,1171.604
49,0.079983,1171.902
50,0.08165,1169.071
51,0.083317,1169.071
52,0.084983,1166.09
53,0.08665,1163.036
54,0.08831700000000001,1163.036
55,0.09,1163.706
56,0.09165,1165.867
57,0.093317,1166.463
58,0.094983,1166.463
59,0.09665,1165.494
60,0.098317,1165.941
61,0.099983,1164.675
62,0.10165,1164.675
63,0.1033,1164.526
64,0.104967,1163.632
65,0.106633,1162.812
66,0.1083,1162.812
67,0.109967,1164.526
68,0.111633,1165.271
69,0.1133,1165.271
70,0.115033,1165.867
71,0.116633,1164.004
72,0.1183,1162.216
73,0.119967,1162.216
74,0.121633,1161.471
75,0.1233,1161.993
76,0.124967,1164.526
77,0.126633,1164.526
78,0.1283,1165.792
79,0.129967,1168.549
80,0.131633,1169.071
81,0.1333,1169.071
82,0.134967,1170.263
83,0.136633,1169.22
84,0.1383,1169.443
85,0.139967,1169.443
86,0.141633,1170.188
87,0.1433,1169.741
88,0.144967,1169.741
89,0.146633,1168.177
90,0.148283,1167.58
91,0.15,1170.561
92,0.151617,1170.561
93,0.153283,1168.326
94,0.15495,1171.902
95,0.156617,1168.773
96,0.158283,1168.773
97,0.15995,1164.675
98,0.1616,1164.749
99,0.163267,1161.695
100,0.164933,1161.695
101,0.1666,1163.781
102,0.168283,1165.196
103,0.169933,1165.196
104,0.1716,1170.263
105,0.173267,1173.392
106,0.174933,1173.839
107,0.1766,1173.839
108,0.178267,1174.063
109,0.179933,1172.796
110,0.1816,1171.231
111,0.1833,1171.231
112,0.184933,1171.753
113,0.1866,1170.188
114,0.188267,1169.592
115,0.189933,1169.592
116,0.1916,1169.443
117,0.193267,1168.996
118,0.194933,1168.996
119,0.1966,1169.741
120,0.198267,1168.027
121,0.199933,1168.4
122,0.2016,1168.4
123,0.203267,1167.208
124,0.204933,1165.345
125,0.2066,1165.718
126,0.208267,1165.718
127,0.209933,1164.6
128,0.2116,1166.612
129,0.213267,1168.549
130,0.214933,1168.549
131,0.2166,1167.953
132,0.218267,1167.506
133,0.219933,1167.804
134,0.221583,1167.804
135,0.22325,1168.251
136,0.224917,1168.922
137,0.226583,1168.922
138,0.22825,1170.486
139,0.229917,1168.847
140,0.231583,1167.432
141,0.23325,1167.432
142,0.234917,1166.835
143,0.236583,1169.443
144,0.23825,1170.039
145,0.239917,1170.039
146,0.241583,1167.879
147,0.24325,1166.91
148,0.244917,1162.514
149,0.24665,1162.514
150,0.24825,1161.099
151,0.249917,1164.004
152,0.251583,1164.004
153,0.25325,1163.632
154,0.254917,1161.918
155,0.256583,1159.161
156,0.25825,1159.161
157,0.259917,1158.416
158,0.261583,1158.938
159,0.26325,1160.577
160,0.264917,1160.577
161,0.266583,1162.887
162,0.268317,1162.216
163,0.269917,1164.973
164,0.271583,1164.973
165,0.27325,1167.133
166,0.274917,1170.039
167,0.276583,1173.913
168,0.27825,1173.913
169,0.279917,1174.584
170,0.281567,1173.019
171,0.283233,1173.019
172,0.2849,1171.008
173,0.286567,1169.965
174,0.288233,1170.263
175,0.289917,1170.263
176,0.291567,1170.784
177,0.293233,1171.976
178,0.2949,1172.423
179,0.296567,1172.423
180,0.298233,1172.498
181,0.2999,1174.807
182,0.301633,1175.925
183,0.303233,1175.925
184,0.3049,1175.702
185,0.306567,1173.392
186,0.308233,1173.392
187,0.3099,1171.678
188,0.311567,1171.082
189,0.313233,1168.102
190,0.3149,1168.102
191,0.316567,1168.102
192,0.318233,1167.804
193,0.3199,1165.345
194,0.321567,1165.345
195,0.323233,1166.016
196,0.324917,1165.122
197,0.326567,1167.729
198,0.328233,1167.729
199,0.3299,1168.251
200,0.331567,1167.804
201,0.333233,1168.698
202,0.3349,1168.698
203,0.336567,1167.357
204,0.338233,1170.337
205,0.3399,1170.337
206,0.34155,1173.094
207,0.343217,1172.125
208,0.344883,1174.51
209,0.34655,1174.51
210,0.348217,1173.615
211,0.349883,1171.455
212,0.35155,1171.38
213,0.353217,1171.38
214,0.354883,1167.879
215,0.35655,1164.526
216,0.358217,1164.824
217,0.359883,1164.824
218,0.36155,1167.133
219,0.363217,1165.643
220,0.364883,1165.643
221,0.36655,1166.761
222,0.368217,1165.792
223,0.369883,1164.749
224,0.37155,1164.749
225,0.373217,1166.388
226,0.374883,1168.4
227,0.37655,1168.847
228,0.378217,1168.847
229,0.379883,1167.208
230,0.38155,1168.177
231,0.383217,1167.953
232,0.384883,1167.953
233,0.3866,1167.879
234,0.388217,1170.337
235,0.389883,1170.337
236,0.39155,1168.847
237,0.393217,1168.698
238,0.394883,1171.306
239,0.39655,1171.306
240,0.398217,1172.2
241,0.399883,1174.659
242,0.401533,1177.043
243,0.403283,1177.043
244,0.404867,1177.713
245,0.406533,1177.415
246,0.4082,1179.203
247,0.409867,1179.203
248,0.411533,1178.235
249,0.4132,1177.713
250,0.414867,1178.235
251,0.416533,1178.235
252,0.4182,1180.396
253,0.419967,1179.576
254,0.421533,1179.576
255,0.4232,1180.321
256,0.424867,1180.768
257,0.426533,1176.745
258,0.4282,1176.745
259,0.429867,1177.192
260,0.431533,1177.639
261,0.4332,1178.756
262,0.434867,1178.756
263,0.436533,1181.886
264,0.438183,1182.184
265,0.43985,1180.321
266,0.441517,1180.321
267,0.443183,1178.011
268,0.44485,1173.317
269,0.446517,1173.317
270,0.448183,1171.976
271,0.44985,1174.36
272,0.451517,1175.925
273,0.453183,1175.925
274,0.45485,1178.458
275,0.456517,1180.097
276,0.458183,1176.447
277,0.45985,1176.447
278,0.4615,1173.913
279,0.4632,1169.965
280,0.46485,1166.388
281,0.4665,1166.388
282,0.468167,1169.22
283,0.469833,1171.157
284,0.4715,1174.733
285,0.473167,1174.733
286,0.474833,1179.725
287,0.4765,1179.501
288,0.478167,1179.501
289,0.479833,1180.768
290,0.481517,1182.929
291,0.483167,1186.132
292,0.484833,1186.132
293,0.4865,1190.901
294,0.488167,1198.5
295,0.489833,1205.876
296,0.4915,1205.876
297,0.493167,1216.084
298,0.494833,1231.357
299,0.4965,1250.729
300,0.498167,1250.729
301,0.499833,1275.614
302,0.5014999999999999,1306.236
303,0.503167,1306.236
304,0.50485,1344.085
305,0.5065,1387.298
306,0.508167,1443.475
307,0.509833,1443.475
308,0.5115,1505.688
309,0.513167,1578.256
310,0.514833,1659.915
311,0.5165,1659.915
312,0.518167,1751.706
313,0.519833,1854.449
314,0.521567,1965.985
315,0.52315,1965.985
316,0.524817,2090.782
317,0.526483,2221.912
318,0.52815,2221.912
319,0.529817,2363.399
320,0.531483,2516.806
321,0.53315,2676.397
322,0.534817,2676.397
323,0.536483,2848.282
324,0.5382,3029.406
325,0.539817,3217.086
326,0.541483,3217.086
327,0.54315,3417.656
328,0.544817,3623.59
329,0.5464830000000001,3840.253
330,0.54815,3840.253
331,0.549817,4062.354
332,0.5514829999999999,4292.205
333,0.55315,4532.784
334,0.554933,4532.784
335,0.5564829999999999,4781.783
336,0.55815,5045.235
337,0.559817,5045.235
338,0.561483,5313.531
339,0.56315,5591.512
340,0.564817,5878.061
341,0.566483,5878.061
342,0.56815,6165.653
343,0.569817,6462.559
344,0.571483,6758.571
345,0.57315,6758.571
346,0.574817,7056.221
347,0.576483,7357.076
348,0.5781500000000001,7651.001
349,0.579817,7651.001
350,0.581467,7944.927
351,0.583133,8228.049000000001
352,0.5848,8228.049000000001
353,0.586467,8502.155000000001
354,0.588133,8766.575999999999
355,0.5898,9014.383
356,0.591467,9014.383
357,0.593133,9254.516
358,0.5948,9480.491
359,0.596467,9687.99
360,0.598133,9687.99
361,0.5998,9881.481
362,0.601467,10052.473
363,0.603133,10201.335
364,0.6048,10201.335
365,0.606467,10334.85
366,0.608133,10447.949
367,0.6098,10540.56
368,0.611467,10540.56
369,0.613133,10615.662
370,0.6148,10670.349
371,0.616467,10670.349
372,0.618133,10706.856
373,0.6198,10725.036
374,0.621467,10726.898
375,0.623133,10726.898
376,0.6248,10713.189
377,0.626467,10684.878
378,0.6281330000000001,10643.452
379,0.6298,10643.452
380,0.631467,10590.106
381,0.6331329999999999,10528.341
382,0.6348,10457.709
383,0.636467,10457.709
384,0.638133,10380.671
385,0.63985,10294.467
386,0.64145,10294.467
387,0.643117,10201.037
388,0.644783,10099.485
389,0.64645,9994.954
390,0.6481170000000001,9994.954
391,0.649783,9886.474
392,0.65145,9776.652
393,0.653133,9666.011
394,0.654783,9666.011
395,0.656483,9551.868
396,0.658117,9436.607
397,0.659783,9320.527
398,0.66145,9320.527
399,0.663117,9207.204
400,0.664783,9089.782999999999
401,0.66645,8976.683000000001
402,0.668117,8976.683000000001
403,0.669783,8860.678
404,0.67145,8741.394
405,0.673133,8741.394
406,0.674783,8627.325000000001
407,0.67645,8512.064
408,0.678117,8399.338
409,0.679783,8399.338
410,0.68145,8291.9
411,0.683133,8190.051
412,0.684783,8089.468
413,0.68645,8089.468
414,0.688117,7988.736
415,0.689783,7888.749
416,0.69145,7784.292
417,0.693117,7784.292
418,0.694783,7685.572
419,0.69645,7587.671
420,0.698117,7587.671
421,0.699783,7490.218
422,0.701433,7395.223
423,0.7030999999999999,7301.792
424,0.704767,7301.792
425,0.706433,7214.025
426,0.7081,7126.778
427,0.709767,7042.959
428,0.711433,7042.959
429,0.7131,6959.513
430,0.714767,6879.196
431,0.716433,6800.443
432,0.7181,6800.443
433,0.719767,6725.341
434,0.721433,6650.984
435,0.7231,6575.287
436,0.7247670000000001,6575.287
437,0.726433,6503.984
438,0.7281,6430.447
439,0.72975,6430.447
440,0.731417,6357.953
441,0.733083,6288.066
442,0.73475,6218.329
443,0.736417,6218.329
444,0.738083,6150.604
445,0.73975,6086.379
446,0.741417,6025.657
447,0.743083,6025.657
448,0.74475,5966.723
449,0.746417,5908.757
450,0.7480830000000001,5852.878
451,0.74975,5852.878
452,0.751417,5794.391
453,0.7530829999999999,5736.798
454,0.75475,5736.798
455,0.756417,5681.217
456,0.7581,5626.38
457,0.75975,5572.513
458,0.7614,5572.513
459,0.7630670000000001,5520.88
460,0.764733,5467.385
461,0.7664,5413.964
462,0.7680670000000001,5413.964
463,0.769733,5360.395
464,0.7714,5308.986
465,0.7730669999999999,5262.718
466,0.77475,5262.718
467,0.7764,5216.226
468,0.778067,5175.173
469,0.779733,5175.173
470,0.7814,5132.034
471,0.783067,5087.256
472,0.784733,5042.031
473,0.7864,5042.031
474,0.788067,4999.265
475,0.789733,4954.71
476,0.791517,4914.701
477,0.793067,4914.701
478,0.794733,4876.256
479,0.7964,4834.905
480,0.798067,4796.609
481,0.799733,4796.609
482,0.8014,4758.313
483,0.803067,4720.762
484,0.804733,4684.105
485,0.8064,4684.105
486,0.808067,4648.715
487,0.809733,4614.815
488,0.8114,4614.815
489,0.813067,4578.233
490,0.814733,4542.917
491,0.8164,4508.57
492,0.818067,4508.57
493,0.819717,4472.658
494,0.8214,4442.111
495,0.8230499999999999,4413.575
496,0.82475,4413.575
497,0.826383,4383.996
498,0.82805,4355.833
499,0.829717,4325.882
500,0.831383,4325.882
501,0.83305,4293.397
502,0.834717,4264.861
503,0.836383,4264.861
504,0.83805,4232.451
505,0.839717,4203.394
506,0.841383,4179.329
507,0.84305,4179.329
508,0.8447170000000001,4151.389
509,0.846383,4128.888
510,0.84805,4103.929
511,0.8497169999999999,4103.929
512,0.851383,4076.436
513,0.85305,4050.732
514,0.8547169999999999,4024.282
515,0.856383,4024.282
516,0.85805,3997.162
517,0.859717,3972.948
518,0.861383,3948.957
519,0.86305,3948.957
520,0.864717,3924.221
521,0.866383,3903.806
522,0.86805,3903.806
523,0.869717,3882.572
524,0.871383,3859.624
525,0.87305,3839.731
526,0.874717,3839.731
527,0.8764,3819.689
528,0.87805,3795.475
529,0.879717,3774.315
530,0.881367,3774.315
531,0.883033,3753.006
532,0.8847,3728.419
533,0.886367,3706.291
534,0.888033,3706.291
535,0.8897,3684.536
536,0.891367,3664.121
537,0.89315,3646.24
538,0.8947000000000001,3646.24
539,0.896367,3629.774
540,0.898033,3613.755
541,0.8997000000000001,3613.755
542,0.901367,3594.831
543,0.903033,3576.726
544,0.9046999999999999,3558.546
545,0.906367,3558.546
546,0.908033,3542.229
547,0.909817,3524.87
548,0.911367,3506.914
549,0.913033,3506.914
550,0.9147,3488.585
551,0.916367,3467.575
552,0.918033,3452.525
553,0.9197,3452.525
554,0.921383,3436.506
555,0.923033,3419.891
556,0.9247,3419.891
557,0.9263670000000001,3407.821
558,0.928033,3389.269
559,0.9297,3374.368
560,0.9313669999999999,3374.368
561,0.933033,3359.467
562,0.9347,3343.299
563,0.9363669999999999,3328.323
564,0.938033,3328.323
565,0.9397,3310.666
566,0.94135,3293.976
567,0.943017,3276.318
568,0.9446830000000001,3276.318
569,0.94635,3262.237
570,0.948017,3249.273
571,0.9496830000000001,3249.273
572,0.95135,3238.917
573,0.953017,3228.411
574,0.9546829999999999,3216.639
575,0.95635,3216.639
576,0.958017,3201.738
577,0.9597,3185.645
578,0.96135,3171.34
579,0.963017,3171.34
580,0.964683,3155.917
581,0.96635,3142.655
582,0.968017,3131.628
583,0.969683,3131.628
584,0.97135,3117.397
585,0.973017,3106.221
586,0.974683,3106.221
587,0.9763500000000001,3096.312
588,0.978017,3084.615
589,0.979683,3072.769
590,0.9813499999999999,3072.769
591,0.983017,3060.103
592,0.984683,3049.15
593,0.9863499999999999,3037.006
594,0.988017,3037.006
595,0.989683,3028.885
596,0.99135,3018.081
597,0.993017,3008.619
598,0.9947,3008.619
599,0.99635,2998.263
600,0.998017,2985.299
601,0.999683,2974.421
602,1.001333,2974.421
603,1.003,2962.276
604,1.004667,2950.206
605,1.006333,2950.206
606,1.008,2941.862
607,1.009667,2933.368
608,1.011333,2922.192
609,1.013,2922.192
610,1.014667,2915.189
611,1.016333,2904.907
612,1.018,2895.892
613,1.019667,2895.892
614,1.021317,2887.025
615,1.022983,2875.03
616,1.02465,2864.45
617,1.026317,2864.45
618,1.028083,2852.827
619,1.02965,2841.651
620,1.031317,2841.651
621,1.032983,2831.519
622,1.03465,2823.696
623,1.03635,2817.884
624,1.037983,2817.884
625,1.03965,2812.967
626,1.041317,2806.336
627,1.042983,2796.277
628,1.04465,2796.277
629,1.046317,2785.996
630,1.047983,2771.243
631,1.04965,2760.664
632,1.051317,2760.664
633,1.052983,2751.947
634,1.05465,2742.857
635,1.056317,2736.375
636,1.057983,2736.375
637,1.05965,2730.861
638,1.061317,2725.497
639,1.062967,2725.497
640,1.064633,2717.376
641,1.0663,2712.831
642,1.067967,2703.22
643,1.069633,2703.22
644,1.0713,2692.491
645,1.072967,2686.232
646,1.074633,2677.962
647,1.0763,2677.962
648,1.077967,2673.939
649,1.079633,2668.426
650,1.0813,2660.9
651,1.082967,2660.9
652,1.084633,2654.865
653,1.0863,2644.658
654,1.087967,2644.658
655,1.089633,2636.462
656,1.0913,2628.043
657,1.092967,2622.008
658,1.094633,2622.008
659,1.096317,2615.75
660,1.097967,2610.013
661,1.099633,2604.797
662,1.1013,2604.797
663,1.102967,2595.112
664,1.104633,2590.194
665,1.1063,2582.744
666,1.107967,2582.744
667,1.109633,2573.729
668,1.1113,2567.172
669,1.112967,2561.212
670,1.114633,2561.212
671,1.1163,2555.475
672,1.117967,2549.589
673,1.119617,2549.589
674,1.121283,2540.126
675,1.12295,2531.856
676,1.124617,2523.81
677,1.126283,2523.81
678,1.12795,2517.477
679,1.129617,2514.422
680,1.131283,2509.132
681,1.13295,2509.132
682,1.134617,2504.14
683,1.136283,2500.415
684,1.13795,2493.56
685,1.139617,2493.56
686,1.141283,2484.322
687,1.14295,2477.989
688,1.144617,2477.989
689,1.146333,2469.495
690,1.14795,2465.323
691,1.149617,2463.758
692,1.151283,2463.758
693,1.15295,2456.754
694,1.154617,2450.421
695,1.156283,2442.375
696,1.15795,2442.375
697,1.159617,2434.626
698,1.161283,2433.285
699,1.16295,2432.615
700,1.164617,2432.615
701,1.166283,2432.689
702,1.16795,2429.634
703,1.169617,2429.634
704,1.171283,2425.09
705,1.17295,2419.874
706,1.174617,2412.274
707,1.1763,2412.274
708,1.17795,2406.91
709,1.179617,2398.565
710,1.181267,2389.103
711,1.182933,2389.103
712,1.1846,2384.707
713,1.186267,2379.492
714,1.187933,2374.5
715,1.1896,2374.5
716,1.191267,2371.147
717,1.192933,2365.559
718,1.1946,2358.779
719,1.196267,2358.779
720,1.197933,2354.16
721,1.1996,2348.498
722,1.201267,2348.498
723,1.202933,2343.357
724,1.2046,2339.259
725,1.206267,2336.949
726,1.207933,2336.949
727,1.2096,2335.683
728,1.211267,2332.106
729,1.212933,2326.742
730,1.2146,2326.742
731,1.216267,2321.824
732,1.217933,2314.448
733,1.2196,2309.904
734,1.221267,2309.904
735,1.222933,2308.041
736,1.224617,2302.602
737,1.226267,2302.602
738,1.227933,2299.771
739,1.2296,2295.449
740,1.231317,2289.116
741,1.232933,2289.116
742,1.2346,2282.56
743,1.236267,2276.972
744,1.237933,2270.49
745,1.239583,2270.49
746,1.24125,2268.329
747,1.242917,2267.51
748,1.244583,2262.965
749,1.2463,2262.965
750,1.248017,2259.165
751,1.249583,2254.397
752,1.25125,2251.118
753,1.252917,2251.118
754,1.254583,2248.809
755,1.25625,2247.691
756,1.257917,2247.691
757,1.259583,2240.762
758,1.26125,2234.876
759,1.262917,2231.002
760,1.2646,2231.002
761,1.26625,2223.924
762,1.267917,2224.147
763,1.269583,2220.944
764,1.27125,2220.944
765,1.272917,2217.144
766,1.274583,2214.089
767,1.27625,2208.427
768,1.277917,2208.427
769,1.279583,2204.701
770,1.28125,2201.125
771,1.282917,2201.125
772,1.284583,2198.368
773,1.28625,2197.102
774,1.287917,2194.941
775,1.289583,2194.941
776,1.29125,2190.769
777,1.292917,2186.075
778,1.294583,2182.871
779,1.29625,2182.871
780,1.297917,2178.401
781,1.299583,2175.57
782,1.301233,2174.973
783,1.3029,2174.973
784,1.304567,2170.801
785,1.306233,2168.566
786,1.3079,2164.692
787,1.309567,2164.692
788,1.311233,2160.445
789,1.312883,2156.794
790,1.31455,2156.794
791,1.316217,2152.92
792,1.317933,2152.473
793,1.31955,2147.481
794,1.321217,2147.481
795,1.322883,2142.862
796,1.32455,2137.944
797,1.326217,2131.537
798,1.327883,2131.537
799,1.32955,2128.705
800,1.331217,2127.439
801,1.332883,2125.353
802,1.33455,2125.353
803,1.336217,2125.651
804,1.337883,2123.49
805,1.33955,2123.49
806,1.341217,2117.604
807,1.342883,2110.898
808,1.34455,2103.821
809,1.346217,2103.821
810,1.347883,2098.679
811,1.349567,2095.923
812,1.351217,2098.083
813,1.352883,2098.083
814,1.35455,2098.009
815,1.356217,2096.519
816,1.357883,2092.868
817,1.35955,2092.868
818,1.3612,2083.48
819,1.362867,2075.806
820,1.364533,2075.806
821,1.366283,2073.944
822,1.367867,2073.571
823,1.369533,2073.646
824,1.3712,2073.646
825,1.372867,2072.379
826,1.374533,2068.728
827,1.3762,2064.109
828,1.377867,2064.109
829,1.379533,2062.023
830,1.3812,2060.905
831,1.382967,2059.862
832,1.38455,2059.862
833,1.3862,2056.509
834,1.387867,2052.784
835,1.389533,2050.176
836,1.3912,2050.176
837,1.392867,2045.706
838,1.394533,2046.526
839,1.3962,2046.526
840,1.397867,2045.482
841,1.39965,2043.024
842,1.4012,2040.789
843,1.402867,2040.789
844,1.404533,2036.393
845,1.4062,2035.275
846,1.407867,2033.338
847,1.409533,2033.338
848,1.4112,2033.487
849,1.412867,2031.922
850,1.414533,2028.197
851,1.4162,2028.197
852,1.417867,2025.664
853,1.419533,2020.821
854,1.421183,2020.821
855,1.42285,2017.617
856,1.424517,2016.798
857,1.426183,2014.712
858,1.42785,2014.712
859,1.429517,2012.476
860,1.431183,2010.39
861,1.43285,2009.124
862,1.434517,2009.124
863,1.436183,2008.155
864,1.43785,2005.622
865,1.439517,2002.418
866,1.441183,2002.418
867,1.44285,2000.108
868,1.444517,1994.669
869,1.446183,1991.317
870,1.44785,1991.317
871,1.449517,1988.635
872,1.4512,1984.164
873,1.45285,1984.164
874,1.454517,1981.035
875,1.456183,1976.49
876,1.45785,1977.459
877,1.459517,1977.459
878,1.461183,1974.255
879,1.462867,1973.137
880,1.464517,1976.49
881,1.466183,1976.49
882,1.46785,1972.541
883,1.469517,1972.318
884,1.471183,1972.318
885,1.47285,1972.318
886,1.474517,1967.177
887,1.476183,1964.569
888,1.47785,1964.569
889,1.4795,1963.153
890,1.481167,1960.099
891,1.482833,1958.609
892,1.484583,1958.609
893,1.486167,1957.64
894,1.487833,1952.499
895,1.4895,1947.284
896,1.491167,1947.284
897,1.492833,1945.421
898,1.4945,1941.621
899,1.496167,1938.939
900,1.497833,1938.939
901,1.499517,1939.461
902,1.501217,1940.429
903,1.502833,1939.088
904,1.5045,1939.088
905,1.506167,1939.312
906,1.507833,1938.418
907,1.5095,1938.418
908,1.511167,1933.277
909,1.512833,1929.998
910,1.5145,1925.826
911,1.516167,1925.826
912,1.51795,1919.717
913,1.5195,1915.097
914,1.521167,1914.725
915,1.522833,1914.725
916,1.5245,1914.725
917,1.526167,1914.501
