"ID","sea_time","fid_signal"
1,0,1182.109
2,0.0017,1182.109
3,0.003333,1180.023
4,0.005,1180.693
5,0.006667,1180.693
6,0.008333,1180.246
7,0.01,1179.65
8,0.011667,1180.172
9,0.013333,1180.172
10,0.015,1176.447
11,0.016667,1176.372
12,0.018367,1176.67
13,0.02,1176.67
14,0.021667,1176.298
15,0.023333,1179.203
16,0.025,1179.874
17,0.026667,1179.874
18,0.028333,1180.619
19,0.03,1179.352
20,0.031667,1177.564
21,0.033333,1177.564
22,0.0351,1179.129
23,0.036667,1181.588
24,0.038333,1181.588
25,0.04,1183.301
26,0.041667,1185.611
27,0.043333,1183.897
28,0.044983,1183.897
29,0.04665,1182.407
30,0.048333,1179.874
31,0.049983,1179.576
32,0.05165,1179.576
33,0.053317,1180.023
34,0.054983,1179.799
35,0.05665,1182.184
36,0.058333,1182.184
37,0.059983,1182.258
38,0.06165,1182.631
39,0.0633,1182.631
40,0.064967,1178.533
41,0.066633,1178.905
42,0.0683,1178.905
43,0.069967,1178.905
44,0.071633,1178.086
45,0.0733,1180.693
46,0.07496700000000001,1179.129
47,0.07663300000000001,1179.129
48,0.07829999999999999,1179.501
49,0.079967,1180.396
50,0.081633,1180.545
51,0.0833,1180.545
52,0.084967,1181.588
53,0.086633,1185.238
54,0.0883,1185.238
55,0.08996700000000001,1184.493
56,0.09163300000000001,1185.313
57,0.09329999999999999,1184.046
58,0.094967,1184.046
59,0.096633,1183.45
60,0.0983,1183.674
61,0.099967,1182.705
62,0.101633,1182.705
63,0.10335,1182.631
64,0.10495,1179.501
65,0.106617,1179.427
66,0.108283,1179.427
67,0.10995,1180.246
68,0.111617,1181.439
69,0.113283,1180.246
70,0.11495,1180.246
71,0.116617,1178.756
72,0.118283,1178.235
73,0.120017,1178.235
74,0.121617,1178.235
75,0.123283,1176.968
76,0.12495,1178.905
77,0.126617,1178.905
78,0.128283,1176.819
79,0.12995,1177.266
80,0.131617,1179.427
81,0.133283,1179.427
82,0.13495,1177.788
83,0.136667,1179.427
84,0.138283,1180.023
85,0.13995,1180.023
86,0.141617,1180.396
87,0.143283,1180.693
88,0.14495,1180.693
89,0.146617,1181.662
90,0.148283,1180.619
91,0.14995,1179.948
92,0.151617,1179.948
93,0.1534,1181.588
94,0.15495,1180.992
95,0.156617,1183.152
96,0.158283,1183.152
97,0.15995,1182.556
98,0.161617,1181.215
99,0.163283,1183.003
100,0.164933,1183.003
101,0.1666,1182.556
102,0.168267,1183.525
103,0.169933,1183.897
104,0.1716,1183.897
105,0.173267,1183.599
106,0.174933,1181.513
107,0.1766,1181.513
108,0.178267,1181.96
109,0.179967,1180.917
110,0.1816,1180.097
111,0.183267,1180.097
112,0.184933,1179.203
113,0.1866,1176
114,0.188267,1177.49
115,0.189933,1177.49
116,0.1916,1178.756
117,0.193267,1181.439
118,0.194933,1182.631
119,0.1966,1182.631
120,0.198267,1183.152
121,0.199933,1181.96
122,0.2016,1181.96
123,0.203267,1176.968
124,0.204933,1175.255
125,0.2066,1175.18
126,0.208267,1175.18
127,0.209933,1173.69
128,0.2116,1176.372
129,0.213267,1179.352
130,0.214933,1179.352
131,0.2166,1177.564
132,0.218283,1179.203
133,0.219933,1179.501
134,0.2216,1179.501
135,0.223267,1179.874
136,0.224917,1180.693
137,0.226583,1178.905
138,0.22825,1178.905
139,0.229917,1176.67
140,0.231583,1176.298
141,0.23325,1176.298
142,0.234917,1176.372
143,0.236583,1178.086
144,0.238317,1179.203
145,0.239917,1179.203
146,0.241583,1178.756
147,0.24325,1178.682
148,0.244917,1178.533
149,0.246617,1178.533
150,0.24825,1179.278
151,0.249917,1178.607
152,0.251583,1176.372
153,0.25325,1176.372
154,0.254917,1176.149
155,0.256583,1175.18
156,0.25825,1175.18
157,0.259917,1176.819
158,0.261583,1178.16
159,0.26325,1178.98
160,0.264917,1178.98
161,0.266583,1180.768
162,0.26825,1178.16
163,0.269917,1177.192
164,0.2717,1177.192
165,0.27325,1176.298
166,0.274917,1176.894
167,0.276583,1178.756
168,0.27825,1178.756
169,0.279917,1179.427
170,0.281583,1178.384
171,0.28325,1178.384
172,0.2849,1177.192
173,0.286567,1173.243
174,0.288233,1173.765
175,0.2899,1173.765
176,0.291567,1175.329
177,0.293233,1176.298
178,0.2949,1180.246
179,0.296567,1180.246
180,0.298233,1180.768
181,0.2999,1182.184
182,0.301567,1182.78
183,0.303233,1182.78
184,0.3049,1186.058
185,0.306567,1185.238
186,0.308233,1185.015
187,0.309917,1185.015
188,0.311567,1186.058
189,0.313233,1186.505
190,0.3149,1186.505
191,0.316583,1191.646
192,0.318233,1199.022
193,0.3199,1203.716
194,0.321567,1203.716
195,0.323233,1211.613
196,0.3249,1222.64
197,0.326567,1229.644
198,0.328233,1229.644
199,0.3299,1246.11
200,0.331567,1266.003
201,0.333233,1285.523
202,0.3349,1285.523
203,0.336567,1314.059
204,0.338233,1341.626
205,0.3399,1341.626
206,0.341567,1370.46
207,0.343233,1407.117
208,0.344883,1444.519
209,0.34655,1444.519
210,0.348217,1488.552
211,0.349883,1536.012
212,0.35155,1589.209
213,0.353217,1589.209
214,0.354867,1649.857
215,0.3566,1718.402
216,0.3582,1796.111
217,0.359867,1796.111
218,0.361533,1881.048
219,0.3632,1974.851
220,0.364867,2078.637
221,0.366533,2078.637
222,0.3682,2195.313
223,0.369867,2328.679
224,0.371533,2328.679
225,0.3732,2483.875
226,0.374867,2664.253
227,0.376533,2880.245
228,0.3782,2880.245
229,0.379867,3133.416
230,0.381533,3435.165
231,0.3832,3798.157
232,0.384867,3798.157
233,0.386533,4225.224
234,0.3882,4730.001
235,0.389917,5319.565
236,0.391533,5319.565
237,0.3932,6004.125
238,0.394867,6792.471
239,0.396533,6792.471
240,0.3982,7691.458
241,0.399867,8705.035
242,0.401533,9833.424999999999
243,0.4032,9833.424999999999
244,0.40485,11077.3
245,0.406517,12439.042
246,0.408183,13911.575
247,0.40985,13911.575
248,0.411517,15487.597
249,0.413183,17157.271
250,0.41485,18897.801
251,0.416517,18897.801
252,0.418183,20685.568
253,0.41985,22487.566
254,0.421517,24264.604
255,0.423183,24264.604
256,0.42485,25977.27
257,0.426517,27579.814
258,0.428183,27579.814
259,0.42985,29031.41
260,0.431517,30295.699
261,0.433183,31339.525
262,0.43485,31339.525
263,0.436517,32142.326
264,0.438183,32686.07
265,0.43985,32963.754
266,0.441517,32963.754
267,0.443183,32975.598
268,0.44485,32733.082
269,0.446517,32254.01
270,0.448183,32254.01
271,0.44985,31563.193
272,0.451533,30675.158
273,0.453183,30675.158
274,0.45485,29620.006
275,0.456517,28428.211
276,0.4582,27129.277
277,0.45985,27129.277
278,0.461517,25765.523
279,0.463183,24361.09
280,0.464833,22944.361
281,0.4665,22944.361
282,0.468167,21530.912
283,0.469833,20143.314
284,0.4715,18796.398
285,0.473167,18796.398
286,0.474883,17500.072
287,0.4765,16268.269
288,0.478167,16268.269
289,0.479833,15100.763
290,0.4815,14003.292
291,0.483167,12970.642
292,0.484833,12970.642
293,0.4865,12003.407
294,0.488167,11100.024
295,0.489833,10258.63
296,0.4915,10258.63
297,0.493167,9477.064
298,0.494833,8752.421
299,0.4965,8084.327
300,0.498167,8084.327
301,0.499833,7468.909
302,0.5014999999999999,6901.771
303,0.503167,6381.795
304,0.504833,6381.795
305,0.5065,5902.052
306,0.508283,5459.041
307,0.509833,5459.041
308,0.5115,5057.007
309,0.513167,4690.215
310,0.514833,4358.664
311,0.5165,4358.664
312,0.518167,4059.747
313,0.519833,3788.62
314,0.5215,3544.986
315,0.523167,3544.986
316,0.524817,3327.876
317,0.526483,3130.287
318,0.52815,2955.496
319,0.529817,2955.496
320,0.531483,2797.693
321,0.53315,2652.258
322,0.534817,2652.258
323,0.5365,2522.469
324,0.53815,2406.687
325,0.539817,2300.441
326,0.541483,2300.441
327,0.54315,2205.595
328,0.544817,2121.478
329,0.5464830000000001,2045.333
330,0.54815,2045.333
331,0.549817,1981.333
332,0.5514829999999999,1921.803
333,0.553167,1870.245
334,0.554817,1870.245
335,0.5564829999999999,1821.22
336,0.55815,1773.76
337,0.559817,1735.166
338,0.561483,1735.166
339,0.56315,1698.434
340,0.564817,1665.801
341,0.566483,1665.801
342,0.56815,1638.383
343,0.569817,1609.996
344,0.571483,1585.782
345,0.57315,1585.782
346,0.574817,1561.642
347,0.576483,1540.259
348,0.5781500000000001,1523.197
349,0.579817,1523.197
350,0.581483,1504.496
351,0.5831499999999999,1490.414
352,0.5848,1475.885
353,0.586467,1475.885
354,0.588133,1461.282
355,0.5898,1449.361
356,0.591467,1449.361
357,0.5931999999999999,1437.813
358,0.5948,1425.147
359,0.596467,1415.089
360,0.598133,1415.089
361,0.5998,1406.968
362,0.601467,1398.399
363,0.603167,1392.961
364,0.6048,1392.961
365,0.606467,1385.584
366,0.608133,1376.644
367,0.609867,1369.566
368,0.611467,1369.566
369,0.613133,1362.264
370,0.6148,1356.378
371,0.616467,1352.28
372,0.618133,1352.28
373,0.6198,1348.853
374,0.621467,1343.787
375,0.623133,1343.787
376,0.6248,1340.583
377,0.626567,1335.74
378,0.6281330000000001,1327.991
379,0.6298,1327.991
380,0.631467,1320.392
381,0.6331329999999999,1315.549
382,0.6348,1310.855
383,0.636467,1310.855
384,0.638133,1308.918
385,0.6398,1311.228
386,0.641483,1306.31
387,0.6432330000000001,1306.31
388,0.6448,1304.448
389,0.646433,1302.213
390,0.6481,1302.213
391,0.649767,1298.413
392,0.651433,1297.221
393,0.6531,1292.005
394,0.654767,1292.005
395,0.656433,1289.472
396,0.6581,1286.864
397,0.659767,1286.715
398,0.661433,1286.715
399,0.6631,1285.002
400,0.664767,1285.002
401,0.6664330000000001,1282.021
402,0.6681,1282.021
403,0.669767,1276.955
404,0.6714329999999999,1277.924
405,0.6731,1277.924
406,0.674767,1271.516
407,0.676433,1269.206
408,0.6781,1270.1
409,0.679767,1270.1
410,0.681433,1265.556
411,0.6831,1265.258
412,0.684767,1262.352
413,0.686433,1262.352
414,0.6881,1257.434
415,0.689767,1259.595
416,0.691433,1257.583
417,0.6931,1257.583
418,0.694767,1257.733
419,0.696433,1255.348
420,0.6981000000000001,1250.058
421,0.699767,1250.058
422,0.701433,1251.176
423,0.7030999999999999,1250.505
424,0.70475,1250.505
425,0.706417,1252.368
426,0.708083,1251.772
427,0.70975,1247.674
428,0.711417,1247.674
429,0.713083,1244.992
430,0.71475,1243.129
431,0.716433,1242.682
432,0.718083,1242.682
433,0.71975,1242.608
434,0.721417,1243.949
435,0.723083,1241.341
436,0.72475,1241.341
437,0.726417,1241.863
438,0.728167,1239.851
439,0.72975,1239.851
440,0.731417,1235.902
441,0.733083,1234.114
442,0.73475,1231.283
443,0.736417,1231.283
444,0.738083,1228.824
445,0.73975,1224.801
446,0.741417,1227.93
447,0.743083,1227.93
448,0.744833,1228.228
449,0.746417,1230.836
450,0.7480830000000001,1233.146
451,0.74975,1233.146
452,0.751417,1229.048
453,0.7530829999999999,1226.738
454,0.75475,1228.079
455,0.756417,1228.079
456,0.758083,1230.091
457,0.75975,1231.656
458,0.761533,1234.859
459,0.763083,1234.859
460,0.764733,1231.134
461,0.7664,1228.377
462,0.7680670000000001,1228.377
463,0.769733,1226.887
464,0.7714,1224.205
465,0.7730669999999999,1224.205
466,0.774733,1224.205
467,0.7764,1225.323
468,0.778067,1226.44
469,0.779733,1225.993
470,0.7814,1225.993
471,0.783067,1227.632
472,0.784733,1228.228
473,0.7864,1228.228
474,0.788067,1225.62
475,0.789733,1226.291
476,0.7914,1225.397
477,0.793067,1225.397
478,0.794733,1226.068
479,0.7964,1230.165
480,0.798067,1227.558
481,0.799733,1227.558
482,0.8014,1224.875
483,0.803067,1220.182
484,0.804733,1217.648
485,0.8064,1217.648
486,0.808067,1219.884
487,0.809733,1219.809
488,0.8114,1218.244
489,0.813067,1218.244
490,0.814733,1213.029
491,0.8164,1208.559
492,0.818067,1208.559
493,0.819733,1205.951
494,0.8214,1207.963
495,0.823067,1211.762
496,0.824717,1211.762
497,0.826383,1212.88
498,0.82805,1218.542
499,0.829717,1216.456
500,0.831383,1216.456
501,0.83305,1214.519
502,0.834717,1215.115
503,0.836383,1212.507
504,0.83805,1212.507
505,0.839717,1215.935
506,0.841383,1217.872
507,0.84305,1217.872
508,0.8447170000000001,1220.629
509,0.846417,1221.597
510,0.84805,1217.946
511,0.8497169999999999,1217.946
512,0.851383,1217.052
513,0.85305,1212.582
514,0.854733,1210.794
515,0.856383,1210.794
516,0.85805,1209.9
517,0.859717,1207.814
518,0.861383,1206.547
519,0.8631,1206.547
520,0.864717,1206.771
521,0.866383,1208.037
522,0.86805,1209.825
523,0.869717,1209.825
524,0.871383,1210.347
525,0.87305,1207.739
526,0.874717,1207.739
527,0.876383,1206.771
528,0.87805,1202.3
529,0.879833,1202.3
530,0.881383,1202.3
531,0.88305,1203.045
532,0.8847,1202.673
533,0.8864,1206.696
534,0.888033,1206.696
535,0.8897,1204.088
536,0.891367,1200.959
537,0.893033,1200.214
538,0.8947000000000001,1200.214
539,0.896367,1197.383
540,0.898033,1198.575
541,0.8997000000000001,1198.575
542,0.901367,1200.214
543,0.903033,1202.747
544,0.9046999999999999,1206.547
545,0.906367,1206.547
546,0.908033,1206.547
547,0.9097,1204.759
548,0.911367,1203.194
549,0.913033,1203.194
550,0.9147,1201.779
551,0.916367,1202.598
552,0.918033,1202.449
553,0.9197,1202.449
554,0.921367,1201.481
555,0.923033,1198.5
556,0.9247,1198.5
557,0.9263670000000001,1198.873
558,0.928033,1199.618
559,0.9297,1199.32
560,0.9313669999999999,1199.32
561,0.933033,1200.736
562,0.9347,1199.618
563,0.9363669999999999,1201.63
564,0.938017,1201.63
565,0.939683,1203.045
566,0.94135,1200.661
567,0.943017,1196.563
568,0.944667,1196.563
569,0.946333,1194.701
570,0.948,1193.657
571,0.9497,1197.979
572,0.951333,1197.979
573,0.953,1204.759
574,0.954667,1204.833
575,0.956333,1204.833
576,0.958,1205.057
577,0.959667,1201.406
578,0.961333,1197.01
579,0.963,1197.01
580,0.9646670000000001,1197.234
581,0.966333,1198.426
582,0.968,1198.5
583,0.9696669999999999,1198.5
584,0.971333,1196.787
585,0.973,1193.956
586,0.974667,1192.093
587,0.976333,1192.093
588,0.978,1192.465
589,0.979667,1194.999
590,0.981333,1194.999
591,0.983,1196.861
592,0.984667,1194.775
593,0.986333,1193.583
594,0.988,1193.583
595,0.989667,1190.901
596,0.991333,1191.05
597,0.993,1192.167
598,0.994667,1192.167
599,0.996333,1191.944
600,0.998117,1194.999
601,0.999667,1194.254
602,1.001333,1194.254
603,1.002983,1192.763
604,1.00465,1191.422
605,1.006317,1192.54
606,1.007983,1192.54
607,1.00965,1193.657
608,1.011317,1194.328
609,1.012983,1194.328
610,1.01465,1195.52
611,1.016317,1194.924
612,1.017983,1193.136
613,1.01965,1193.136
614,1.021317,1194.85
