"ID","sea_time","fid_signal"
1,0,139.602
2,0.001667,139.885
3,0.003333,139.885
4,0.005,140.019
5,0.006667,140.145
6,0.008333,139.937
7,0.01,139.937
8,0.011667,139.587
9,0.013333,139.453
10,0.015,139.654
11,0.016667,139.654
12,0.018317,139.847
13,0.019983,140.287
14,0.02165,140.376
15,0.023317,140.376
16,0.024983,140.16
17,0.02665,140.212
18,0.028317,139.989
19,0.029983,139.989
20,0.03165,139.892
21,0.033317,140.123
22,0.034983,140.123
23,0.03665,139.996
24,0.038317,140.138
25,0.04005,140.406
26,0.04165,140.406
27,0.043317,140.168
28,0.044983,140.063
29,0.04665,140.093
30,0.048317,140.093
31,0.049983,139.914
32,0.05165,139.967
33,0.053317,139.929
34,0.054983,139.929
35,0.05665,139.706
36,0.058317,139.527
37,0.059983,139.527
38,0.061633,139.453
39,0.0633,139.736
40,0.064967,140.004
41,0.066633,140.004
42,0.0683,140.011
43,0.069967,140.011
44,0.071633,140.116
45,0.073417,140.116
46,0.07496700000000001,139.9
47,0.076617,140.086
48,0.07829999999999999,140.272
49,0.07994999999999999,140.272
50,0.081617,139.855
51,0.083283,140.034
52,0.084967,139.989
53,0.08666699999999999,139.989
54,0.088283,139.795
55,0.08995,139.952
56,0.091617,139.952
57,0.093283,139.788
58,0.094967,139.654
59,0.09661699999999999,139.624
60,0.098283,139.624
61,0.09995,139.564
62,0.101617,139.423
63,0.103283,139.505
64,0.10495,139.505
65,0.106617,139.736
66,0.108283,139.862
67,0.10995,139.9
68,0.111617,139.9
69,0.113283,139.758
70,0.11495,139.52
71,0.116617,139.52
72,0.118283,139.304
73,0.11995,139.639
74,0.121617,139.929
75,0.123283,139.929
76,0.12495,139.907
77,0.126617,140.145
78,0.128283,140.19
79,0.12995,140.19
80,0.131617,140.205
81,0.133283,140.324
82,0.13495,140.108
83,0.136617,140.108
84,0.138267,139.676
85,0.139933,139.542
86,0.1416,139.542
87,0.143267,139.453
88,0.144933,139.453
89,0.1466,139.907
90,0.148267,139.907
91,0.149933,140.108
92,0.1516,140.585
93,0.153267,140.667
94,0.154933,140.667
95,0.1566,140.235
96,0.158317,140.294
97,0.159933,140.22
98,0.1616,140.22
99,0.163267,140.443
100,0.164933,140.57
101,0.1666,140.22
102,0.168267,140.22
103,0.169933,140.086
104,0.1716,139.825
105,0.173267,139.825
106,0.175,139.773
107,0.1766,139.803
108,0.178267,139.885
109,0.179933,139.885
110,0.1816,140.034
111,0.183267,140.242
112,0.184933,140.451
113,0.1866,140.451
114,0.188267,140.354
115,0.189933,140.436
116,0.1917,140.421
117,0.193267,140.421
118,0.194933,140.563
119,0.1966,140.317
120,0.19825,140.317
121,0.199917,140.183
122,0.201583,140.168
123,0.20325,140.019
124,0.204917,140.019
125,0.206583,140.406
126,0.20825,140.399
127,0.209917,140.28
128,0.211583,140.28
129,0.21325,140.339
130,0.214917,140.101
131,0.2166,140.205
132,0.21825,140.205
133,0.219917,140.458
134,0.221583,140.16
135,0.22325,140.093
136,0.224917,140.093
137,0.226583,139.929
138,0.22825,139.855
139,0.229917,139.855
140,0.231583,139.885
141,0.23325,140.026
142,0.234917,140.25
143,0.236583,140.25
144,0.23825,140.093
145,0.239917,140.287
146,0.241583,140.212
147,0.24325,140.212
148,0.244917,140.123
149,0.246583,139.959
150,0.24825,139.914
151,0.249917,139.914
152,0.251583,139.788
153,0.25325,139.542
154,0.254917,139.542
155,0.256583,139.706
156,0.258233,139.877
157,0.2599,139.907
158,0.261567,139.907
159,0.263233,140.235
160,0.2649,140.317
161,0.266567,140.123
162,0.268233,140.123
163,0.2699,140.369
164,0.271567,140.212
165,0.273233,139.959
166,0.2749,139.959
167,0.276617,139.967
168,0.278233,139.81
169,0.2799,139.669
170,0.281567,139.669
171,0.283233,139.736
172,0.2849,139.624
173,0.286567,139.624
174,0.288233,139.527
175,0.2899,139.534
176,0.291567,139.572
177,0.293333,139.572
178,0.2949,139.683
179,0.296583,139.758
180,0.298283,140.093
181,0.2999,140.093
182,0.301567,140.063
183,0.303233,139.862
184,0.3049,139.78
185,0.306567,139.78
186,0.308233,139.654
187,0.309983,139.803
188,0.311567,139.803
189,0.313233,140.317
190,0.3149,140.578
191,0.31655,140.384
192,0.318217,140.384
193,0.319883,140.25
194,0.32155,139.78
195,0.323233,139.52
196,0.324883,139.52
197,0.32655,139.534
198,0.328217,139.415
199,0.329883,139.661
200,0.33155,139.661
201,0.333217,139.937
202,0.334883,140.212
203,0.33655,140.443
204,0.338217,140.443
205,0.339883,140.503
206,0.34155,140.242
207,0.343217,140.242
208,0.344883,139.922
209,0.34655,140.16
210,0.348217,139.795
211,0.349883,139.795
212,0.35155,139.81
213,0.3532,139.892
214,0.354867,139.832
215,0.356533,139.832
216,0.3582,140.317
217,0.359867,140.563
218,0.361533,140.846
219,0.3632,140.846
220,0.364867,140.794
221,0.366533,140.883
222,0.368233,140.883
223,0.369867,141.174
224,0.371533,141.494
225,0.3732,142.135
226,0.374867,142.135
227,0.376533,142.977
228,0.378183,144.079
229,0.37985,145.949
230,0.381517,145.949
231,0.383183,147.916
232,0.38485,150.025
233,0.386517,152.871
234,0.388183,152.871
235,0.38985,155.911
236,0.391517,160.232
237,0.393183,160.232
238,0.394867,165.813
239,0.396517,172.95
240,0.398183,181.928
241,0.39985,181.928
242,0.401517,193.141
243,0.403183,207.603
244,0.40485,225.611
245,0.406517,225.611
246,0.408183,248.291
247,0.40985,276.662
248,0.411617,311.792
249,0.413183,311.792
250,0.41485,354.953
251,0.416517,408.053
252,0.418183,472.344
253,0.41985,472.344
254,0.421517,549.816
255,0.423183,642.456
256,0.42485,642.456
257,0.426517,751.13
258,0.428183,877.067
259,0.42985,1020.446
260,0.431517,1020.446
261,0.433183,1181.424
262,0.43485,1359.753
263,0.436517,1554.482
264,0.438167,1554.482
265,0.439833,1764.417
266,0.4415,1987.033
267,0.4432,2219.707
268,0.444833,2219.707
269,0.446533,2459.139
270,0.448167,2701.037
271,0.449833,2701.037
272,0.4515,2941.892
273,0.453167,3177.963
274,0.454833,3405.869
275,0.4565,3405.869
276,0.458167,3622.897
277,0.459833,3825.784
278,0.4615,4012.182
279,0.463167,4012.182
280,0.464833,4179.381
281,0.4665,4325.643
282,0.468167,4450.344
283,0.469833,4450.344
284,0.4715,4552.528
285,0.473167,4632.033
286,0.474833,4689.358
287,0.4765,4689.358
288,0.478167,4724.815
289,0.479833,4739.538
290,0.4815,4739.538
291,0.483167,4734.717
292,0.484833,4711.68
293,0.4865,4672.17
294,0.488167,4672.17
295,0.489833,4617.788
296,0.4915,4550.725
297,0.493167,4472.479
298,0.494833,4472.479
299,0.4965,4384.711
300,0.498167,4288.837
301,0.499817,4186.325
302,0.501483,4186.325
303,0.50315,4078.791
304,0.504817,3967.449
305,0.506483,3967.449
306,0.50815,3853.522
307,0.509817,3738.478
308,0.511483,3622.934
309,0.51325,3622.934
310,0.514817,3507.361
311,0.516483,3392.704
312,0.51815,3279.246
313,0.519817,3279.246
314,0.521483,3167.652
315,0.52315,3058.404
316,0.524817,2951.682
317,0.526483,2951.682
318,0.52815,2847.604
319,0.529867,2746.5
320,0.531483,2648.681
321,0.53315,2648.681
322,0.534817,2553.843
323,0.536483,2462.618
324,0.53815,2462.618
325,0.539817,2374.53
326,0.541483,2289.37
327,0.54315,2207.778
328,0.544817,2207.778
329,0.54655,2129.115
330,0.54815,2053.581
331,0.549817,1981.318
332,0.5514829999999999,1981.318
333,0.55315,1912.214
334,0.554817,1846.261
335,0.5564829999999999,1782.894
336,0.558133,1782.894
337,0.5598,1722.701
338,0.561467,1664.877
339,0.563267,1609.378
340,0.5648,1609.378
341,0.5664670000000001,1556.456
342,0.568133,1505.472
343,0.5698,1505.472
344,0.5714669999999999,1457.095
345,0.573133,1410.849
346,0.5748,1366.936
347,0.576467,1366.936
348,0.578133,1324.907
349,0.5798,1284.346
350,0.581467,1245.514
351,0.583133,1245.514
352,0.5848,1208.208
353,0.586483,1172.744
354,0.588133,1172.744
355,0.5898,1138.903
356,0.591467,1106.24
357,0.593133,1075.134
358,0.5948,1075.134
359,0.596467,1045.384
360,0.598133,1016.751
361,0.5998,989.526
362,0.601483,989.526
363,0.603133,963.561
364,0.6048,938.572
365,0.606467,914.4400000000001
366,0.608133,914.4400000000001
367,0.6098,891.6180000000001
368,0.611467,869.341
369,0.613133,847.518
370,0.6148,847.518
371,0.616467,827.052
372,0.618117,807.151
373,0.6198,807.151
374,0.6214499999999999,787.899
375,0.623117,769.794
376,0.624783,752.419
377,0.62645,752.419
378,0.628117,735.827
379,0.629783,719.7190000000001
380,0.63145,703.953
381,0.633117,703.953
382,0.634783,689
383,0.63645,674.479
384,0.638117,660.524
385,0.639783,660.524
386,0.64145,647.232
387,0.6431,633.977
388,0.644767,633.977
389,0.646433,621.237
390,0.6481,608.973
391,0.649767,597.3579999999999
392,0.651433,597.3579999999999
393,0.6531,586.189
394,0.654767,575.192
395,0.656433,564.933
396,0.6581,564.933
397,0.659767,554.927
398,0.661433,545.397
399,0.6631,536.375
400,0.6647999999999999,536.375
401,0.6664330000000001,527.255
402,0.6681,518.277
403,0.669767,509.255
404,0.6714329999999999,509.255
405,0.6731,500.754
406,0.674767,492.543
407,0.676433,492.543
408,0.678083,484.623
409,0.67975,477.105
410,0.681517,469.677
411,0.683083,469.677
412,0.68475,462.741
413,0.6864170000000001,455.685
414,0.688083,449.173
415,0.68975,449.173
416,0.6914169999999999,442.639
417,0.693083,436.023
418,0.69475,429.884
419,0.696417,429.884
420,0.698083,423.886
421,0.69975,417.985
422,0.701417,417.985
423,0.703083,412.494
424,0.70475,407.338
425,0.706417,401.855
426,0.708083,401.855
427,0.70975,396.788
428,0.711417,391.856
429,0.713083,386.804
430,0.71475,386.804
431,0.716417,382.029
432,0.718083,377.26
433,0.71975,372.678
434,0.721417,372.678
435,0.723083,368.424
436,0.72475,364.542
437,0.726433,360.511
438,0.728083,360.511
439,0.72975,356.652
440,0.731417,352.837
441,0.733083,352.837
442,0.73475,348.724
443,0.736417,345.26
444,0.738067,341.87
445,0.739733,341.87
446,0.7413999999999999,338.018
447,0.743067,334.404
448,0.744733,330.701
449,0.7464,330.701
450,0.748067,327.364
451,0.749733,324.637
452,0.7514,321.716
453,0.753067,321.716
454,0.754733,318.892
455,0.7564,315.808
456,0.758067,315.808
457,0.759733,312.544
458,0.7614,309.408
459,0.7630670000000001,306.45
460,0.764733,306.45
461,0.766483,303.492
462,0.7680670000000001,300.951
463,0.769733,298.738
464,0.7714,298.738
465,0.7730669999999999,296.406
466,0.774733,294.32
467,0.7764,291.884
468,0.778067,291.884
469,0.779733,289.343
470,0.7814,287.227
471,0.783067,287.227
472,0.784733,285.014
473,0.7864,282.995
474,0.788067,281.267
475,0.789733,281.267
476,0.7914,279.233
477,0.793067,276.729
478,0.794733,274.643
479,0.7964,274.643
480,0.79805,272.579
481,0.7998499999999999,270.344
482,0.801383,268.66
483,0.80305,268.66
484,0.804733,266.828
485,0.806383,265.017
486,0.80805,263.117
487,0.809717,263.117
488,0.811383,261.597
489,0.8130500000000001,260.077
490,0.814717,260.077
491,0.816383,258.446
492,0.8180500000000001,256.941
493,0.819717,254.944
494,0.821383,254.944
495,0.8230499999999999,253.335
496,0.824717,251.867
497,0.826383,250.757
498,0.82805,250.757
499,0.829717,249.505
500,0.831383,248.089
501,0.83305,246.331
502,0.834717,246.331
503,0.836383,244.796
504,0.83805,243.366
505,0.839717,243.366
506,0.841383,242.032
507,0.84305,240.825
508,0.8447170000000001,239.208
509,0.846383,239.208
510,0.84805,237.785
511,0.8497169999999999,236.288
512,0.851383,235.058
513,0.85305,235.058
514,0.8547169999999999,233.866
515,0.856383,233.062
516,0.85805,232.22
517,0.8597,232.22
518,0.861367,231.072
519,0.8630330000000001,230.171
520,0.8647,229.008
521,0.866367,229.008
522,0.8680330000000001,227.839
523,0.8697,226.893
524,0.871383,226.893
525,0.8730329999999999,225.678
526,0.8747,224.449
527,0.876367,223.391
528,0.878033,223.391
529,0.8797,222.31
530,0.881367,221.357
531,0.883033,220.314
532,0.88475,220.314
533,0.886367,219.263
534,0.888033,218.414
535,0.8897,217.482
536,0.891367,217.482
537,0.893033,216.767
538,0.8947000000000001,216.216
539,0.896367,216.216
540,0.898033,215.478
541,0.8997000000000001,214.703
542,0.901367,213.869
543,0.903033,213.869
544,0.9046999999999999,213.079
545,0.906367,212.2
546,0.908033,211.313
547,0.9097,211.313
548,0.911367,210.658
549,0.913033,209.384
550,0.9147,208.46
551,0.916367,208.46
552,0.91815,207.759
553,0.919683,206.999
554,0.92135,206.403
555,0.923017,206.403
556,0.924683,205.867
557,0.92635,205.122
558,0.928017,205.122
559,0.929683,204.526
560,0.93135,203.96
561,0.933017,203.304
562,0.934667,203.304
563,0.936333,203.125
564,0.9379999999999999,202.492
565,0.939667,201.754
566,0.941333,201.754
567,0.9429999999999999,200.972
568,0.944667,200.085
569,0.946333,199.623
570,0.948017,199.623
571,0.949667,199.05
572,0.951333,198.67
573,0.953,198.67
574,0.954667,198.126
575,0.956333,197.433
576,0.958,197.075
577,0.959667,197.075
578,0.961333,196.405
579,0.963,195.749
580,0.9646670000000001,195.041
581,0.966333,195.041
582,0.968,194.468
583,0.9696669999999999,193.67
584,0.971333,193.022
585,0.973,193.022
586,0.974667,192.426
587,0.976317,191.711
588,0.977983,191.711
589,0.97965,191.361
590,0.981317,190.988
591,0.9829830000000001,190.787
592,0.98465,190.787
593,0.986317,190.653
594,0.9879829999999999,190.169
595,0.98965,189.848
596,0.991317,189.848
597,0.9929829999999999,189.066
598,0.99465,188.246
599,0.996317,187.986
600,0.997983,187.986
601,0.99965,187.583
602,1.001317,187.367
603,1.00305,186.98
604,1.00465,186.98
605,1.006317,186.607
606,1.007983,186.168
607,1.00965,186.168
608,1.011317,185.527
609,1.012983,185.244
610,1.01465,184.685
611,1.016317,184.685
612,1.018017,184.134
613,1.019667,184
614,1.021317,183.843
615,1.022983,183.843
