"ID","sea_time","fid_signal"
1,0,37.26
2,0.001667,37.26
3,0.003333,37.254
4,0.005,37.215
5,0.006667,37.084
6,0.008333,37.084
7,0.01,36.923
8,0.011667,36.798
9,0.013333,36.756
10,0.015,36.756
11,0.016733,36.845
12,0.018333,37.027
13,0.02,37.169
14,0.02165,37.169
15,0.023317,37.222
16,0.025017,37.257
17,0.02665,37.257
18,0.028317,37.231
19,0.029983,37.183
20,0.03165,37.19
21,0.03345,37.19
22,0.034983,37.169
23,0.03665,37.175
24,0.038317,37.192
25,0.039983,37.192
26,0.04165,37.202
27,0.043317,37.21
28,0.044983,37.221
29,0.04665,37.221
30,0.048317,37.241
31,0.049983,37.224
32,0.051667,37.224
33,0.053317,37.211
34,0.054983,37.222
35,0.05665,37.211
36,0.058317,37.211
37,0.059983,37.228
38,0.06165,37.242
39,0.063317,37.24
40,0.064983,37.24
41,0.06665,37.224
42,0.068317,37.199
43,0.069983,37.158
44,0.07165000000000001,37.158
45,0.07331699999999999,37.123
46,0.07498299999999999,37.117
47,0.07665,37.103
48,0.078317,37.103
49,0.079983,37.128
50,0.081633,37.139
51,0.0833,37.139
52,0.084967,37.143
53,0.086633,37.167
54,0.0883,37.161
55,0.08996700000000001,37.161
56,0.09163300000000001,37.158
57,0.09329999999999999,37.149
58,0.094983,37.135
59,0.096633,37.135
60,0.0983,37.137
61,0.099967,37.124
62,0.101633,37.157
63,0.1033,37.157
64,0.104967,37.175
65,0.106633,37.177
66,0.1083,37.177
67,0.109967,37.207
68,0.111633,37.217
69,0.1133,37.212
70,0.114967,37.212
71,0.116633,37.198
72,0.118367,37.175
73,0.119967,37.145
74,0.121633,37.145
75,0.1233,37.156
76,0.124967,37.163
77,0.126633,37.164
78,0.1283,37.164
79,0.13,37.165
80,0.131633,37.133
81,0.1333,37.12
82,0.134967,37.12
83,0.136633,37.117
84,0.1383,37.102
85,0.139967,37.102
86,0.141617,37.122
87,0.143283,37.115
88,0.14495,37.108
89,0.146617,37.108
90,0.148283,37.116
91,0.14995,37.101
92,0.151733,37.118
93,0.153283,37.118
94,0.15495,37.135
95,0.156617,37.168
96,0.158283,37.187
97,0.15995,37.187
98,0.161617,37.207
99,0.163283,37.227
100,0.16495,37.227
101,0.166617,37.208
102,0.168317,37.175
103,0.16995,37.182
104,0.171617,37.182
105,0.173283,37.155
106,0.17495,37.142
107,0.176633,37.155
108,0.178283,37.155
109,0.17995,37.131
110,0.181617,37.164
111,0.183283,37.187
112,0.18495,37.187
113,0.186617,37.173
114,0.188283,37.189
115,0.18995,37.161
116,0.191617,37.161
117,0.193283,37.144
118,0.19495,37.172
119,0.196617,37.172
120,0.198283,37.152
121,0.19995,37.169
122,0.2016,37.161
123,0.203267,37.161
124,0.204933,37.15
125,0.2066,37.17
126,0.208267,37.149
127,0.209933,37.149
128,0.2116,37.179
129,0.213267,37.199
130,0.214933,37.202
131,0.216633,37.202
132,0.218267,37.228
133,0.219933,37.233
134,0.2216,37.233
135,0.223267,37.191
136,0.224933,37.166
137,0.2266,37.133
138,0.228267,37.133
139,0.229933,37.12
140,0.2316,37.14
141,0.2333,37.123
142,0.234933,37.123
143,0.23665,37.123
144,0.238267,37.112
145,0.239933,37.099
146,0.2416,37.099
147,0.243267,37.117
148,0.244917,37.137
149,0.246583,37.137
150,0.24825,37.134
151,0.249917,37.16
152,0.251583,37.186
153,0.25325,37.186
154,0.254917,37.196
155,0.256583,37.246
156,0.25825,37.273
157,0.259917,37.273
158,0.261567,37.292
159,0.263233,37.262
160,0.2649,37.204
161,0.266567,37.204
162,0.268233,37.162
163,0.270017,37.128
164,0.271567,37.138
165,0.273233,37.138
166,0.2749,37.175
167,0.276567,37.175
168,0.278233,37.175
169,0.2799,37.169
170,0.281567,37.193
171,0.283233,37.185
172,0.2849,37.185
173,0.286567,37.218
174,0.288233,37.204
175,0.2899,37.175
176,0.291567,37.175
177,0.293233,37.172
178,0.2949,37.141
179,0.296567,37.172
180,0.298233,37.172
181,0.2999,37.18
182,0.301567,37.164
183,0.303233,37.164
184,0.3049,37.16
185,0.306567,37.169
186,0.308233,37.19
187,0.3099,37.19
188,0.311567,37.213
189,0.313233,37.217
190,0.3149,37.201
191,0.316567,37.201
192,0.318233,37.175
193,0.3199,37.175
194,0.321567,37.196
195,0.323217,37.196
196,0.324883,37.182
197,0.32655,37.209
198,0.328217,37.21
199,0.329883,37.21
200,0.33155,37.2
201,0.333217,37.203
202,0.334883,37.203
203,0.33655,37.173
204,0.338217,37.15
205,0.339883,37.149
206,0.34155,37.149
207,0.343217,37.162
208,0.344883,37.175
209,0.34655,37.169
210,0.348217,37.169
211,0.349883,37.175
212,0.351567,37.194
213,0.353217,37.22
214,0.354933,37.22
215,0.35655,37.249
216,0.358217,37.266
217,0.359883,37.266
218,0.36155,37.269
219,0.363217,37.274
220,0.364883,37.273
221,0.36655,37.273
222,0.368217,37.254
223,0.369883,37.248
224,0.37155,37.251
225,0.373217,37.251
226,0.374883,37.266
227,0.37655,37.289
228,0.378217,37.306
229,0.3799,37.306
230,0.381533,37.348
231,0.3832,37.39
232,0.384867,37.39
233,0.386533,37.407
234,0.388317,37.434
235,0.389867,37.432
236,0.391533,37.432
237,0.3932,37.462
238,0.394867,37.5
239,0.396533,37.54
240,0.3982,37.54
241,0.399867,37.579
242,0.401533,37.622
243,0.4032,37.674
244,0.404867,37.674
245,0.406533,37.76
246,0.4082,37.871
247,0.409867,37.962
248,0.411533,37.962
249,0.4132,38.105
250,0.414867,38.253
251,0.416533,38.253
252,0.4182,38.379
253,0.419867,38.557
254,0.421533,38.756
255,0.4232,38.756
256,0.424867,38.975
257,0.426533,39.285
258,0.4282,39.592
259,0.429867,39.592
260,0.431533,39.951
261,0.4332,40.366
262,0.434867,40.789
263,0.436533,40.789
264,0.4382,41.329
265,0.439867,41.915
266,0.441533,41.915
267,0.443183,42.591
268,0.44485,43.378
269,0.446517,44.294
270,0.448183,44.294
271,0.44985,45.335
272,0.451517,46.526
273,0.453233,47.901
274,0.45485,47.901
275,0.456517,49.431
276,0.4582,51.191
277,0.45985,53.152
278,0.461517,53.152
279,0.463183,55.312
280,0.46485,57.786
281,0.466517,60.538
282,0.468183,60.538
283,0.46985,63.58
284,0.471517,67.004
285,0.473183,67.004
286,0.47485,70.70999999999999
287,0.476517,74.773
288,0.478183,79.197
289,0.47985,79.197
290,0.481517,84.002
291,0.483183,89.196
292,0.48485,94.78700000000001
293,0.486517,94.78700000000001
294,0.488183,100.84
295,0.48995,107.29
296,0.491517,114.178
297,0.493183,114.178
298,0.49485,121.44
299,0.496517,129.037
300,0.498183,129.037
301,0.49985,137.041
302,0.5014999999999999,145.429
303,0.503167,154.225
304,0.504833,154.225
305,0.506583,163.449
306,0.508167,172.944
307,0.509833,182.714
308,0.5115,182.714
309,0.513167,192.795
310,0.514833,203.144
311,0.5165,213.802
312,0.518167,213.802
313,0.519833,224.791
314,0.5215,236.026
315,0.5232830000000001,247.493
316,0.524833,247.493
317,0.526533,259.206
318,0.5281670000000001,271.127
319,0.529833,271.127
320,0.5315,283.242
321,0.5331669999999999,295.53
322,0.534833,307.99
323,0.536483,307.99
324,0.53815,320.529
325,0.539817,333.206
326,0.541483,346.047
327,0.54315,346.047
328,0.544817,359.005
329,0.5465,372.14
330,0.54815,385.368
331,0.549817,385.368
332,0.5514829999999999,398.596
333,0.55315,411.848
334,0.554817,411.848
335,0.5564829999999999,425.067
336,0.55815,438.276
337,0.559817,451.498
338,0.561467,451.498
339,0.563133,464.717
340,0.5648,477.899
341,0.5664670000000001,490.98
342,0.568133,490.98
343,0.5698,503.946
344,0.5714669999999999,516.874
345,0.573133,529.744
346,0.5748,529.744
347,0.576467,542.543
348,0.578133,555.198
349,0.5798,555.198
350,0.581467,567.623
351,0.583133,579.841
352,0.5848,591.934
353,0.586467,591.934
354,0.588133,603.92
355,0.5898330000000001,615.74
356,0.591467,627.389
357,0.593133,627.389
358,0.5948,638.782
359,0.596467,649.963
360,0.598133,660.937
361,0.5998,660.937
362,0.601467,671.724
363,0.603133,682.29
364,0.6048,692.658
365,0.606467,692.658
366,0.608183,702.859
367,0.6098,712.8579999999999
368,0.611467,712.8579999999999
369,0.613133,722.662
370,0.6148,732.172
371,0.616467,741.403
372,0.618133,741.403
373,0.6198,750.326
374,0.6214499999999999,758.934
375,0.623117,767.242
376,0.6249,767.242
377,0.62645,775.222
378,0.628117,782.927
379,0.629783,790.424
380,0.63145,790.424
381,0.6331329999999999,797.724
382,0.634783,804.806
383,0.63645,804.806
384,0.638117,811.628
385,0.639783,818.191
386,0.641567,824.491
387,0.643117,824.491
388,0.644783,830.495
389,0.64645,836.235
390,0.6481170000000001,841.673
391,0.649783,841.673
392,0.65145,846.8630000000001
393,0.6531169999999999,851.7910000000001
394,0.654783,856.421
395,0.65645,856.421
396,0.658117,860.824
397,0.659783,864.997
398,0.66145,868.9880000000001
399,0.663117,868.9880000000001
400,0.664783,872.749
401,0.666467,876.237
402,0.668117,876.237
403,0.669783,879.458
404,0.67145,882.4
405,0.673117,885.104
406,0.674783,885.104
407,0.67645,887.556
408,0.678117,889.826
409,0.679783,891.902
410,0.681433,891.902
411,0.6831,893.766
412,0.684767,895.447
413,0.686433,896.864
414,0.6881,896.864
415,0.689767,898.0839999999999
416,0.691433,899.134
417,0.6931,899.134
418,0.694767,899.95
419,0.696433,900.539
420,0.6981000000000001,900.866
421,0.699767,900.866
422,0.701433,900.95
423,0.7030999999999999,900.903
424,0.704767,900.7190000000001
425,0.706433,900.7190000000001
426,0.7081,900.417
427,0.709767,900.016
428,0.711433,899.4059999999999
429,0.7131,899.4059999999999
430,0.714767,898.592
431,0.716433,897.593
432,0.7181,896.388
433,0.719767,896.388
434,0.721433,895.029
435,0.7231,893.527
436,0.7247670000000001,893.527
437,0.72645,891.905
438,0.7281,890.11
439,0.7297670000000001,888.17
440,0.731433,888.17
441,0.7331,886.092
442,0.7347669999999999,883.849
443,0.736433,881.5119999999999
444,0.7381,881.5119999999999
445,0.73975,879.079
446,0.741417,876.557
447,0.743117,873.907
448,0.74475,873.907
449,0.746417,871.193
450,0.7480830000000001,868.414
451,0.74975,868.414
452,0.751417,865.494
453,0.7530829999999999,862.473
454,0.754767,859.366
455,0.756417,859.366
456,0.758083,856.099
457,0.759867,852.812
458,0.761417,849.471
459,0.763083,849.471
460,0.76475,846.002
461,0.766417,842.498
462,0.768083,838.862
463,0.76975,838.862
464,0.771417,835.177
465,0.773083,831.449
466,0.77475,827.662
467,0.776417,827.662
468,0.778083,823.8579999999999
469,0.7797500000000001,819.948
470,0.781417,819.948
471,0.783083,815.976
472,0.7847499999999999,811.932
473,0.786417,807.9160000000001
474,0.788083,807.9160000000001
475,0.78975,803.9109999999999
476,0.791417,799.792
477,0.793083,795.545
478,0.79475,795.545
479,0.796417,791.22
480,0.798083,786.8390000000001
481,0.79975,782.4829999999999
482,0.8014,782.4829999999999
483,0.803067,778.227
484,0.804733,773.871
485,0.8064,773.871
486,0.808117,769.468
487,0.809733,765.056
488,0.8114,760.6180000000001
489,0.813067,760.6180000000001
490,0.814733,756.186
491,0.8164,751.764
492,0.818067,747.311
493,0.819733,747.311
494,0.8214,742.85
495,0.823067,738.42
496,0.824733,733.947
497,0.826383,733.947
498,0.82805,729.471
499,0.829717,724.971
500,0.831383,724.971
501,0.83305,720.432
502,0.834717,715.851
503,0.836383,711.248
504,0.83805,711.248
505,0.839717,706.629
506,0.841383,701.997
507,0.84305,697.329
508,0.844733,697.329
509,0.846383,692.838
510,0.84805,688.342
511,0.8497169999999999,683.78
512,0.851383,683.78
513,0.85305,679.26
514,0.8547169999999999,674.614
515,0.856383,669.9880000000001
516,0.85805,669.9880000000001
517,0.859717,665.436
518,0.8614000000000001,660.913
519,0.8630330000000001,660.913
520,0.8647,656.3630000000001
521,0.866367,651.813
522,0.8680330000000001,647.274
523,0.8697,647.274
524,0.871367,642.7809999999999
525,0.8730329999999999,638.337
526,0.8747,633.913
527,0.876367,633.913
528,0.8780829999999999,629.539
529,0.8797,625.163
530,0.881367,620.785
531,0.883033,620.785
532,0.8847,616.431
533,0.886367,612.0890000000001
534,0.888033,612.0890000000001
535,0.8897,607.774
536,0.891367,603.432
537,0.893033,599.143
538,0.8947000000000001,599.143
539,0.896367,594.878
540,0.898033,590.581
541,0.8997000000000001,586.3680000000001
542,0.901367,586.3680000000001
543,0.903033,582.141
544,0.9046999999999999,577.886
545,0.906367,573.72
546,0.908033,573.72
547,0.9097,569.5839999999999
548,0.911367,565.481
549,0.913033,561.466
550,0.9147,561.466
551,0.916367,557.419
552,0.918033,553.37
553,0.9197,553.37
554,0.921367,549.268
555,0.923017,545.123
556,0.924683,541.019
557,0.92635,541.019
558,0.928017,536.928
559,0.9297,532.921
560,0.93135,528.923
561,0.933017,528.923
562,0.934683,524.949
563,0.93635,521.009
564,0.938017,517.096
565,0.939683,517.096
566,0.94135,513.247
567,0.943017,509.43
568,0.9446830000000001,509.43
569,0.946383,505.634
570,0.948017,501.897
571,0.9496830000000001,498.183
572,0.95135,498.183
573,0.953017,494.508
574,0.9546829999999999,490.811
575,0.95635,487.129
576,0.958017,487.129
577,0.959683,483.497
578,0.96135,479.846
579,0.963017,476.253
580,0.964683,476.253
581,0.96635,472.665
582,0.968017,469.075
583,0.969683,465.526
584,0.97135,465.526
585,0.973017,462.016
586,0.974683,458.532
587,0.9763500000000001,458.532
588,0.978017,455.033
589,0.979667,451.559
590,0.981333,448.107
591,0.983,448.107
592,0.984667,444.674
593,0.986333,441.298
594,0.988,437.969
595,0.989667,437.969
596,0.991333,434.68
597,0.993,431.433
598,0.994667,428.209
599,0.9964499999999999,428.209
600,0.998,425.041
601,0.999667,421.914
602,1.001333,421.914
603,1.003,418.776
604,1.004667,415.669
605,1.006333,412.553
606,1.008,412.553
607,1.009667,409.392
608,1.011333,406.25
609,1.013,403.16
610,1.014667,403.16
611,1.016333,400.06
612,1.018,397.041
613,1.019667,394.053
614,1.021333,394.053
615,1.023017,391.065
616,1.024667,388.177
617,1.026333,388.177
618,1.028,385.313
619,1.029667,382.473
620,1.031333,379.623
621,1.033,379.623
622,1.034667,376.781
623,1.036333,373.925
624,1.038,371.148
625,1.03965,371.148
626,1.041317,368.419
627,1.042983,365.678
628,1.04465,363.003
629,1.046317,363.003
630,1.047983,360.315
631,1.04965,357.632
632,1.051317,354.981
633,1.052983,354.981
634,1.05465,352.359
635,1.056317,349.761
636,1.057983,349.761
637,1.05965,347.197
638,1.061317,344.674
639,1.062983,342.115
640,1.06465,342.115
641,1.066317,339.607
642,1.067983,337.138
643,1.06965,334.678
644,1.071317,334.678
645,1.072983,332.271
646,1.07465,329.88
647,1.076317,327.513
648,1.077983,327.513
649,1.07965,325.203
650,1.081383,322.919
651,1.082983,322.919
652,1.08465,320.63
653,1.086317,318.34
654,1.087983,316.067
655,1.08965,316.067
656,1.091317,313.791
657,1.093,311.538
658,1.094667,309.326
659,1.096317,309.326
660,1.097967,307.076
661,1.09965,304.844
662,1.1013,302.626
663,1.102967,302.626
664,1.104633,300.431
665,1.1063,298.286
666,1.107967,296.195
667,1.109633,296.195
668,1.1113,294.12
669,1.112967,292.034
670,1.11475,289.977
671,1.1163,289.977
672,1.11795,287.943
673,1.119617,285.941
674,1.121283,285.941
675,1.12295,283.981
676,1.124617,281.999
677,1.126283,280.02
678,1.12795,280.02
679,1.129617,278.074
680,1.131283,276.11
681,1.13295,274.212
682,1.134617,274.212
683,1.136283,272.333
684,1.13795,270.461
685,1.139617,270.461
686,1.141283,268.631
687,1.14295,266.798
688,1.144617,264.972
689,1.146283,264.972
690,1.14795,263.158
691,1.149617,261.335
692,1.151283,259.523
693,1.15295,259.523
694,1.154617,257.747
695,1.156283,255.986
696,1.15795,254.279
697,1.159617,254.279
698,1.161267,252.573
699,1.162967,250.836
700,1.1646,250.836
701,1.1663,249.123
702,1.167933,247.435
703,1.1696,245.766
704,1.171267,245.766
705,1.172933,244.151
706,1.1746,242.557
707,1.176267,240.924
708,1.177933,240.924
709,1.1796,239.326
710,1.181267,237.714
711,1.182933,236.119
712,1.1846,236.119
713,1.186267,234.555
714,1.187933,233.035
715,1.1896,231.525
716,1.191267,231.525
717,1.192933,230.019
718,1.1946,228.517
719,1.196267,228.517
720,1.197933,226.981
721,1.199617,225.507
722,1.201267,224.028
723,1.202933,224.028
724,1.2046,222.576
725,1.206267,221.128
726,1.207933,219.699
727,1.2096,219.699
728,1.211267,218.279
729,1.212933,216.848
730,1.2146,215.456
731,1.216267,215.456
732,1.217917,214.03
733,1.2196,212.646
734,1.22125,212.646
735,1.222917,211.315
736,1.224583,209.957
737,1.22625,208.644
738,1.227917,208.644
739,1.229583,207.315
740,1.23125,205.972
741,1.233,204.66
742,1.234583,204.66
743,1.23625,203.366
744,1.237933,202.071
745,1.239583,200.832
746,1.24125,200.832
747,1.242917,199.626
748,1.244583,198.36
749,1.24625,197.13
750,1.247917,197.13
751,1.249583,195.879
752,1.25125,194.616
753,1.252917,194.616
754,1.254583,193.436
755,1.25625,192.267
756,1.257917,191.057
757,1.259583,191.057
758,1.26125,189.88
759,1.262917,188.705
760,1.264583,187.526
761,1.26625,187.526
762,1.267917,186.414
763,1.269583,185.323
764,1.27125,184.246
765,1.272917,184.246
766,1.274583,183.167
767,1.27625,182.107
768,1.277917,182.107
769,1.279583,181.026
770,1.281233,179.919
771,1.2829,178.817
772,1.284567,178.817
773,1.286233,177.709
774,1.2879,176.609
775,1.289567,175.542
776,1.291233,175.542
777,1.2929,174.524
778,1.294567,173.523
779,1.296233,172.532
780,1.2979,172.532
781,1.299567,171.543
782,1.301233,170.544
783,1.3029,169.534
784,1.304567,169.534
785,1.30625,168.557
786,1.307967,167.569
787,1.309567,167.569
788,1.311233,166.607
789,1.3129,165.654
790,1.314567,164.707
791,1.316233,164.707
792,1.317917,163.804
793,1.319567,162.877
794,1.321233,161.959
795,1.3229,161.959
796,1.324567,161
797,1.326233,160.04
798,1.3279,159.109
799,1.329567,159.109
800,1.331233,158.223
801,1.3329,157.37
802,1.334633,156.515
803,1.336233,156.515
804,1.3379,155.65
805,1.339567,154.789
806,1.341217,154.789
807,1.342883,153.93
808,1.34455,153.06
809,1.346217,152.238
810,1.347883,152.238
811,1.34955,151.396
812,1.351333,150.567
813,1.352883,149.789
814,1.35455,149.789
815,1.356217,148.989
816,1.357883,148.177
817,1.35955,147.37
818,1.361217,147.37
819,1.362883,146.563
820,1.36455,145.759
821,1.366217,145.759
822,1.367983,144.981
823,1.36955,144.223
824,1.371217,143.471
825,1.372883,143.471
826,1.37455,142.715
827,1.376217,141.987
828,1.377883,141.242
829,1.37955,141.242
830,1.381217,140.487
831,1.382883,139.768
832,1.38455,139.045
833,1.386233,139.045
834,1.387883,138.354
835,1.38955,137.682
836,1.391217,137.682
837,1.392883,136.984
838,1.39455,136.257
839,1.396217,135.577
840,1.397883,135.577
841,1.39955,134.893
842,1.4012,134.207
843,1.402867,133.535
844,1.404533,133.535
845,1.4062,132.862
846,1.407867,132.177
847,1.409517,131.539
848,1.411183,131.539
849,1.41285,130.91
850,1.414517,130.261
851,1.416183,130.261
852,1.41785,129.627
853,1.419517,128.971
854,1.421183,128.336
855,1.42285,128.336
856,1.424517,127.703
857,1.426183,127.053
858,1.42785,126.436
859,1.429517,126.436
860,1.431183,125.811
861,1.43285,125.198
862,1.434517,124.599
863,1.4362,124.599
864,1.43785,123.984
865,1.439517,123.364
866,1.441183,122.725
867,1.44285,122.725
868,1.444517,122.163
869,1.446183,121.59
870,1.44785,121.59
871,1.449517,121.035
872,1.451183,120.509
873,1.4529,119.907
874,1.454533,119.907
875,1.4562,119.323
876,1.45785,118.737
877,1.459517,118.168
878,1.461183,118.168
879,1.462833,117.621
880,1.4645,117.076
881,1.466167,116.575
882,1.467833,116.575
883,1.4696,116.058
884,1.471167,115.55
885,1.472833,115.55
886,1.4745,115.044
887,1.476167,114.508
888,1.477833,113.952
889,1.4795,113.952
890,1.481167,113.412
891,1.482833,112.896
892,1.4845,112.388
893,1.486267,112.388
894,1.487833,111.911
895,1.4895,111.434
896,1.491167,110.938
897,1.492833,110.938
898,1.4945,110.415
899,1.496167,109.939
900,1.497833,109.423
901,1.4995,109.423
902,1.501167,108.96
903,1.502833,108.51
904,1.5045,108.51
905,1.506167,107.975
906,1.507833,107.528
907,1.5095,107.086
908,1.511167,107.086
909,1.512833,106.65
910,1.5145,106.237
911,1.516167,105.795
912,1.517833,105.795
913,1.519483,105.347
914,1.52115,104.899
915,1.522817,104.443
916,1.524483,104.443
917,1.52615,103.993
918,1.52785,103.532
919,1.529533,103.532
920,1.53115,103.085
921,1.532817,102.657
922,1.534483,102.23
923,1.53615,102.23
924,1.537817,101.784
925,1.539483,101.363
926,1.54115,100.96
927,1.542817,100.96
928,1.544483,100.584
929,1.54615,100.205
930,1.547817,99.798
931,1.549483,99.798
932,1.55115,99.39100000000001
933,1.552817,98.953
934,1.554483,98.535
935,1.55615,98.535
936,1.557817,98.152
937,1.559483,97.76000000000001
938,1.561167,97.76000000000001
939,1.562817,97.378
940,1.564483,96.97799999999999
941,1.56615,96.59
942,1.567817,96.59
943,1.569483,96.205
944,1.571183,95.842
945,1.572817,95.47799999999999
946,1.574483,95.47799999999999
947,1.57615,95.101
948,1.577817,94.73
949,1.579483,94.36799999999999
950,1.581133,94.36799999999999
951,1.5828,94.029
952,1.584467,93.655
953,1.586133,93.655
954,1.58785,93.286
955,1.589467,92.892
956,1.591133,92.521
957,1.5928,92.521
958,1.594467,92.17
