"ID","sea_time","fid_signal"
1,0,1180.396
2,0.001567,1179.129
3,0.003233,1179.948
4,0.0049,1179.948
5,0.006567,1180.917
6,0.008233000000000001,1179.427
7,0.009900000000000001,1179.427
8,0.011567,1179.203
9,0.013233,1176.67
10,0.0149,1172.274
11,0.016667,1172.274
12,0.018233,1172.2
13,0.0199,1174.36
14,0.021567,1175.776
15,0.023233,1175.776
16,0.0249,1180.097
17,0.026567,1181.066
18,0.02825,1179.725
19,0.0299,1179.725
20,0.031567,1179.874
21,0.033233,1178.682
22,0.0349,1178.682
23,0.036567,1177.564
24,0.038233,1178.16
25,0.0399,1178.16
26,0.041567,1178.16
27,0.043217,1177.788
28,0.044883,1176.596
29,0.04655,1175.776
30,0.048217,1175.776
31,0.049883,1177.564
32,0.05155,1178.756
33,0.053217,1180.396
34,0.054883,1180.396
35,0.05655,1181.662
36,0.058217,1181.662
37,0.059883,1181.364
38,0.06155,1181.364
39,0.063217,1182.184
40,0.064883,1180.023
41,0.06655,1180.023
42,0.068217,1179.352
43,0.069883,1180.47
44,0.07155,1178.607
45,0.073217,1178.607
46,0.07488300000000001,1178.235
47,0.07655000000000001,1176.521
48,0.07821699999999999,1175.627
49,0.079883,1175.627
50,0.08155,1173.988
51,0.083217,1172.721
52,0.084883,1173.69
53,0.08655,1173.69
54,0.088217,1172.87
55,0.08989999999999999,1174.807
56,0.09155000000000001,1174.807
57,0.09321699999999999,1176.149
58,0.094883,1175.627
59,0.09653299999999999,1173.988
60,0.0982,1173.988
61,0.099867,1174.584
62,0.1016,1174.882
63,0.103183,1177.415
64,0.104867,1177.415
65,0.106567,1177.49
66,0.108183,1178.607
67,0.10985,1177.49
68,0.111517,1177.49
69,0.113183,1176
70,0.11485,1175.851
71,0.116517,1175.851
72,0.11825,1173.988
73,0.11985,1174.957
74,0.121517,1174.882
75,0.123183,1174.882
76,0.12485,1176.521
77,0.126517,1179.278
78,0.128183,1181.737
79,0.12985,1181.737
80,0.131517,1180.396
81,0.133183,1179.65
82,0.134933,1176.968
83,0.136517,1176.968
84,0.138183,1174.659
85,0.13985,1175.925
86,0.141517,1176.894
87,0.143183,1176.894
88,0.14485,1177.415
89,0.146517,1176.596
90,0.148183,1176.596
91,0.14985,1176.745
92,0.1516,1175.478
93,0.153183,1173.765
94,0.15485,1173.765
95,0.156517,1173.615
96,0.158183,1173.392
97,0.15985,1174.659
98,0.161517,1174.659
99,0.163167,1177.117
100,0.164833,1180.246
101,0.1665,1179.799
102,0.168167,1179.799
103,0.169833,1179.352
104,0.1715,1177.043
105,0.173167,1177.043
106,0.174833,1175.851
107,0.1765,1173.541
108,0.178183,1171.082
109,0.1799,1171.082
110,0.1815,1172.572
111,0.183167,1169.89
112,0.184833,1172.647
113,0.1865,1172.647
114,0.188167,1175.553
115,0.189833,1174.36
116,0.1915,1177.266
117,0.193167,1177.266
118,0.194833,1175.255
119,0.1965,1171.976
120,0.198167,1173.615
121,0.199833,1173.615
122,0.2015,1174.212
123,0.203167,1171.976
124,0.204833,1171.976
125,0.2065,1172.572
126,0.208167,1172.051
127,0.209833,1170.263
128,0.2115,1170.263
129,0.213167,1174.137
130,0.214833,1176.745
131,0.2165,1177.937
132,0.218167,1177.937
133,0.219833,1179.278
134,0.2215,1179.725
135,0.223167,1178.384
136,0.224817,1178.384
137,0.226483,1177.49
138,0.22815,1176.67
139,0.229817,1176.67
140,0.231483,1173.988
141,0.23315,1172.2
142,0.234817,1173.168
143,0.236517,1173.168
144,0.23815,1173.913
145,0.239817,1176.149
146,0.241483,1178.607
147,0.24315,1178.607
148,0.244817,1177.564
149,0.246483,1176.819
150,0.24815,1177.043
151,0.24985,1177.043
152,0.251483,1177.862
153,0.2532,1179.576
154,0.254817,1179.054
155,0.256483,1179.054
156,0.25815,1178.756
157,0.259817,1177.639
158,0.261483,1177.639
159,0.26315,1175.478
160,0.264833,1176.596
161,0.266483,1176.074
162,0.26815,1176.074
163,0.2699,1178.086
164,0.271483,1180.246
165,0.27315,1179.799
166,0.274817,1179.799
167,0.276483,1180.619
168,0.27815,1179.278
169,0.279817,1175.404
170,0.281483,1175.404
171,0.283133,1174.212
172,0.2848,1170.859
173,0.286467,1170.859
174,0.288133,1168.027
175,0.2898,1169.89
176,0.291467,1169.592
177,0.293133,1169.592
178,0.2948,1171.38
179,0.296467,1174.51
180,0.298133,1176
181,0.2998,1176
182,0.301467,1174.286
183,0.303133,1176.521
184,0.3048,1177.713
185,0.306467,1177.713
186,0.308133,1178.756
187,0.3098,1184.94
188,0.311467,1184.94
189,0.313133,1189.038
190,0.3148,1191.72
191,0.316467,1195.446
192,0.318167,1195.446
193,0.3198,1202.375
194,0.321467,1209.304
195,0.323133,1216.456
196,0.3248,1216.456
197,0.326467,1225.919
198,0.328133,1235.902
199,0.3298,1251.4
200,0.331467,1251.4
201,0.333133,1272.485
202,0.3348,1291.26
203,0.336467,1313.463
204,0.338133,1313.463
205,0.3398,1338.273
206,0.341467,1363.009
207,0.343117,1363.009
208,0.344783,1396.015
209,0.34645,1438.26
210,0.348117,1483.113
211,0.349783,1483.113
212,0.35145,1535.192
213,0.353117,1594.126
214,0.354883,1654.103
215,0.35645,1654.103
216,0.358117,1722.798
217,0.359783,1802.072
218,0.36145,1888.424
219,0.363117,1888.424
220,0.364783,1984.537
221,0.36645,2088.994
222,0.368117,2088.994
223,0.369783,2206.415
224,0.371467,2339.333
225,0.373117,2491.4
226,0.374783,2491.4
227,0.37645,2669.17
228,0.378117,2876.595
229,0.379783,3122.985
230,0.38145,3122.985
231,0.383117,3408.864
232,0.384783,3749.058
233,0.38645,4148.856
234,0.388217,4148.856
235,0.389767,4613.921
236,0.391433,5159.899
237,0.3931,5788.803
238,0.394767,5788.803
239,0.396433,6507.561
240,0.3981,7321.76
241,0.399767,7321.76
242,0.401433,8228.645
243,0.403083,9228.065000000001
244,0.40475,10320.47
245,0.406417,10320.47
246,0.408083,11501.61
247,0.40975,12767.613
248,0.411417,14107.152
249,0.413083,14107.152
250,0.41475,15508.905
251,0.416417,16954.393
252,0.418083,18423.795
253,0.41975,18423.795
254,0.421417,19889.25
255,0.423083,21318.496
256,0.42475,21318.496
257,0.426417,22678.971
258,0.428083,23941.1
259,0.42975,25070.98
260,0.431417,25070.98
261,0.433083,26043.504
262,0.43475,26835.799
263,0.436417,27423.352
264,0.438083,27423.352
265,0.439767,27803.107
266,0.441417,27965.828
267,0.443083,27914.42
268,0.44475,27914.42
269,0.446417,27660.057
270,0.448083,27215.184
271,0.44975,26597.529
272,0.451417,26597.529
273,0.453083,25827.736
274,0.45475,24933.965
275,0.456417,24933.965
276,0.4581,23938.268
277,0.459817,22867.619
278,0.461417,21748.318
279,0.463083,21748.318
280,0.464733,20599.961
281,0.4664,19443.334
282,0.468067,18293.559
283,0.469733,18293.559
284,0.4714,17163.754
285,0.473133,16061.887
286,0.474733,14999.583
287,0.4764,14999.583
288,0.478067,13987.72
289,0.479733,13025.627
290,0.4814,13025.627
291,0.483067,12113.526
292,0.484733,11252.463
293,0.4864,10437.295
294,0.488067,10437.295
295,0.489733,9673.982
296,0.4914,8963.495000000001
297,0.493067,8300.691000000001
298,0.494733,8300.691000000001
299,0.4964,7685.125
300,0.498067,7111.579
301,0.499733,6579.98
302,0.5014,6579.98
303,0.503067,6091.52
304,0.504733,5644.113
305,0.506517,5236.864
306,0.508067,5236.864
307,0.509733,4862.696
308,0.5114,4520.044
309,0.5130670000000001,4520.044
310,0.514733,4207.045
311,0.5164,3919.229
312,0.5180670000000001,3663.823
313,0.519733,3663.823
314,0.5214,3432.781
315,0.5230669999999999,3223.27
316,0.524717,3036.633
317,0.526383,3036.633
318,0.52805,2868.623
319,0.529717,2717.152
320,0.531383,2579.689
321,0.53305,2579.689
322,0.534717,2458.245
323,0.5364,2347.604
324,0.5381,2347.604
325,0.539717,2248.585
326,0.5413829999999999,2161.935
327,0.54305,2083.257
328,0.544717,2083.257
329,0.546383,2010.018
330,0.54805,1942.888
331,0.549717,1883.432
332,0.551383,1883.432
333,0.55305,1829.863
334,0.554717,1784.34
335,0.556383,1740.381
336,0.55805,1740.381
337,0.559717,1703.203
338,0.561383,1668.334
339,0.5630500000000001,1668.334
340,0.564717,1636.222
341,0.566383,1611.933
342,0.5680500000000001,1582.727
343,0.569717,1582.727
344,0.571383,1559.705
345,0.5730499999999999,1535.714
346,0.574717,1515.374
347,0.576383,1515.374
348,0.57805,1500.323
349,0.579717,1484.826
350,0.581383,1473.948
351,0.58305,1473.948
352,0.5847,1459.42
353,0.586367,1445.487
354,0.588033,1431.033
355,0.5897,1431.033
356,0.591367,1417.845
357,0.593033,1405.478
358,0.5947,1405.478
359,0.596367,1393.408
360,0.598033,1383.275
361,0.5997,1373.068
362,0.601367,1373.068
363,0.603033,1365.915
364,0.6047,1361.072
365,0.6064000000000001,1356.08
366,0.608033,1356.08
367,0.609717,1349.151
368,0.611367,1343.638
369,0.6130330000000001,1338.199
370,0.6147,1338.199
371,0.616367,1332.76
372,0.6180330000000001,1328.811
373,0.6197,1328.811
374,0.621367,1323.968
375,0.6230329999999999,1320.988
376,0.624783,1317.71
377,0.626367,1317.71
378,0.628033,1314.878
379,0.6297,1311.451
380,0.631367,1305.789
381,0.633033,1305.789
382,0.6347,1301.244
383,0.636367,1297.966
384,0.638033,1295.358
385,0.6397,1295.358
386,0.641367,1293.719
387,0.643033,1289.696
388,0.644683,1283.511
389,0.64635,1283.511
390,0.648017,1282.916
391,0.649683,1283.064
392,0.65135,1283.064
393,0.653017,1284.48
394,0.654683,1287.088
395,0.65635,1282.99
396,0.658017,1282.99
397,0.659683,1277.551
398,0.66135,1273.23
399,0.663017,1267.94
400,0.664683,1267.94
401,0.66635,1267.12
402,0.668033,1266.226
403,0.669683,1266.822
404,0.67135,1266.822
405,0.673017,1266.226
406,0.674683,1264.364
407,0.67635,1264.364
408,0.678,1264.885
409,0.679667,1263.171
410,0.681333,1264.289
411,0.6830000000000001,1264.289
412,0.684667,1258.627
413,0.686333,1256.317
414,0.6879999999999999,1252.145
415,0.689683,1252.145
416,0.691333,1249.015
417,0.6929999999999999,1251.474
418,0.694667,1248.792
419,0.696333,1248.792
420,0.698,1247.823
421,0.699667,1244.321
422,0.701333,1244.321
423,0.702983,1241.043
424,0.70465,1238.883
425,0.706317,1237.765
426,0.707983,1237.765
427,0.709717,1240.671
428,0.711317,1241.267
429,0.712983,1238.659
430,0.71465,1238.659
431,0.716317,1237.69
432,0.717983,1233.593
433,0.71965,1231.506
434,0.721317,1231.506
435,0.722983,1232.699
436,0.72465,1232.251
437,0.726317,1232.773
438,0.727983,1232.773
439,0.72965,1232.251
440,0.731317,1231.581
441,0.7329830000000001,1231.581
442,0.73465,1231.656
443,0.736317,1229.942
444,0.7379829999999999,1231.656
445,0.73965,1231.656
446,0.741317,1233.742
447,0.743083,1231.73
448,0.74465,1230.91
449,0.746317,1230.91
450,0.747983,1228.675
451,0.74965,1224.205
452,0.751317,1222.938
453,0.753,1222.938
454,0.75465,1221.821
455,0.756317,1221.672
456,0.757983,1221.672
457,0.75965,1221.895
458,0.761317,1222.044
459,0.762983,1221.597
460,0.764633,1221.597
461,0.7663,1219.213
462,0.767967,1220.331
463,0.769633,1219.586
464,0.7713,1219.586
465,0.772967,1220.033
466,0.774633,1219.511
467,0.7763,1217.425
468,0.777967,1217.425
469,0.779633,1214.743
470,0.7813,1214.892
471,0.782967,1213.178
472,0.784633,1213.178
473,0.7863,1209.974
474,0.787967,1213.029
475,0.789633,1213.029
476,0.7913,1209.08
477,0.792967,1210.868
478,0.794633,1213.327
479,0.7963,1213.327
480,0.797967,1208.931
481,0.799633,1213.104
482,0.8013,1213.104
483,0.802967,1213.104
484,0.804633,1211.39
485,0.8063,1213.253
486,0.807967,1210.868
487,0.809633,1210.868
488,0.8113,1209.974
489,0.812967,1209.08
490,0.8146330000000001,1209.08
491,0.8163,1207.367
492,0.817967,1205.802
493,0.819667,1204.014
494,0.8213,1204.014
495,0.822967,1203.269
496,0.824617,1204.461
497,0.826283,1204.461
498,0.828033,1204.461
499,0.829617,1202.971
500,0.831283,1203.194
501,0.83295,1203.939
502,0.8346170000000001,1203.939
503,0.836283,1204.833
504,0.83795,1206.398
505,0.8396169999999999,1206.622
506,0.841283,1206.622
507,0.842967,1204.163
508,0.844617,1203.567
509,0.846283,1203.567
510,0.84795,1206.323
511,0.849617,1208.037
512,0.851283,1212.656
513,0.85295,1212.656
514,0.854617,1211.539
515,0.856283,1204.312
516,0.85795,1201.555
517,0.859617,1201.555
518,0.8613499999999999,1195.446
519,0.86295,1198.351
520,0.864617,1202.151
521,0.866283,1202.151
522,0.86795,1202.226
523,0.869617,1202.375
524,0.871283,1202.375
525,0.87295,1199.096
526,0.874617,1197.83
527,0.876283,1197.308
528,0.87795,1197.308
529,0.879617,1198.351
530,0.881283,1199.022
531,0.88295,1201.034
532,0.8846000000000001,1201.034
533,0.886267,1204.535
534,0.887933,1204.237
535,0.8895999999999999,1201.779
536,0.891267,1201.779
537,0.892933,1200.438
538,0.8946,1197.308
539,0.896267,1197.308
540,0.897933,1198.128
541,0.8996,1196.489
542,0.901267,1196.489
543,0.902933,1196.489
544,0.9046,1196.042
545,0.906267,1193.509
546,0.907933,1198.277
547,0.9096,1198.277
548,0.911267,1197.01
549,0.912933,1198.053
550,0.9146,1202.077
551,0.9162670000000001,1202.077
552,0.917933,1200.14
553,0.9196,1199.767
554,0.9212669999999999,1201.108
555,0.922933,1201.108
556,0.9246,1198.128
557,0.926267,1199.171
558,0.927933,1199.171
559,0.9296,1200.14
560,0.931267,1196.042
561,0.932933,1196.563
562,0.9346,1196.563
563,0.936267,1196.787
564,0.937933,1196.712
565,0.9396,1198.798
566,0.941267,1198.798
567,0.942917,1196.414
568,0.944583,1195.818
569,0.9463,1194.85
570,0.947917,1194.85
571,0.949583,1192.391
572,0.95125,1195.148
573,0.952917,1195.148
574,0.954583,1196.489
575,0.95625,1199.32
576,0.957917,1204.014
577,0.959583,1204.014
578,0.96125,1203.492
579,0.962917,1201.332
580,0.964583,1197.01
581,0.9662500000000001,1197.01
582,0.967917,1194.999
583,0.969567,1194.701
584,0.971233,1194.701
585,0.9729,1194.701
586,0.974567,1196.191
587,0.976233,1196.34
588,0.9779,1196.489
589,0.979667,1196.489
590,0.981233,1196.787
591,0.9829,1198.798
592,0.984567,1198.798
593,0.986233,1198.053
594,0.9879,1196.712
595,0.989567,1193.583
596,0.991233,1193.583
597,0.9929,1189.038
598,0.994567,1185.76
599,0.996233,1186.281
600,0.9979,1186.281
601,0.999567,1187.176
602,1.001233,1186.729
603,1.002883,1187.101
604,1.00455,1187.101
605,1.006217,1187.25
606,1.007883,1187.772
607,1.00955,1187.772
608,1.011217,1188.815
609,1.012883,1188.293
610,1.01455,1188.74
611,1.016217,1188.74
612,1.0179,1189.187
613,1.01955,1188.442
614,1.021217,1188.666
615,1.022883,1188.666
