"ID","sea_time","fid_signal"
1,0,28.341
2,0.001667,28.341
3,0.003333,28.345
4,0.005,28.342
5,0.006667,28.305
6,0.008317,28.305
7,0.009983000000000001,28.24
8,0.01165,28.168
9,0.013333,28.102
10,0.014983,28.102
11,0.01665,28.087
12,0.0184,28.117
13,0.019983,28.117
14,0.02165,28.158
15,0.023317,28.2
16,0.024983,28.233
17,0.02665,28.233
18,0.028317,28.256
19,0.030017,28.275
20,0.03165,28.298
21,0.033317,28.298
22,0.03505,28.308
23,0.03665,28.316
24,0.038317,28.322
25,0.039983,28.322
26,0.04165,28.32
27,0.043317,28.324
28,0.044983,28.324
29,0.04665,28.329
30,0.048317,28.335
31,0.049983,28.339
32,0.051767,28.339
33,0.053317,28.339
34,0.054983,28.334
35,0.05665,28.326
36,0.058317,28.326
37,0.059983,28.332
38,0.06165,28.336
39,0.063317,28.34
40,0.064983,28.34
41,0.06665,28.344
42,0.068317,28.339
43,0.069967,28.339
44,0.07165000000000001,28.336
45,0.0733,28.338
46,0.07496700000000001,28.342
47,0.07663300000000001,28.342
48,0.07829999999999999,28.344
49,0.079967,28.346
50,0.081633,28.348
51,0.0833,28.348
52,0.084967,28.343
53,0.086633,28.349
54,0.0883,28.347
55,0.08996700000000001,28.347
56,0.09163300000000001,28.34
57,0.09329999999999999,28.339
58,0.094967,28.331
59,0.096633,28.331
60,0.098317,28.328
61,0.099967,28.33
62,0.101633,28.33
63,0.1033,28.324
64,0.104967,28.322
65,0.106633,28.323
66,0.1083,28.323
67,0.109967,28.321
68,0.111633,28.322
69,0.1133,28.319
70,0.114967,28.319
71,0.116633,28.323
72,0.1183,28.327
73,0.119967,28.334
74,0.121633,28.334
75,0.1233,28.334
76,0.124967,28.332
77,0.126633,28.332
78,0.1283,28.33
79,0.12995,28.33
80,0.131617,28.332
81,0.133283,28.332
82,0.13495,28.334
83,0.136633,28.336
84,0.138283,28.339
85,0.13995,28.339
86,0.141617,28.341
87,0.143283,28.337
88,0.14495,28.333
89,0.146617,28.333
90,0.148283,28.326
91,0.14995,28.324
92,0.151617,28.324
93,0.153367,28.324
94,0.15495,28.326
95,0.156617,28.331
96,0.158283,28.331
97,0.15995,28.328
98,0.161617,28.329
99,0.163283,28.327
100,0.16495,28.327
101,0.166617,28.319
102,0.168283,28.324
103,0.170033,28.324
104,0.171617,28.324
105,0.1733,28.325
106,0.17495,28.328
107,0.176617,28.323
108,0.178283,28.323
109,0.17995,28.324
110,0.181617,28.322
111,0.183283,28.322
112,0.18495,28.317
113,0.186617,28.323
114,0.188267,28.317
115,0.189933,28.317
116,0.1916,28.318
117,0.193267,28.321
118,0.194933,28.32
119,0.1966,28.32
120,0.198267,28.325
121,0.199933,28.33
122,0.2016,28.334
123,0.203267,28.334
124,0.204917,28.338
125,0.206583,28.342
126,0.20825,28.34
127,0.209917,28.34
128,0.211583,28.341
129,0.21325,28.339
130,0.214917,28.339
131,0.216583,28.338
132,0.21825,28.341
133,0.219917,28.343
134,0.221583,28.343
135,0.22325,28.342
136,0.224917,28.347
137,0.226583,28.342
138,0.22825,28.342
139,0.229917,28.339
140,0.231583,28.338
141,0.23325,28.331
142,0.234917,28.331
143,0.236583,28.333
144,0.23825,28.335
145,0.239933,28.335
146,0.2416,28.341
147,0.24325,28.342
148,0.244917,28.345
149,0.246583,28.345
150,0.248233,28.35
151,0.2499,28.348
152,0.251567,28.345
153,0.253233,28.345
154,0.25495,28.335
155,0.256567,28.327
156,0.258233,28.332
157,0.2599,28.332
158,0.261567,28.335
159,0.263233,28.342
160,0.2649,28.342
161,0.266567,28.341
162,0.268233,28.332
163,0.2699,28.336
164,0.271567,28.336
165,0.273233,28.342
166,0.2749,28.351
167,0.276567,28.361
168,0.278233,28.361
169,0.2799,28.362
170,0.281567,28.358
171,0.283233,28.356
172,0.2849,28.356
173,0.286567,28.355
174,0.288333,28.354
175,0.2899,28.353
176,0.291567,28.353
177,0.293233,28.356
178,0.2949,28.352
179,0.296567,28.352
180,0.298233,28.35
181,0.2999,28.35
182,0.301567,28.349
183,0.303233,28.349
184,0.3049,28.358
185,0.306567,28.363
186,0.308217,28.373
187,0.309883,28.373
188,0.31155,28.379
189,0.31325,28.379
190,0.31495,28.387
191,0.31655,28.387
192,0.318217,28.394
193,0.319883,28.411
194,0.32155,28.411
195,0.323217,28.426
196,0.324883,28.439
197,0.32655,28.449
198,0.328217,28.449
199,0.329883,28.463
200,0.33155,28.479
201,0.333217,28.493
202,0.334883,28.493
203,0.33655,28.514
204,0.338217,28.533
205,0.339883,28.559
206,0.34155,28.559
207,0.343217,28.595
208,0.344883,28.627
209,0.34655,28.665
210,0.348217,28.665
211,0.349883,28.712
212,0.35155,28.77
213,0.353217,28.77
214,0.354883,28.837
215,0.35655,28.918
216,0.358217,29.008
217,0.359883,29.008
218,0.36155,29.106
219,0.363217,29.224
220,0.364883,29.367
221,0.36655,29.367
222,0.368217,29.529
223,0.369867,29.723
224,0.371533,29.956
225,0.373267,29.956
226,0.374867,30.213
227,0.376533,30.507
228,0.3782,30.507
229,0.379867,30.839
230,0.381533,31.206
231,0.383217,31.622
232,0.3849,31.622
233,0.386533,32.081
234,0.3882,32.582
235,0.389867,33.124
236,0.391533,33.124
237,0.3932,33.704
238,0.394867,34.319
239,0.396533,34.965
240,0.3982,34.965
241,0.399867,35.636
242,0.401533,36.328
243,0.4032,37.029
244,0.404867,37.029
245,0.406633,37.741
246,0.4082,38.442
247,0.409867,38.442
248,0.411533,39.13
249,0.4132,39.801
250,0.414867,40.443
251,0.416533,40.443
252,0.4182,41.047
253,0.419867,41.605
254,0.421533,42.111
255,0.4232,42.111
256,0.424867,42.546
257,0.426533,42.922
258,0.4282,43.225
259,0.42985,43.225
260,0.431517,43.457
261,0.433183,43.625
262,0.43485,43.625
263,0.436517,43.711
264,0.438183,43.73
265,0.43985,43.671
266,0.441517,43.671
267,0.443183,43.534
268,0.44485,43.337
269,0.446517,43.072
270,0.448183,43.072
271,0.44985,42.751
272,0.451517,42.389
273,0.453183,41.978
274,0.454883,41.978
275,0.456533,41.518
276,0.458183,41.032
277,0.45985,40.517
278,0.461517,40.517
279,0.463183,39.979
280,0.46485,39.432
281,0.466517,39.432
282,0.468183,38.871
283,0.469867,38.297
284,0.471517,37.727
285,0.473183,37.727
286,0.47485,37.167
287,0.476517,36.614
288,0.478183,36.077
289,0.47985,36.077
290,0.481517,35.549
291,0.483183,35.033
292,0.48485,34.54
293,0.486517,34.54
294,0.488167,34.068
295,0.489833,33.624
296,0.491583,33.204
297,0.493167,33.204
298,0.494833,32.802
299,0.496483,32.429
300,0.49815,32.429
301,0.499817,32.08
302,0.501483,31.753
303,0.50315,31.452
304,0.504817,31.452
305,0.506483,31.171
306,0.50815,30.907
307,0.509817,30.668
308,0.511483,30.668
309,0.51315,30.451
310,0.514817,30.26
311,0.516483,30.26
312,0.51815,30.081
313,0.519817,29.915
314,0.521483,29.768
315,0.52315,29.768
316,0.5249,29.63
317,0.526483,29.511
318,0.5281670000000001,29.409
319,0.529817,29.409
320,0.531483,29.313
321,0.5331669999999999,29.227
322,0.534817,29.154
323,0.536483,29.154
324,0.53815,29.081
325,0.539817,29.018
326,0.541483,28.968
327,0.54315,28.968
328,0.544817,28.919
329,0.5464830000000001,28.881
330,0.548133,28.881
331,0.5498,28.85
332,0.551467,28.813
333,0.553133,28.785
334,0.5548,28.785
335,0.556467,28.767
336,0.558133,28.747
337,0.5598,28.727
338,0.561467,28.727
339,0.563133,28.711
340,0.5648,28.698
341,0.5664670000000001,28.686
342,0.568133,28.686
343,0.5698,28.689
344,0.5714669999999999,28.684
345,0.573133,28.684
346,0.5748,28.67
347,0.576467,28.666
348,0.578133,28.656
349,0.5798,28.656
350,0.581467,28.653
351,0.583133,28.65
352,0.5848,28.643
353,0.586467,28.643
354,0.588133,28.638
355,0.5898,28.634
356,0.591467,28.634
357,0.593133,28.634
358,0.5948,28.635
359,0.596467,28.631
360,0.598133,28.631
361,0.5998,28.631
362,0.601467,28.631
363,0.603133,28.633
364,0.6048,28.633
365,0.606467,28.637
366,0.60815,28.647
367,0.60985,28.655
368,0.61145,28.655
369,0.613117,28.66
370,0.614783,28.661
371,0.6164500000000001,28.654
372,0.618117,28.654
373,0.619783,28.649
374,0.6214499999999999,28.645
375,0.623117,28.644
376,0.624783,28.644
377,0.626583,28.646
378,0.628117,28.648
379,0.629783,28.648
380,0.63145,28.646
381,0.633117,28.651
382,0.634783,28.657
383,0.63645,28.657
384,0.638117,28.662
385,0.639783,28.667
386,0.64145,28.67
387,0.643217,28.67
388,0.6448,28.67
389,0.64645,28.672
390,0.6481170000000001,28.673
391,0.649783,28.673
392,0.65145,28.672
393,0.6531169999999999,28.67
394,0.654783,28.673
395,0.65645,28.673
396,0.658117,28.675
397,0.659783,28.673
398,0.66145,28.673
399,0.663117,28.678
400,0.664783,28.677
401,0.66645,28.676
402,0.6681,28.676
403,0.669767,28.683
404,0.6714329999999999,28.687
405,0.6731,28.681
406,0.674817,28.681
407,0.676433,28.689
408,0.6781,28.687
409,0.679767,28.682
410,0.681433,28.682
411,0.6831,28.692
412,0.684767,28.696
413,0.686433,28.696
414,0.6881,28.707
415,0.689767,28.714
416,0.691433,28.72
417,0.6931,28.72
418,0.694767,28.71
419,0.69645,28.698
420,0.6981000000000001,28.692
421,0.699767,28.692
422,0.701433,28.684
423,0.7030999999999999,28.688
424,0.704767,28.692
425,0.706433,28.692
426,0.7081,28.697
427,0.709767,28.703
428,0.711433,28.703
429,0.7131,28.706
430,0.714767,28.708
431,0.716433,28.71
432,0.7181,28.71
433,0.719767,28.709
434,0.721433,28.711
435,0.7231,28.711
436,0.7247670000000001,28.711
437,0.726433,28.705
438,0.728133,28.705
439,0.72975,28.703
440,0.731417,28.703
441,0.733083,28.705
442,0.73475,28.718
443,0.736417,28.721
444,0.738083,28.721
445,0.73975,28.728
446,0.741417,28.735
447,0.7431,28.735
448,0.74475,28.737
449,0.746417,28.739
450,0.7480830000000001,28.739
451,0.74975,28.739
452,0.751417,28.737
453,0.7530829999999999,28.738
454,0.75475,28.742
455,0.756417,28.742
456,0.758083,28.749
457,0.75975,28.75
458,0.761517,28.75
459,0.763083,28.75
460,0.76475,28.752
461,0.766417,28.75
462,0.768083,28.75
463,0.76975,28.752
464,0.771417,28.753
465,0.773083,28.75
466,0.77475,28.75
467,0.776417,28.749
468,0.778183,28.749
469,0.7797500000000001,28.748
470,0.781417,28.748
471,0.783083,28.75
472,0.7847499999999999,28.756
473,0.786433,28.756
474,0.78805,28.756
475,0.789717,28.757
476,0.7913829999999999,28.755
477,0.79305,28.743
478,0.794717,28.743
479,0.796383,28.738
480,0.79805,28.732
481,0.799717,28.732
482,0.801383,28.734
483,0.80305,28.743
484,0.804717,28.752
485,0.806383,28.752
486,0.80805,28.763
487,0.809717,28.761
488,0.811383,28.761
489,0.813083,28.761
490,0.814717,28.762
491,0.816383,28.757
492,0.8180500000000001,28.76
493,0.819733,28.76
494,0.821383,28.762
495,0.8230499999999999,28.756
496,0.824717,28.756
497,0.826383,28.756
498,0.82805,28.754
499,0.829717,28.759
500,0.831383,28.759
501,0.83305,28.764
502,0.834717,28.768
503,0.836383,28.775
504,0.83805,28.775
505,0.839717,28.771
506,0.841383,28.775
507,0.84305,28.779
508,0.8447170000000001,28.779
509,0.846367,28.78
510,0.848033,28.79
511,0.8497,28.79
512,0.851367,28.799
513,0.853033,28.8
514,0.8547,28.801
515,0.856367,28.801
516,0.858033,28.8
517,0.8597,28.792
518,0.861367,28.792
519,0.863117,28.792
520,0.8647,28.798
521,0.866367,28.796
522,0.8680330000000001,28.798
523,0.8697,28.798
524,0.871367,28.799
525,0.8730329999999999,28.792
526,0.8747,28.794
527,0.876367,28.794
528,0.878033,28.799
529,0.879817,28.807
530,0.881367,28.807
531,0.883033,28.813
532,0.884733,28.815
533,0.886367,28.817
534,0.888033,28.817
535,0.8897,28.813
536,0.891367,28.808
537,0.893033,28.803
538,0.8947000000000001,28.803
539,0.896467,28.8
540,0.898033,28.802
541,0.8997000000000001,28.804
542,0.901367,28.804
543,0.903033,28.804
544,0.9046999999999999,28.804
545,0.906367,28.804
546,0.908033,28.802
547,0.909683,28.802
548,0.91135,28.801
549,0.913017,28.801
550,0.914683,28.8
551,0.91635,28.798
552,0.918017,28.796
553,0.919683,28.796
554,0.92135,28.798
555,0.923017,28.799
556,0.924683,28.799
557,0.92635,28.799
558,0.928017,28.799
559,0.929683,28.803
560,0.93135,28.809
561,0.933017,28.809
562,0.934683,28.816
563,0.93635,28.822
564,0.938017,28.822
565,0.939683,28.821
566,0.94135,28.815
567,0.943017,28.808
568,0.9446830000000001,28.808
569,0.94635,28.806
570,0.948017,28.809
571,0.9497,28.816
572,0.95135,28.816
573,0.953033,28.821
574,0.9546829999999999,28.825
575,0.95635,28.822
576,0.958017,28.822
577,0.959683,28.818
578,0.96135,28.817
579,0.963017,28.817
580,0.9646670000000001,28.82
581,0.96635,28.823
582,0.968,28.827
583,0.9696669999999999,28.827
584,0.971333,28.825
585,0.973,28.815
586,0.974667,28.813
587,0.976333,28.813
588,0.978,28.812
589,0.979667,28.818
590,0.981383,28.826
591,0.983,28.826
592,0.984667,28.825
593,0.986333,28.832
594,0.988,28.832
595,0.989667,28.832
596,0.991333,28.831
597,0.993,28.838
598,0.994667,28.838
599,0.996333,28.833
600,0.9980329999999999,28.828
601,0.999667,28.83
602,1.001333,28.83
603,1.003,28.825
604,1.004667,28.826
605,1.006333,28.833
606,1.008,28.833
607,1.009667,28.833
608,1.011333,28.83
609,1.013,28.827
610,1.014767,28.827
611,1.016333,28.818
612,1.018,28.811
613,1.019667,28.811
614,1.021333,28.809
615,1.023,28.806
616,1.024667,28.806
617,1.026333,28.806
618,1.028017,28.808
619,1.029717,28.809
620,1.031317,28.809
621,1.032983,28.809
622,1.03465,28.812
623,1.036317,28.818
624,1.037983,28.815
625,1.03965,28.815
626,1.041317,28.821
627,1.042983,28.816
628,1.04465,28.808
629,1.046317,28.808
630,1.048,28.81
631,1.04965,28.804
632,1.051317,28.804
633,1.052983,28.806
634,1.05465,28.812
635,1.056317,28.813
636,1.057983,28.813
637,1.05965,28.822
638,1.061317,28.828
639,1.062983,28.832
640,1.06465,28.832
641,1.066317,28.837
642,1.067983,28.834
643,1.06965,28.832
644,1.071317,28.832
645,1.072983,28.827
646,1.07465,28.827
647,1.076317,28.827
648,1.077983,28.822
649,1.079633,28.824
650,1.0813,28.829
651,1.082967,28.829
652,1.084633,28.832
653,1.0863,28.839
654,1.08795,28.839
655,1.089617,28.839
656,1.091283,28.839
657,1.09295,28.838
658,1.094617,28.836
659,1.096283,28.836
660,1.09795,28.84
661,1.099633,28.837
662,1.101283,28.837
663,1.10295,28.835
664,1.104617,28.836
665,1.106283,28.831
666,1.10795,28.831
667,1.109617,28.835
668,1.111283,28.832
669,1.11295,28.834
670,1.114617,28.834
671,1.116333,28.839
672,1.11795,28.835
673,1.119617,28.834
674,1.121283,28.834
675,1.12295,28.829
676,1.124617,28.827
677,1.126283,28.826
678,1.12795,28.826
679,1.129617,28.827
680,1.131283,28.825
681,1.13305,28.821
682,1.134617,28.821
683,1.136283,28.822
684,1.13795,28.82
685,1.139617,28.82
686,1.141283,28.826
687,1.14295,28.828
688,1.144617,28.829
689,1.146283,28.829
690,1.14795,28.83
691,1.1496,28.826
692,1.151267,28.823
693,1.152933,28.823
694,1.1546,28.823
695,1.156267,28.825
696,1.157933,28.825
697,1.1596,28.824
698,1.161267,28.819
699,1.162933,28.82
700,1.1646,28.82
701,1.166267,28.82
702,1.167933,28.821
703,1.1696,28.826
704,1.1713,28.826
705,1.172933,28.829
706,1.1746,28.825
707,1.176267,28.827
708,1.177933,28.827
709,1.1796,28.831
710,1.181267,28.828
711,1.18295,28.832
712,1.1846,28.832
713,1.186267,28.831
714,1.187933,28.827
715,1.1896,28.827
716,1.191267,28.834
717,1.192933,28.837
718,1.1946,28.831
719,1.196267,28.831
720,1.197933,28.83
721,1.1996,28.82
722,1.201267,28.819
723,1.202933,28.819
724,1.2046,28.827
725,1.206267,28.832
726,1.207917,28.832
727,1.209583,28.832
728,1.21125,28.834
729,1.212917,28.83
730,1.214583,28.83
731,1.21625,28.833
732,1.217983,28.836
733,1.219583,28.834
734,1.22125,28.834
735,1.222933,28.838
736,1.224583,28.833
737,1.22625,28.832
738,1.227917,28.832
739,1.229583,28.83
740,1.23125,28.826
741,1.232917,28.828
742,1.2346,28.828
743,1.23625,28.826
744,1.237917,28.828
745,1.239583,28.829
746,1.24125,28.829
747,1.242917,28.829
748,1.244583,28.828
749,1.24625,28.828
750,1.247917,28.824
751,1.249583,28.824
752,1.251317,28.823
753,1.252917,28.823
754,1.254583,28.828
755,1.25625,28.834
756,1.257917,28.835
757,1.259583,28.835
758,1.26125,28.837
759,1.262917,28.838
760,1.264583,28.839
761,1.26625,28.839
762,1.2679,28.846
763,1.269567,28.844
764,1.27125,28.844
765,1.2729,28.843
766,1.274567,28.843
767,1.276233,28.836
768,1.2779,28.836
769,1.279567,28.846
770,1.281233,28.848
771,1.2829,28.851
772,1.284567,28.851
773,1.286233,28.858
774,1.2879,28.849
775,1.289567,28.849
776,1.291233,28.849
777,1.2929,28.848
778,1.294567,28.846
779,1.296233,28.846
780,1.2979,28.841
781,1.299567,28.845
782,1.301233,28.843
783,1.3029,28.843
784,1.304567,28.845
785,1.306233,28.855
786,1.3079,28.854
787,1.309567,28.854
788,1.311233,28.855
789,1.3129,28.852
790,1.314567,28.85
791,1.316233,28.85
792,1.3179,28.844
793,1.319567,28.841
794,1.321233,28.846
795,1.3229,28.846
796,1.324567,28.843
797,1.326233,28.851
798,1.3279,28.851
799,1.32955,28.855
800,1.331217,28.856
801,1.332883,28.86
802,1.33455,28.86
803,1.336267,28.855
804,1.337883,28.85
805,1.33955,28.847
806,1.341217,28.847
807,1.342883,28.845
808,1.34455,28.844
809,1.346217,28.849
810,1.347883,28.849
811,1.34955,28.848
812,1.351217,28.849
813,1.3529,28.849
814,1.35455,28.848
815,1.356217,28.848
816,1.357883,28.844
817,1.35955,28.844
818,1.361217,28.847
819,1.362883,28.854
820,1.36455,28.849
821,1.366217,28.849
822,1.367883,28.852
823,1.36965,28.847
824,1.3712,28.844
825,1.372867,28.844
826,1.374533,28.855
827,1.3762,28.861
828,1.377867,28.867
829,1.379533,28.867
830,1.3812,28.864
831,1.382867,28.855
832,1.384533,28.855
833,1.386183,28.85
834,1.38785,28.85
835,1.389517,28.853
836,1.391183,28.853
837,1.392867,28.86
838,1.394517,28.861
839,1.396183,28.86
840,1.397867,28.86
841,1.399517,28.861
842,1.401183,28.858
843,1.40285,28.858
844,1.404517,28.858
845,1.406183,28.858
846,1.40785,28.857
847,1.409517,28.857
848,1.411183,28.854
849,1.41285,28.846
850,1.414517,28.838
851,1.416183,28.838
852,1.41785,28.837
853,1.419517,28.841
854,1.421183,28.85
855,1.42285,28.85
856,1.424517,28.855
857,1.426183,28.852
858,1.42785,28.847
859,1.429517,28.847
860,1.431183,28.848
861,1.43285,28.854
862,1.434533,28.861
863,1.436183,28.861
864,1.43785,28.861
865,1.439517,28.858
866,1.441183,28.858
867,1.44285,28.859
868,1.444517,28.863
869,1.446183,28.872
870,1.447833,28.872
871,1.4495,28.877
872,1.451167,28.883
873,1.452833,28.88
874,1.454567,28.88
875,1.456167,28.88
876,1.457833,28.88
877,1.459533,28.876
878,1.461167,28.876
879,1.462833,28.877
880,1.4645,28.877
881,1.466167,28.877
882,1.467833,28.884
883,1.4695,28.89
884,1.471167,28.895
885,1.472833,28.895
886,1.4745,28.902
887,1.476167,28.901
888,1.477833,28.898
889,1.4795,28.898
890,1.481167,28.893
891,1.482833,28.892
892,1.4845,28.893
893,1.486167,28.893
894,1.487933,28.899
895,1.4895,28.907
896,1.491167,28.907
897,1.492833,28.908
898,1.4945,28.904
899,1.496167,28.911
900,1.497833,28.911
901,1.4995,28.916
902,1.501167,28.923
903,1.502833,28.929
904,1.5045,28.929
905,1.506167,28.923
906,1.507833,28.923
907,1.509483,28.925
908,1.51115,28.925
909,1.512817,28.926
910,1.514483,28.926
911,1.51615,28.925
912,1.517817,28.925
913,1.519483,28.923
914,1.52115,28.925
915,1.522817,28.925
916,1.524483,28.93
917,1.52615,28.933
918,1.527817,28.936
919,1.529483,28.936
920,1.53115,28.937
921,1.532817,28.939
922,1.534483,28.937
923,1.53615,28.937
924,1.537817,28.934
925,1.539483,28.931
926,1.54115,28.935
927,1.542817,28.935
928,1.544483,28.938
929,1.54615,28.943
930,1.547817,28.943
931,1.549483,28.954
932,1.55115,28.956
933,1.552817,28.957
934,1.554483,28.957
935,1.55615,28.957
936,1.557817,28.961
937,1.559483,28.966
938,1.56115,28.966
939,1.562817,28.964
940,1.564483,28.959
941,1.56615,28.95
942,1.5678,28.95
943,1.569467,28.944
944,1.571133,28.948
945,1.572867,28.955
946,1.574467,28.955
947,1.576133,28.954
948,1.5778,28.957
949,1.579467,28.957
950,1.581133,28.955
951,1.5828,28.952
952,1.584467,28.957
953,1.586133,28.957
954,1.5878,28.962
955,1.589467,28.97
956,1.591133,28.974
957,1.5928,28.974
958,1.594467,28.978
959,1.596133,28.975
960,1.5978,28.972
961,1.599467,28.972
962,1.601133,28.976
963,1.6028,28.98
964,1.604467,28.98
965,1.606217,28.986
966,1.607817,28.988
967,1.609467,28.988
968,1.611133,28.988
969,1.6128,28.988
970,1.614467,28.996
971,1.616133,29.004
972,1.6178,29.004
973,1.619467,29.01
974,1.621133,29.015
975,1.6228,29.014
976,1.624467,29.014
977,1.626133,29.015
978,1.6278,29.016
979,1.629467,29.018
980,1.631117,29.018
981,1.632783,29.019
982,1.63445,29.025
983,1.636117,29.025
984,1.637783,29.035
985,1.63945,29.036
986,1.641117,29.037
987,1.642783,29.037
988,1.64445,29.033
989,1.646117,29.027
990,1.647783,29.028
991,1.64945,29.028
992,1.651117,29.038
993,1.652783,29.042
994,1.65445,29.043
995,1.656117,29.043
996,1.657783,29.048
997,1.65945,29.054
998,1.6611,29.054
999,1.662767,29.063
1000,1.664433,29.07
1001,1.6661,29.072
1002,1.667767,29.072
1003,1.669433,29.075
1004,1.6711,29.075
1005,1.672767,29.077
1006,1.674433,29.077
1007,1.6761,29.079
1008,1.677767,29.078
1009,1.679433,29.079
1010,1.6811,29.079
1011,1.682767,29.085
1012,1.684433,29.093
