"ID","sea_time","fid_signal"
1,0,1167.133
2,0.001667,1167.133
3,0.003333,1166.314
4,0.005017,1165.941
5,0.006667,1167.432
6,0.008333,1167.432
7,0.01,1166.537
8,0.011667,1167.804
9,0.013333,1167.804
10,0.015,1170.263
11,0.016667,1171.976
12,0.018333,1175.702
13,0.02,1175.702
14,0.021667,1175.702
15,0.023333,1175.031
16,0.025,1173.168
17,0.026667,1173.168
18,0.028333,1169.89
19,0.03,1169.369
20,0.031667,1169.741
21,0.033333,1169.741
22,0.035,1171.827
23,0.036717,1171.231
24,0.038333,1171.231
25,0.040017,1170.71
26,0.041667,1170.337
27,0.043333,1167.879
28,0.044983,1167.879
29,0.04665,1170.039
30,0.048317,1168.4
31,0.049983,1167.357
32,0.05165,1167.357
33,0.053317,1167.208
34,0.054983,1169.22
35,0.05665,1171.678
36,0.058317,1171.678
37,0.059983,1174.137
38,0.06165,1176
39,0.063317,1173.69
40,0.064983,1173.69
41,0.06665,1172.349
42,0.068317,1170.486
43,0.069983,1170.486
44,0.07165000000000001,1169.071
45,0.07331699999999999,1170.486
46,0.07498299999999999,1171.827
47,0.07665,1171.827
48,0.078317,1171.753
49,0.079983,1172.125
50,0.081667,1169.518
51,0.083317,1169.518
52,0.084983,1169.816
53,0.08665,1173.392
54,0.08831700000000001,1178.086
55,0.08998299999999999,1178.086
56,0.09165,1180.172
57,0.093317,1180.693
58,0.094983,1180.693
59,0.09665,1179.278
60,0.098317,1174.137
61,0.099983,1172.498
62,0.10165,1172.498
63,0.103317,1172.349
64,0.104983,1171.157
65,0.106633,1175.031
66,0.1083,1175.031
67,0.109967,1176.074
68,0.111633,1175.106
69,0.1133,1171.902
70,0.114983,1171.902
71,0.116633,1167.432
72,0.1183,1167.059
73,0.119967,1168.4
74,0.121633,1168.4
75,0.1233,1170.859
76,0.124967,1172.796
77,0.126633,1172.796
78,0.1283,1171.678
79,0.129967,1171.157
80,0.131633,1171.082
81,0.1333,1171.082
82,0.134967,1170.71
83,0.136633,1172.87
84,0.1383,1174.212
85,0.139967,1174.212
86,0.141633,1174.957
87,0.1433,1175.925
88,0.144967,1176.074
89,0.146633,1176.074
90,0.1483,1178.533
91,0.149967,1177.043
92,0.151633,1177.043
93,0.1533,1176.223
94,0.155,1174.51
95,0.156633,1169.965
96,0.1583,1169.965
97,0.159967,1169.145
98,0.161633,1170.784
99,0.1633,1170.486
100,0.164967,1170.486
101,0.166617,1170.337
102,0.168283,1173.988
103,0.16995,1173.094
104,0.171617,1173.094
105,0.173283,1175.851
106,0.17495,1177.49
107,0.176617,1176
108,0.178283,1176
109,0.17995,1174.286
110,0.181617,1170.561
111,0.183283,1170.561
112,0.18495,1168.996
113,0.18665,1167.506
114,0.188417,1166.761
115,0.18995,1166.761
116,0.191617,1165.047
117,0.193283,1164.898
118,0.19495,1166.016
119,0.196617,1166.016
120,0.198283,1168.698
121,0.199933,1172.572
122,0.2016,1174.063
123,0.203267,1174.063
124,0.204933,1176.149
125,0.2066,1176.149
126,0.208267,1176.149
127,0.209933,1177.564
128,0.2116,1176.223
129,0.213267,1174.584
130,0.214933,1174.584
131,0.2166,1174.659
132,0.218267,1171.976
133,0.219933,1175.031
134,0.2216,1175.031
135,0.223267,1175.776
136,0.224933,1173.615
137,0.2266,1173.988
138,0.22825,1173.988
139,0.229917,1171.008
140,0.231583,1171.529
141,0.23325,1171.529
142,0.234917,1172.572
143,0.236583,1173.69
144,0.23825,1174.36
145,0.239917,1174.36
146,0.241583,1173.019
147,0.24325,1173.615
148,0.244917,1172.721
149,0.246583,1172.721
150,0.24825,1175.925
151,0.249917,1173.69
152,0.251617,1173.466
153,0.25325,1173.466
154,0.254917,1173.988
155,0.256583,1170.635
156,0.25825,1172.274
157,0.259917,1172.274
158,0.261583,1172.647
159,0.26325,1172.051
160,0.264917,1172.051
161,0.266583,1172.572
162,0.26825,1173.69
163,0.269917,1172.423
164,0.271583,1172.423
165,0.27325,1171.008
166,0.274917,1169.89
167,0.276583,1169.518
168,0.27825,1169.518
169,0.279917,1168.549
170,0.281583,1170.859
171,0.28325,1169.741
172,0.284917,1169.741
173,0.286583,1167.282
174,0.288233,1167.655
175,0.289983,1165.42
176,0.291567,1165.42
177,0.293233,1166.388
178,0.2949,1167.58
179,0.296567,1167.58
180,0.298233,1167.58
181,0.2999,1167.879
182,0.301567,1169.816
183,0.303233,1169.816
184,0.3049,1170.188
185,0.30665,1170.859
186,0.308233,1172.349
187,0.3099,1172.349
188,0.311567,1172.274
189,0.313233,1173.988
190,0.3149,1174.51
191,0.316567,1174.51
192,0.318233,1175.702
193,0.3199,1176.596
194,0.321567,1176.596
195,0.32335,1173.168
196,0.3249,1171.38
197,0.326567,1166.761
198,0.32825,1166.761
199,0.32995,1163.93
200,0.331567,1166.686
201,0.333233,1168.847
202,0.3349,1168.847
203,0.336567,1172.423
204,0.338233,1171.455
205,0.3399,1168.4
206,0.341567,1168.4
207,0.343233,1170.114
208,0.3449,1171.455
209,0.34655,1171.455
210,0.348217,1173.094
211,0.349883,1176.149
212,0.35155,1175.851
213,0.353217,1175.851
214,0.354883,1173.541
215,0.35655,1177.192
216,0.358217,1178.905
217,0.359883,1178.905
218,0.36155,1181.215
219,0.363217,1181.737
220,0.364883,1180.023
221,0.36655,1180.023
222,0.368217,1179.576
223,0.369883,1177.266
224,0.37155,1177.937
225,0.373217,1177.937
226,0.374883,1178.086
227,0.37655,1180.246
228,0.378217,1180.246
229,0.379883,1184.344
230,0.38155,1188.815
231,0.383217,1190.007
232,0.384883,1190.007
233,0.38655,1189.113
234,0.388217,1189.262
235,0.389883,1193.359
236,0.391567,1193.359
237,0.393217,1197.755
238,0.3949,1202.077
239,0.39655,1202.971
240,0.398217,1202.971
241,0.399883,1202.673
242,0.40155,1204.088
243,0.403217,1204.088
244,0.404883,1208.335
245,0.406533,1214.221
246,0.408283,1215.413
247,0.409867,1215.413
248,0.411533,1218.319
249,0.4132,1220.48
250,0.414867,1216.307
251,0.416533,1216.307
252,0.4182,1218.84
253,0.419867,1219.734
254,0.421533,1221.225
255,0.4232,1221.225
256,0.424917,1225.471
257,0.426533,1226.813
258,0.4282,1229.569
259,0.429867,1229.569
260,0.431533,1227.93
261,0.4332,1228.005
262,0.434867,1228.005
263,0.436533,1227.93
264,0.4382,1225.546
265,0.439867,1224.056
266,0.441633,1224.056
267,0.4432,1224.205
268,0.444867,1221.374
269,0.446533,1217.127
270,0.4482,1217.127
271,0.449867,1216.233
272,0.451533,1211.315
273,0.4532,1209.9
274,0.454867,1209.9
275,0.456533,1209.602
276,0.4582,1208.931
277,0.459867,1208.931
278,0.461533,1208.261
279,0.4632,1206.92
280,0.464867,1206.696
281,0.466517,1206.696
282,0.468183,1202.077
283,0.46985,1203.194
284,0.47155,1200.065
285,0.473183,1200.065
286,0.474917,1198.426
287,0.476517,1195.371
288,0.478183,1193.509
289,0.47985,1193.509
290,0.481517,1191.571
291,0.483183,1188.591
292,0.48485,1188.591
293,0.486517,1190.379
294,0.488183,1186.058
295,0.489833,1189.113
296,0.4915,1189.113
297,0.493167,1188.219
298,0.494833,1185.015
299,0.4965,1185.313
300,0.498167,1185.313
301,0.499833,1184.344
302,0.5014999999999999,1186.952
303,0.503167,1186.952
304,0.504833,1186.952
305,0.5065,1188.517
306,0.508167,1185.313
307,0.509833,1180.917
308,0.5115,1180.917
309,0.513167,1179.799
310,0.514833,1177.862
311,0.5165,1177.862
312,0.518167,1178.905
313,0.519833,1180.47
314,0.5215,1178.309
315,0.523167,1178.309
316,0.524833,1179.874
317,0.52655,1182.035
318,0.52815,1183.376
319,0.529817,1183.376
320,0.531483,1187.101
321,0.53315,1186.579
322,0.534817,1183.674
323,0.536483,1183.674
324,0.53815,1183.525
325,0.539817,1185.685
326,0.541483,1185.685
327,0.5432169999999999,1185.015
328,0.544817,1183.525
329,0.5464830000000001,1183.897
330,0.54815,1183.897
331,0.549817,1182.482
332,0.5514829999999999,1181.737
333,0.55315,1185.015
334,0.554817,1185.015
335,0.5564829999999999,1182.78
336,0.55815,1181.811
337,0.559933,1179.874
338,0.561483,1179.874
339,0.56315,1177.192
340,0.564817,1176.819
341,0.566483,1178.831
342,0.56815,1178.831
343,0.569817,1179.054
344,0.571483,1179.203
345,0.57315,1179.203
346,0.574817,1178.905
347,0.576483,1177.117
348,0.5781500000000001,1178.16
349,0.579817,1178.16
350,0.581483,1178.458
351,0.5831499999999999,1180.172
352,0.5848,1180.843
353,0.586467,1180.843
354,0.588133,1184.344
355,0.5898,1184.866
356,0.591467,1184.94
357,0.593133,1184.94
358,0.5948,1183.45
359,0.596467,1178.011
360,0.598133,1178.011
361,0.5998,1177.713
362,0.601467,1176.894
363,0.603133,1176.149
364,0.6048,1176.149
365,0.606467,1178.682
366,0.608133,1178.086
367,0.6098170000000001,1178.086
368,0.6115,1178.086
369,0.613133,1176.968
370,0.6148,1178.533
371,0.616467,1181.811
372,0.618133,1181.811
373,0.6198,1181.662
374,0.621467,1184.568
375,0.623133,1184.195
376,0.6248,1184.195
377,0.626467,1181.513
378,0.6281330000000001,1183.301
379,0.6298,1183.301
380,0.631467,1185.387
381,0.6331329999999999,1184.94
382,0.6348,1185.536
383,0.636483,1185.536
384,0.638133,1183.599
385,0.6398,1182.109
386,0.641467,1184.642
387,0.643133,1184.642
388,0.644783,1187.25
389,0.64645,1188.219
390,0.6481170000000001,1189.262
391,0.649783,1189.262
392,0.65145,1188.964
393,0.6531169999999999,1188.219
394,0.654783,1188.219
395,0.65645,1187.995
396,0.658117,1185.462
397,0.659783,1186.281
398,0.66145,1186.281
399,0.663117,1187.995
400,0.664783,1191.422
401,0.66645,1194.254
402,0.668117,1194.254
403,0.669783,1192.316
404,0.67145,1190.081
405,0.673117,1193.956
406,0.674783,1193.956
407,0.67645,1196.787
408,0.678217,1200.736
409,0.679783,1200.736
410,0.68145,1204.163
411,0.683117,1203.045
412,0.6848,1203.865
413,0.6865,1203.865
414,0.688117,1205.727
415,0.689783,1209.751
416,0.69145,1214.519
417,0.693117,1214.519
418,0.694783,1220.703
419,0.69645,1224.503
420,0.698117,1227.93
421,0.699783,1227.93
422,0.70145,1227.93
423,0.703117,1229.122
424,0.704783,1232.251
425,0.706433,1232.251
426,0.7081,1235.828
427,0.709767,1243.8
428,0.711433,1243.8
429,0.7131,1250.282
430,0.714767,1255.348
431,0.716433,1261.16
432,0.7181,1261.16
433,0.719767,1268.685
434,0.721433,1275.465
435,0.7231,1281.872
436,0.7247670000000001,1281.872
437,0.726433,1287.386
438,0.7281,1290.739
439,0.7297670000000001,1294.687
440,0.731433,1294.687
441,0.7331,1302.436
442,0.7347669999999999,1307.13
443,0.736433,1307.13
444,0.7381,1311.377
445,0.739767,1315.922
446,0.741433,1320.094
447,0.7431,1320.094
448,0.744767,1327.023
449,0.746433,1330.748
450,0.7481,1338.422
451,0.749767,1338.422
452,0.751433,1343.489
453,0.7531,1347.363
454,0.754767,1352.876
455,0.756433,1352.876
456,0.7581,1355.633
457,0.759783,1362.488
458,0.761433,1369.193
459,0.76315,1369.193
460,0.764767,1376.048
461,0.766417,1379.326
462,0.768083,1379.326
463,0.76975,1382.455
464,0.771417,1385.063
465,0.773083,1388.863
466,0.77475,1388.863
467,0.776417,1394.004
468,0.778083,1395.941
469,0.7797500000000001,1397.356
470,0.7814,1397.356
471,0.783067,1402.721
472,0.784733,1408.309
473,0.7864,1412.63
474,0.788067,1412.63
475,0.789733,1419.038
476,0.7914,1420.528
477,0.793067,1420.528
478,0.794733,1424.029
479,0.796517,1428.053
480,0.798067,1433.939
481,0.799733,1433.939
482,0.8014,1436.099
483,0.803067,1441.091
484,0.804733,1446.381
485,0.8064,1446.381
486,0.808067,1447.052
487,0.809733,1454.8
488,0.8114170000000001,1457.036
489,0.813067,1457.036
490,0.814733,1459.42
491,0.8164,1464.114
492,0.818067,1464.114
493,0.819733,1465.827
494,0.8214,1469.255
495,0.823067,1472.756
496,0.824717,1472.756
497,0.826383,1477.823
498,0.828083,1482.069
499,0.829717,1487.21
500,0.831383,1487.21
501,0.83305,1490.712
502,0.834717,1491.308
503,0.836383,1491.457
504,0.83805,1491.457
505,0.839717,1494.363
506,0.841383,1499.727
507,0.84305,1506.209
508,0.8447170000000001,1506.209
509,0.846383,1515.076
510,0.84805,1521.483
511,0.8497169999999999,1521.483
512,0.851383,1524.91
513,0.85305,1528.561
514,0.8547169999999999,1530.051
515,0.856383,1530.051
516,0.85805,1531.914
517,0.859717,1537.055
518,0.861383,1541.078
519,0.86305,1541.078
520,0.864717,1548.529
521,0.866383,1550.615
522,0.86805,1550.466
523,0.869717,1550.466
524,0.871383,1552.254
525,0.87305,1551.881
526,0.874717,1551.881
527,0.876383,1554.191
528,0.87805,1557.842
529,0.879717,1559.481
530,0.881383,1559.481
531,0.88305,1565.963
532,0.884717,1571.402
533,0.886367,1574.308
534,0.888033,1574.308
535,0.8897,1580.566
536,0.891367,1582.727
537,0.893033,1587.719
538,0.8947000000000001,1587.719
539,0.896417,1596.585
540,0.898033,1602.918
541,0.8997000000000001,1605.228
542,0.901367,1605.228
543,0.903033,1607.686
544,0.9046999999999999,1612.753
545,0.906367,1612.753
546,0.908033,1614.69
547,0.9097,1620.65
548,0.911367,1625.195
549,0.913033,1625.195
550,0.914817,1625.195
551,0.916367,1627.43
552,0.918033,1629.442
553,0.9197,1629.442
554,0.921367,1632.944
555,0.923033,1634.806
556,0.9247,1640.022
557,0.9263670000000001,1640.022
558,0.928033,1642.555
559,0.9297,1646.206
560,0.9313669999999999,1646.206
561,0.933033,1650.751
562,0.9347,1655.444
563,0.9363669999999999,1661.107
564,0.9380500000000001,1661.107
565,0.9397,1667.142
566,0.941367,1672.953
567,0.943033,1677.945
568,0.9446830000000001,1677.945
569,0.94635,1681.82
570,0.948017,1683.086
571,0.9496830000000001,1687.407
572,0.95135,1687.407
573,0.953017,1690.462
574,0.9546829999999999,1694.486
575,0.95635,1699.552
576,0.958017,1699.552
577,0.959683,1700.744
578,0.96135,1704.767
579,0.963017,1704.767
580,0.964717,1708.567
581,0.96635,1712.963
582,0.968017,1718.998
583,0.969683,1718.998
584,0.97135,1724.437
585,0.973017,1733.452
586,0.974683,1737.252
587,0.9763500000000001,1737.252
588,0.978017,1743.138
589,0.979683,1747.459
590,0.9813499999999999,1747.161
591,0.983017,1747.161
592,0.984683,1753.42
593,0.9863499999999999,1756.772
594,0.988017,1756.772
595,0.989683,1757.219
596,0.99135,1763.776
597,0.993017,1765.937
598,0.994683,1765.937
599,0.99635,1769.587
600,0.998017,1777.708
601,0.999683,1781.881
602,1.00135,1781.881
603,1.003017,1789.182
604,1.004683,1797.751
605,1.00635,1801.774
606,1.008,1801.774
607,1.009667,1806.468
608,1.011333,1810.417
609,1.013,1811.907
610,1.014667,1811.907
611,1.016433,1818.24
612,1.018017,1822.412
613,1.019667,1822.412
614,1.021333,1825.243
615,1.023,1830.757
616,1.024667,1834.854
617,1.026333,1834.854
618,1.028,1839.101
619,1.029667,1845.658
620,1.031333,1850.203
621,1.0331,1850.203
622,1.034667,1855.195
623,1.036333,1862.198
624,1.038,1870.468
625,1.039683,1870.468
626,1.041333,1878.142
627,1.043,1885.071
628,1.044667,1885.071
629,1.046333,1890.585
630,1.048,1892.224
631,1.049667,1896.396
632,1.051333,1896.396
633,1.053,1899.823
634,1.054667,1907.051
635,1.056333,1913.98
636,1.058,1913.98
637,1.059667,1919.791
638,1.061333,1927.018
639,1.063,1932.085
640,1.064667,1932.085
641,1.066317,1937.97
642,1.067983,1944.08
643,1.06965,1944.08
644,1.071317,1946.837
645,1.072967,1950.413
646,1.074633,1956.672
647,1.0763,1956.672
648,1.077967,1963.005
649,1.079633,1968.965
650,1.0813,1971.349
651,1.082967,1971.349
652,1.084633,1975.447
653,1.0863,1977.384
654,1.087967,1984.76
655,1.089633,1984.76
656,1.0913,1996.01
657,1.092967,2002.493
658,1.094633,2009.869
659,1.0963,2009.869
660,1.097967,2016.053
661,1.099667,2019.033
662,1.1013,2019.033
663,1.102983,2023.503
664,1.104633,2026.93
665,1.1063,2031.252
666,1.107967,2031.252
667,1.109633,2036.244
668,1.1113,2042.13
669,1.112967,2048.314
670,1.114633,2048.314
671,1.1163,2053.827
672,1.117983,2060.458
673,1.119633,2067.611
674,1.1213,2067.611
675,1.122967,2074.465
676,1.124633,2077.296
677,1.126283,2077.296
678,1.12795,2079.904
679,1.129617,2082.139
680,1.131283,2086.312
681,1.13295,2086.312
682,1.134683,2092.346
683,1.136283,2098.679
684,1.13795,2101.958
685,1.139617,2101.958
686,1.141283,2104.938
687,1.14295,2111.345
688,1.144617,2114.549
689,1.146283,2114.549
690,1.14795,2117.381
691,1.149617,2123.416
692,1.151383,2121.851
693,1.15295,2121.851
694,1.154617,2125.8
695,1.156283,2132.356
696,1.15795,2132.356
697,1.159617,2136.603
698,1.161283,2140.626
699,1.16295,2142.936
700,1.164617,2142.936
701,1.166283,2146.438
702,1.168067,2149.418
703,1.169617,2154.335
704,1.171283,2154.335
705,1.17295,2158.508
706,1.174617,2159.625
707,1.176283,2160.221
708,1.17795,2160.221
709,1.179617,2164.021
710,1.181283,2166.703
711,1.18295,2166.703
712,1.184617,2167.672
713,1.186283,2169.237
714,1.187933,2170.578
715,1.1896,2170.578
716,1.191267,2171.844
717,1.192933,2174.899
718,1.1946,2176.836
719,1.196267,2176.836
720,1.197933,2180.412
721,1.1996,2183.84
722,1.201267,2186.969
723,1.202933,2186.969
724,1.2046,2190.62
725,1.206267,2190.396
726,1.207933,2193.749
727,1.2096,2193.749
728,1.211267,2195.463
729,1.212933,2197.772
730,1.214617,2197.772
731,1.216267,2199.709
732,1.217933,2200.38
733,1.2196,2204.105
734,1.221267,2204.105
735,1.222933,2202.541
736,1.2246,2201.646
737,1.226267,2200.827
738,1.227933,2200.827
739,1.2296,2198.517
740,1.231267,2202.69
741,1.232933,2205.893
742,1.2346,2205.893
743,1.236267,2207.085
744,1.237933,2208.203
745,1.2396,2208.203
746,1.241267,2207.532
747,1.242933,2210.736
748,1.2446,2212.524
749,1.24625,2212.524
750,1.247917,2213.27
751,1.249583,2214.536
752,1.251283,2215.728
753,1.253083,2215.728
754,1.254583,2217.367
755,1.25625,2217.74
756,1.257917,2217.144
757,1.259583,2217.144
758,1.26125,2215.43
759,1.262917,2215.803
760,1.264583,2215.803
761,1.26625,2216.101
762,1.267917,2215.579
763,1.269633,2213.865
764,1.27125,2213.865
765,1.272917,2212.524
766,1.274583,2211.556
767,1.27625,2213.717
768,1.277917,2213.717
769,1.279583,2214.76
770,1.28125,2212.152
771,1.282917,2213.642
772,1.284583,2213.642
773,1.286367,2211.705
774,1.287917,2211.183
775,1.289583,2210.885
776,1.29125,2210.885
777,1.292917,2210.885
778,1.294583,2209.917
779,1.29625,2209.917
780,1.297917,2207.458
781,1.299583,2209.991
782,1.30125,2208.501
783,1.302917,2208.501
784,1.304583,2212.971
785,1.30625,2215.952
786,1.3079,2214.015
787,1.309567,2214.015
788,1.311233,2216.697
789,1.3129,2213.418
790,1.314567,2210.513
791,1.316233,2210.513
792,1.3179,2208.352
793,1.319567,2202.094
794,1.321233,2202.094
795,1.32295,2198.89
796,1.324567,2195.239
797,1.326233,2196.878
798,1.3279,2196.878
799,1.329567,2198.07
800,1.331233,2195.686
801,1.3329,2196.729
802,1.334567,2196.729
803,1.336233,2192.631
804,1.3379,2193.302
805,1.339567,2194.494
806,1.341233,2194.494
807,1.3429,2193.972
808,1.344567,2195.686
809,1.346233,2192.184
810,1.3479,2192.184
811,1.349567,2189.875
812,1.351233,2189.8
813,1.3529,2189.8
814,1.354567,2185.479
815,1.356233,2183.616
816,1.3579,2181.157
817,1.359567,2181.157
818,1.361233,2178.699
819,1.3629,2179.444
820,1.364533,2179.295
821,1.3662,2179.295
822,1.367867,2178.997
823,1.369533,2176.017
824,1.371267,2175.123
825,1.372867,2175.123
826,1.374533,2175.57
827,1.3762,2177.209
828,1.377867,2177.209
829,1.379533,2177.879
830,1.3812,2176.091
831,1.382867,2172.738
832,1.384533,2172.738
833,1.3862,2168.268
834,1.387933,2166.48
835,1.38955,2165.362
836,1.391217,2165.362
837,1.392867,2165.437
838,1.394533,2164.841
839,1.3962,2160.817
840,1.397867,2160.817
841,1.399533,2159.551
842,1.4012,2156.272
843,1.402867,2152.473
844,1.404583,2152.473
845,1.4062,2156.049
846,1.407867,2153.143
847,1.409533,2153.143
848,1.4112,2150.833
849,1.412867,2151.951
850,1.414533,2147.108
851,1.4162,2147.108
852,1.417867,2145.246
853,1.419533,2141.073
854,1.4212,2138.242
855,1.422867,2138.242
856,1.424533,2137.572
857,1.426183,2134.517
858,1.42785,2135.56
859,1.429517,2135.56
860,1.431183,2132.505
861,1.43285,2127.96
862,1.434517,2127.96
863,1.436183,2127.513
864,1.43785,2124.533
865,1.439517,2122.149
866,1.441183,2122.149
867,1.44285,2122.745
868,1.444517,2119.318
869,1.446183,2116.933
870,1.44785,2116.933
871,1.449517,2114.028
872,1.451183,2110.824
873,1.45285,2109.483
874,1.454517,2109.483
875,1.456183,2107.248
876,1.45785,2106.801
877,1.459517,2106.801
878,1.461217,2105.906
879,1.46285,2102.256
880,1.464517,2102.405
881,1.466183,2102.405
882,1.46785,2102.405
883,1.469517,2099.648
884,1.471183,2102.405
885,1.47285,2102.405
886,1.474517,2102.703
887,1.476183,2100.244
888,1.47785,2100.393
889,1.479517,2100.393
890,1.481183,2094.284
891,1.48285,2089.739
892,1.484517,2085.566
893,1.486167,2085.566
894,1.487833,2080.947
895,1.4895,2079.234
896,1.491167,2079.234
897,1.492833,2077.743
898,1.4945,2076.849
899,1.496167,2076.775
900,1.497833,2076.775
901,1.4995,2076.626
902,1.501167,2072.975
903,1.502833,2068.207
904,1.5045,2068.207
905,1.506167,2065.077
906,1.507833,2063.066
907,1.5095,2061.799
908,1.511167,2061.799
909,1.512833,2060.831
910,1.5145,2060.235
911,1.516167,2060.235
912,1.517833,2057.627
913,1.5195,2057.254
914,1.521167,2059.341
915,1.52295,2059.341
916,1.5245,2056.286
917,1.526167,2055.466
918,1.527833,2052.039
919,1.5295,2052.039
920,1.531167,2047.867
921,1.532833,2044.439
922,1.5345,2040.64
