"ID","sea_time","fid_signal"
1,0,1167.432
2,0.001667,1167.58
3,0.003333,1167.58
4,0.005,1168.475
5,0.006717,1167.804
6,0.008333,1164.898
7,0.01,1164.898
8,0.011667,1167.506
9,0.013333,1165.42
10,0.015,1168.922
11,0.016667,1168.922
12,0.018333,1169.443
13,0.02,1167.208
14,0.02165,1167.208
15,0.023317,1168.698
16,0.024983,1166.239
17,0.026667,1166.388
18,0.028317,1166.388
19,0.029983,1168.922
20,0.03165,1168.4
21,0.033317,1171.157
22,0.034983,1171.157
23,0.03665,1173.168
24,0.038317,1170.039
25,0.040083,1172.2
26,0.04165,1172.2
27,0.043317,1169.667
28,0.044983,1166.388
29,0.04665,1167.133
30,0.048317,1167.133
31,0.049983,1167.729
32,0.051667,1170.114
33,0.05335,1170.114
34,0.054983,1170.635
35,0.05665,1171.082
36,0.058317,1168.847
37,0.059983,1168.847
38,0.06165,1168.027
39,0.063317,1170.933
40,0.064983,1169.89
41,0.06665,1169.89
42,0.068317,1172.051
43,0.069983,1171.082
44,0.07165000000000001,1170.412
45,0.07331699999999999,1170.412
46,0.07498299999999999,1172.87
47,0.07665,1171.902
48,0.078317,1171.902
49,0.079983,1173.69
50,0.081633,1173.988
51,0.0833,1170.337
52,0.084967,1170.337
53,0.086633,1167.208
54,0.0883,1164.302
55,0.08996700000000001,1164.6
56,0.09163300000000001,1164.6
57,0.09329999999999999,1166.239
58,0.094967,1166.537
59,0.096633,1167.059
60,0.0983,1167.059
61,0.099967,1168.549
62,0.101633,1168.996
63,0.1033,1168.996
64,0.104967,1167.655
65,0.106633,1166.984
66,0.1083,1166.612
67,0.109967,1166.612
68,0.111633,1166.463
69,0.1133,1169.294
70,0.114967,1169.294
71,0.116633,1169.294
72,0.1183,1167.059
73,0.119967,1166.388
74,0.12165,1165.718
75,0.1233,1165.718
76,0.12505,1167.208
77,0.126633,1165.569
78,0.1283,1165.271
79,0.129967,1165.271
80,0.131633,1167.879
81,0.1333,1167.655
82,0.134967,1167.655
83,0.136633,1169.071
84,0.1383,1169.071
85,0.139967,1166.165
86,0.141617,1166.165
87,0.143283,1165.643
88,0.14495,1163.483
89,0.146617,1163.706
90,0.148283,1163.706
91,0.14995,1163.781
92,0.151617,1163.706
93,0.153283,1164.6
94,0.15495,1164.6
95,0.156617,1167.282
96,0.158283,1167.729
97,0.15995,1167.729
98,0.161617,1166.463
99,0.163283,1170.114
100,0.16495,1168.251
101,0.166617,1168.251
102,0.168283,1169.592
103,0.16995,1169.741
104,0.1716,1166.835
105,0.173267,1166.835
106,0.174933,1168.624
107,0.1766,1165.494
108,0.178267,1164.451
109,0.179933,1164.451
110,0.1816,1164.377
111,0.183267,1161.62
112,0.184933,1164.153
113,0.1866,1164.153
114,0.188267,1168.698
115,0.189933,1171.976
116,0.1916,1171.976
117,0.193267,1172.498
118,0.194933,1173.988
119,0.1966,1171.455
120,0.198267,1171.455
121,0.199933,1168.773
122,0.2016,1167.282
123,0.203267,1163.93
124,0.204917,1163.93
125,0.206583,1165.718
126,0.20825,1164.898
127,0.209917,1165.196
128,0.211583,1165.196
129,0.21325,1164.377
130,0.214917,1162.291
131,0.216583,1162.291
132,0.21825,1165.569
133,0.219917,1167.506
134,0.221583,1169.741
135,0.22325,1169.741
136,0.224917,1169.518
137,0.226583,1166.91
138,0.22825,1161.695
139,0.229917,1161.695
140,0.231583,1162.514
141,0.23325,1162.812
142,0.234917,1162.291
143,0.236583,1162.291
144,0.23825,1168.773
145,0.239917,1169.22
146,0.241583,1171.529
147,0.243267,1171.529
148,0.244917,1173.094
149,0.246583,1170.561
150,0.24825,1170.561
151,0.249917,1169.071
152,0.251583,1166.388
153,0.25325,1161.844
154,0.254917,1161.844
155,0.256583,1161.396
156,0.258233,1162.812
157,0.260017,1164.749
158,0.261567,1164.749
159,0.263233,1168.624
160,0.264933,1168.996
161,0.266567,1167.804
162,0.268233,1167.804
163,0.2699,1165.867
164,0.271567,1167.655
165,0.273233,1167.655
166,0.2749,1169.518
167,0.276567,1170.039
168,0.278233,1172.87
169,0.2799,1172.87
170,0.281567,1169.741
171,0.283233,1167.655
172,0.2849,1167.506
173,0.286567,1167.506
174,0.288233,1167.432
175,0.2899,1170.784
176,0.291567,1171.976
177,0.293333,1171.976
178,0.2949,1171.306
179,0.296567,1171.157
180,0.29825,1170.859
181,0.2999,1170.859
182,0.301567,1171.157
183,0.303233,1171.678
184,0.3049,1171.678
185,0.306567,1171.604
186,0.308233,1169.294
187,0.3099,1167.506
188,0.311567,1167.506
189,0.313233,1169.22
190,0.3149,1167.506
191,0.316567,1171.157
192,0.318233,1171.157
193,0.3199,1171.976
194,0.32155,1168.177
195,0.323217,1167.059
196,0.324883,1167.059
197,0.32655,1165.047
198,0.328217,1164.824
199,0.329883,1164.824
200,0.33155,1165.047
201,0.333217,1168.624
202,0.334883,1167.357
203,0.33655,1167.357
204,0.338217,1166.984
205,0.339883,1168.027
206,0.34155,1164.377
207,0.343217,1164.377
208,0.344883,1164.526
209,0.34655,1165.345
210,0.348217,1165.271
211,0.349883,1165.271
212,0.35155,1166.165
213,0.353217,1165.643
214,0.354883,1165.643
215,0.35655,1163.483
216,0.358217,1165.718
217,0.359883,1168.251
218,0.3616,1168.251
219,0.363217,1168.847
220,0.364883,1169.22
221,0.36655,1167.059
222,0.368217,1167.059
223,0.369883,1164.675
224,0.37155,1165.643
225,0.373217,1168.326
226,0.374883,1168.326
227,0.37655,1166.537
228,0.378283,1167.58
229,0.379867,1166.984
230,0.381533,1166.984
231,0.3832,1167.879
232,0.384867,1171.157
233,0.386533,1171.157
234,0.3882,1169.965
235,0.389867,1170.337
236,0.391533,1167.208
237,0.3932,1167.208
238,0.394867,1165.941
239,0.396533,1167.133
240,0.3982,1167.58
241,0.399867,1167.58
242,0.401533,1169.294
243,0.4032,1172.647
244,0.404867,1173.765
245,0.406533,1173.765
246,0.4082,1173.839
247,0.409883,1171.604
248,0.41165,1171.902
249,0.4132,1171.902
250,0.414867,1173.168
251,0.416533,1173.765
252,0.4182,1173.765
253,0.419867,1177.862
254,0.421533,1178.98
255,0.4232,1179.725
256,0.424867,1179.725
257,0.426533,1185.164
258,0.4282,1196.191
259,0.429867,1213.253
260,0.431533,1213.253
261,0.4332,1239.628
262,0.434867,1274.943
263,0.436533,1318.678
264,0.4382,1318.678
265,0.439867,1380.816
266,0.441517,1472.458
267,0.443183,1472.458
268,0.44485,1597.181
269,0.446517,1764.297
270,0.448183,1981.035
271,0.44985,1981.035
272,0.451517,2252.162
273,0.453183,2589.151
274,0.45485,3008.47
275,0.456517,3008.47
276,0.458183,3511.086
277,0.459867,4115.477
278,0.4615,4828.87
279,0.463167,4828.87
280,0.464833,5653.277
281,0.4665,6598.83
282,0.468167,6598.83
283,0.469833,7653.833
284,0.4715,8816.495000000001
285,0.473167,10079.965
286,0.474833,10079.965
287,0.4765,11422.783
288,0.478167,12832.508
289,0.479833,14281.272
290,0.4815,14281.272
291,0.483167,15744.716
292,0.484833,17191.842
293,0.4865,18593.818
294,0.488167,18593.818
295,0.489833,19924.863
296,0.4915,21152.57
297,0.493167,21152.57
298,0.494833,22260.473
299,0.49655,23221.15
300,0.498167,24022.014
301,0.499833,24022.014
302,0.501483,24656.355
303,0.50315,25118.516
304,0.504817,25415.494
305,0.506483,25415.494
306,0.50815,25553.406
307,0.509817,25545.582
308,0.511483,25408.416
309,0.513217,25408.416
310,0.514817,25155.619
311,0.516483,24805.59
312,0.51815,24373.605
313,0.519817,24373.605
314,0.521483,23875.684
315,0.52315,23329.854
316,0.524817,23329.854
317,0.526483,22746.92
318,0.52815,22138.73
319,0.529917,21516.605
320,0.531483,21516.605
321,0.53315,20891.801
322,0.534817,20270.348
323,0.536483,19659.25
324,0.53815,19659.25
325,0.539817,19058.139
326,0.541483,18472.15
327,0.54315,17901.658
328,0.544817,17901.658
329,0.5464830000000001,17349.422
330,0.54815,16817.973
331,0.549833,16817.973
332,0.5514829999999999,16303.212
333,0.55315,15814.081
334,0.554817,15341.49
335,0.5564829999999999,15341.49
336,0.55815,14893.785
337,0.559817,14465.153
338,0.561467,14054.701
339,0.563133,14054.701
340,0.5648,13661.98
341,0.5664670000000001,13283.863
342,0.568133,12925.64
343,0.5698,12925.64
344,0.5714669999999999,12584.627
345,0.573133,12261.719
346,0.5748,11954.01
347,0.576467,11954.01
348,0.578133,11660.084
349,0.5798,11379.123
350,0.581467,11379.123
351,0.583133,11108.294
352,0.5848,10850.653
353,0.586467,10599.196
354,0.588133,10599.196
355,0.5898,10355.339
356,0.591467,10127.127
357,0.593133,9908.527
358,0.5948,9908.527
359,0.596467,9704.456
360,0.598133,9510.07
361,0.5998,9317.621999999999
362,0.601467,9317.621999999999
363,0.603133,9135.008
364,0.6048,8958.206
365,0.606467,8958.206
366,0.608133,8787.215
367,0.6098,8626.058999999999
368,0.611467,8466.766
369,0.613133,8466.766
370,0.614883,8312.911
371,0.616467,8164.421
372,0.618133,8023.754
373,0.6198,8023.754
374,0.6214499999999999,7888.153
375,0.623117,7762.089
376,0.624783,7642.657
377,0.62645,7642.657
378,0.628117,7523.224
379,0.629783,7405.654
380,0.63145,7288.754
381,0.633117,7288.754
382,0.634783,7175.058
383,0.63645,7066.131
384,0.638117,7066.131
385,0.639783,6966.666
386,0.64145,6868.839
387,0.643117,6773.844
388,0.644783,6773.844
389,0.64645,6683.618
390,0.648217,6591.827
391,0.649783,6504.655
392,0.65145,6504.655
393,0.6531169999999999,6420.538
394,0.654783,6337.836
395,0.65645,6256.029
396,0.658133,6256.029
397,0.659783,6176.084
398,0.66145,6099.791
399,0.663117,6099.791
400,0.664783,6023.72
401,0.66645,5950.928
402,0.668117,5881.936
403,0.669783,5881.936
404,0.67145,5812.124
405,0.673117,5745.664
406,0.674783,5681.813
407,0.67645,5681.813
408,0.678117,5617.738
409,0.679767,5554.855
410,0.681433,5493.388
411,0.6831,5493.388
412,0.684767,5434.677
413,0.686433,5378.574
414,0.6881,5378.574
415,0.689767,5321.801
416,0.6915,5265.921
417,0.6931,5208.478
418,0.694767,5208.478
419,0.696433,5151.332
420,0.6981000000000001,5102.53
421,0.699767,5055.517
422,0.701433,5055.517
423,0.7030999999999999,5008.653
424,0.704767,4959.181
425,0.706433,4911.199
426,0.7081,4911.199
427,0.709767,4862.622
428,0.711433,4816.279
429,0.7131,4773.14
430,0.714767,4773.14
431,0.716433,4725.829
432,0.7181,4682.765
433,0.719767,4682.765
434,0.721433,4640.073
435,0.7231,4600.361
436,0.7247670000000001,4559.755
437,0.726433,4559.755
438,0.7281,4517.958
439,0.7297670000000001,4482.493
440,0.731433,4442.707
441,0.73315,4442.707
442,0.7347669999999999,4403.666
443,0.736433,4366.189
444,0.7381,4327.521
445,0.739767,4327.521
446,0.741417,4294.291
447,0.743083,4260.391
448,0.74475,4260.391
449,0.746417,4226.491
450,0.7480830000000001,4192.144
451,0.74975,4154.965
452,0.751417,4154.965
453,0.753067,4124.492
454,0.754733,4092.082
455,0.7564,4059.598
456,0.758067,4059.598
457,0.759733,4027.709
458,0.7614,3996.715
459,0.7630670000000001,3968.105
460,0.76475,3968.105
461,0.766517,3940.091
462,0.7680670000000001,3911.555
463,0.769733,3878.847
464,0.7714,3878.847
465,0.7730669999999999,3849.491
466,0.774733,3821.403
467,0.7764,3821.403
468,0.778067,3796.369
469,0.779733,3768.876
470,0.7814,3740.117
471,0.783067,3740.117
472,0.784733,3711.73
473,0.7864,3682.077
474,0.788067,3657.937
475,0.789733,3657.937
476,0.7914,3632.233
477,0.793067,3604.889
478,0.794733,3578.067
479,0.7964,3578.067
480,0.798067,3553.703
481,0.799733,3532.842
482,0.801383,3532.842
483,0.80305,3510.49
484,0.804717,3487.393
485,0.806383,3463.179
486,0.80805,3463.179
487,0.809717,3436.059
488,0.811383,3415.644
489,0.8130500000000001,3397.837
490,0.814717,3397.837
491,0.816383,3375.336
492,0.8180500000000001,3352.687
493,0.819717,3324.822
494,0.821383,3324.822
495,0.8230499999999999,3297.552
496,0.824717,3273.04
497,0.826383,3252.551
498,0.82805,3252.551
499,0.829717,3234.148
500,0.8314,3214.404
501,0.833067,3214.404
502,0.834717,3195.852
503,0.836383,3176.332
504,0.83805,3155.768
505,0.839717,3155.768
506,0.841383,3137.141
507,0.84305,3118.962
508,0.8447170000000001,3099.591
509,0.846383,3099.591
510,0.84805,3080.219
511,0.8497169999999999,3061.369
512,0.851433,3042.743
513,0.85305,3042.743
514,0.8547169999999999,3021.062
515,0.856383,2999.604
516,0.85805,2999.604
517,0.859717,2977.55
518,0.861367,2957.359
519,0.8630330000000001,2938.956
520,0.8647,2938.956
521,0.866367,2923.757
522,0.8680330000000001,2908.036
523,0.8697,2893.508
524,0.871367,2893.508
525,0.8730329999999999,2879.426
526,0.8747,2862.737
527,0.876367,2843.365
528,0.878033,2843.365
529,0.8797,2822.429
530,0.881367,2804.25
531,0.883033,2804.25
532,0.884817,2784.58
533,0.886367,2770.349
534,0.888033,2755.97
535,0.8897,2755.97
536,0.891367,2739.876
537,0.893033,2727.136
538,0.8947000000000001,2710.819
539,0.896367,2710.819
540,0.898033,2692.714
541,0.8997000000000001,2675.653
542,0.901367,2659.708
543,0.903033,2659.708
544,0.9046999999999999,2648.383
545,0.906367,2637.356
546,0.908033,2625.212
547,0.9097,2625.212
548,0.911367,2611.056
549,0.913033,2595.484
550,0.9147,2595.484
551,0.916367,2577.156
552,0.918033,2562.553
553,0.9197,2548.695
554,0.92135,2548.695
555,0.923017,2532.601
556,0.924683,2520.159
557,0.92635,2507.195
558,0.928017,2507.195
559,0.929683,2494.007
560,0.93135,2480.745
561,0.933017,2468.452
562,0.934683,2468.452
563,0.93635,2454.966
564,0.938017,2439.618
565,0.939683,2439.618
566,0.94135,2424.866
567,0.943017,2409.145
568,0.9446830000000001,2394.021
569,0.94635,2394.021
570,0.948017,2383.366
571,0.9496830000000001,2373.084
572,0.95135,2363.25
573,0.953017,2363.25
574,0.9546829999999999,2351.329
575,0.95635,2338.663
576,0.958017,2329.499
577,0.959683,2329.499
578,0.96135,2321.303
579,0.963017,2310.947
580,0.964683,2300.367
581,0.96635,2300.367
582,0.968017,2285.391
583,0.96975,2272.054
584,0.97135,2272.054
585,0.973017,2259.836
586,0.974683,2250.448
587,0.9763500000000001,2243.593
588,0.978017,2243.593
589,0.979667,2231.523
590,0.981367,2222.955
591,0.983,2212.003
592,0.984667,2212.003
593,0.986333,2198.815
594,0.988,2191.588
595,0.989667,2181.753
596,0.991333,2181.753
597,0.993,2169.758
598,0.994667,2162.01
599,0.996333,2162.01
600,0.998,2152.473
601,0.999667,2141.297
602,1.001333,2130.493
603,1.003067,2130.493
604,1.004667,2117.678
605,1.006333,2104.864
606,1.008,2097.86
607,1.009667,2097.86
608,1.011333,2087.653
609,1.013,2079.979
610,1.014667,2071.857
611,1.016333,2071.857
612,1.018,2061.054
613,1.019667,2056.36
614,1.021333,2047.941
615,1.023,2047.941
616,1.024667,2037.883
617,1.026333,2028.644
618,1.028,2028.644
619,1.029667,2016.947
620,1.031333,2007.037
621,1.033,1998.767
622,1.034667,1998.767
623,1.036333,1993.105
624,1.038,1985.282
625,1.039667,1978.129
626,1.041317,1978.129
627,1.042983,1970.828
628,1.044633,1959.95
629,1.0463,1951.978
630,1.047967,1951.978
631,1.049633,1944.676
632,1.0513,1938.12
633,1.052983,1938.12
634,1.054633,1933.947
635,1.0563,1930.967
636,1.057967,1924.783
637,1.059633,1924.783
638,1.0613,1917.63
639,1.062967,1908.392
640,1.064633,1898.557
641,1.0663,1898.557
642,1.067967,1891.479
643,1.069633,1882.389
644,1.0713,1876.056
645,1.072967,1876.056
646,1.074633,1869.723
647,1.0763,1863.092
648,1.077967,1863.092
649,1.079633,1859.665
650,1.0813,1851.618
651,1.082967,1845.434
652,1.084633,1845.434
653,1.0863,1841.038
654,1.088033,1831.8
655,1.089633,1826.733
656,1.0913,1826.733
657,1.092967,1820.624
658,1.094633,1812.056
659,1.0963,1806.989
660,1.097967,1806.989
661,1.099633,1801.327
662,1.101283,1793.057
663,1.10295,1788.512
664,1.104617,1788.512
665,1.106283,1782.849
666,1.10795,1778.379
667,1.109617,1778.379
668,1.111283,1776.442
669,1.11295,1769.96
670,1.114617,1766.607
671,1.116283,1766.607
672,1.11795,1759.902
673,1.119617,1751.333
674,1.1214,1743.808
675,1.122983,1743.808
676,1.124617,1736.06
677,1.126283,1731.664
678,1.12795,1725.182
679,1.129617,1725.182
680,1.131283,1720.339
681,1.13295,1715.347
682,1.134617,1715.347
683,1.136283,1710.057
684,1.13795,1706.556
685,1.139617,1701.489
686,1.141283,1701.489
687,1.14295,1696.721
688,1.144617,1689.121
689,1.146283,1684.576
690,1.14795,1684.576
691,1.149633,1680.106
692,1.151283,1675.412
693,1.15295,1673.922
694,1.154617,1673.922
695,1.156283,1671.091
696,1.15795,1668.483
697,1.1596,1663.342
698,1.161267,1663.342
699,1.162933,1656.339
700,1.1646,1649.335
701,1.166267,1649.335
702,1.167933,1643.151
703,1.1696,1638.755
704,1.171267,1638.606
705,1.172933,1638.606
706,1.1746,1637.34
707,1.176267,1633.242
708,1.177933,1630.56
709,1.1796,1630.56
710,1.181267,1620.725
711,1.182933,1614.094
712,1.1846,1610.517
713,1.186267,1610.517
714,1.187933,1608.953
715,1.189617,1609.922
716,1.191267,1609.922
717,1.192933,1608.729
718,1.1946,1602.694
719,1.196267,1594.573
720,1.197933,1594.573
721,1.1996,1587.421
722,1.201267,1580.492
723,1.202933,1579.151
724,1.2046,1579.151
725,1.206267,1578.48
726,1.207933,1577.735
727,1.2096,1576.394
728,1.211267,1576.394
729,1.212933,1572.892
730,1.2146,1570.061
731,1.216267,1564.771
732,1.217933,1564.771
733,1.2196,1559.63
734,1.22125,1555.309
735,1.223,1555.309
736,1.224583,1548.454
737,1.22625,1544.505
738,1.227917,1540.109
739,1.229583,1540.109
740,1.23125,1537.651
741,1.232917,1537.576
742,1.234583,1535.49
743,1.236267,1535.49
744,1.237917,1533.479
745,1.23965,1526.773
746,1.24125,1521.26
747,1.242917,1521.26
748,1.244583,1520.663
749,1.24625,1519.62
750,1.247917,1519.62
751,1.249583,1520.962
752,1.25125,1516.938
753,1.252917,1510.531
754,1.254583,1510.531
755,1.2563,1507.327
756,1.257917,1504.868
757,1.259583,1503.676
758,1.26125,1503.676
759,1.262917,1502.335
760,1.264583,1495.779
761,1.26625,1490.638
762,1.267933,1490.638
763,1.269583,1488.552
764,1.27125,1484.752
765,1.272917,1484.752
766,1.274583,1485.05
767,1.27625,1483.187
768,1.277917,1481.622
769,1.279583,1481.622
770,1.281233,1479.909
771,1.2829,1478.866
772,1.284567,1477.823
773,1.286233,1477.823
774,1.2879,1472.086
775,1.289567,1467.541
776,1.291233,1464.486
777,1.2929,1464.486
778,1.294567,1462.176
779,1.296233,1460.612
780,1.2979,1459.792
781,1.299567,1459.792
782,1.301233,1455.769
783,1.3029,1453.981
784,1.304567,1453.981
785,1.306233,1452.938
786,1.3079,1447.35
787,1.309567,1445.487
788,1.311233,1445.487
789,1.312917,1442.954
790,1.314567,1438.186
791,1.316233,1437.664
792,1.3179,1437.664
793,1.319567,1433.864
794,1.321233,1433.492
795,1.3229,1435.354
796,1.324567,1435.354
797,1.326233,1434.535
798,1.3279,1434.088
799,1.329567,1434.088
800,1.331233,1429.17
801,1.3329,1423.135
802,1.334567,1419.559
803,1.336217,1419.559
804,1.337883,1417.324
805,1.339567,1413.152
806,1.3413,1413.599
807,1.342867,1413.599
808,1.344533,1414.716
809,1.3462,1415.014
810,1.347867,1415.163
811,1.349533,1415.163
812,1.3512,1413.152
813,1.352867,1411.14
814,1.354533,1409.575
815,1.3562,1409.575
816,1.357867,1408.83
817,1.359533,1404.658
818,1.3612,1404.658
819,1.362867,1400.858
820,1.364533,1399.592
821,1.3662,1397.729
822,1.367867,1397.729
823,1.369533,1398.027
824,1.3712,1397.207
825,1.372867,1393.78
826,1.374633,1393.78
827,1.3762,1391.172
828,1.377867,1387.224
829,1.379533,1386.628
830,1.3812,1386.628
831,1.382867,1383.126
832,1.384533,1381.412
833,1.3862,1381.412
834,1.387867,1383.051
835,1.389533,1380.295
836,1.3912,1380.295
837,1.392867,1380.295
838,1.394533,1377.165
839,1.3962,1373.291
840,1.397867,1370.385
841,1.39955,1370.385
842,1.401183,1368.299
843,1.40285,1368.001
844,1.404517,1369.119
845,1.406183,1369.119
846,1.40785,1369.342
847,1.409517,1367.703
848,1.411233,1365.915
849,1.41285,1365.915
850,1.414517,1363.009
851,1.416183,1361.221
852,1.41785,1361.221
853,1.419517,1357.272
854,1.421183,1357.719
855,1.42285,1354.888
856,1.424517,1354.888
857,1.426183,1350.716
858,1.42785,1351.014
859,1.429517,1346.618
860,1.431183,1346.618
861,1.43285,1347.438
862,1.434517,1348.034
863,1.436183,1347.438
864,1.43785,1347.438
865,1.439517,1347.512
866,1.441183,1345.128
867,1.44285,1345.128
868,1.444517,1345.798
869,1.446183,1346.543
870,1.44785,1345.5
871,1.449517,1345.5
872,1.451183,1344.532
873,1.45285,1340.657
874,1.454517,1336.783
875,1.456183,1336.783
876,1.45785,1335.591
877,1.459583,1333.952
878,1.461167,1332.76
879,1.462833,1332.76
880,1.4645,1331.046
881,1.466167,1327.693
882,1.467833,1327.693
883,1.4695,1327.544
884,1.471167,1327.023
885,1.472833,1326.129
886,1.4745,1326.129
887,1.47625,1324.862
888,1.477833,1322.404
889,1.4795,1320.168
890,1.481167,1320.168
891,1.482833,1320.168
892,1.4845,1319.498
893,1.486167,1319.945
894,1.487833,1319.945
895,1.4895,1320.988
896,1.491167,1318.38
897,1.492933,1319.796
898,1.4945,1319.796
899,1.496167,1317.114
900,1.497833,1313.165
901,1.4995,1313.165
902,1.501167,1311.898
903,1.502833,1310.855
904,1.5045,1310.185
905,1.506167,1310.185
906,1.507833,1311.675
907,1.5095,1311.749
908,1.511167,1311.451
909,1.512833,1311.451
910,1.5145,1309.887
911,1.516167,1305.416
912,1.517833,1306.31
913,1.5195,1306.31
914,1.52115,1306.161
915,1.522817,1305.938
916,1.524483,1305.938
917,1.52615,1308.918
