"ID","sea_time","fid_signal"
1,0,140.898
2,0.001667,140.846
3,0.003333,141.218
4,0.005,141.218
5,0.006667,141.203
6,0.008333,141.047
7,0.01,140.727
8,0.011667,140.727
9,0.013333,140.071
10,0.01505,140.063
11,0.016667,140.063
12,0.018333,140.436
13,0.019983,140.697
14,0.02165,141.032
15,0.023317,141.032
16,0.024983,141.01
17,0.02665,141.136
18,0.028317,141.315
19,0.029983,141.315
20,0.031667,141.419
21,0.033317,141.434
22,0.034983,140.958
23,0.03665,140.958
24,0.038317,140.689
25,0.039983,140.548
26,0.04165,140.719
27,0.043333,140.719
28,0.044983,140.935
29,0.04665,140.987
30,0.048417,141.367
31,0.049983,141.367
32,0.05165,141.256
33,0.053317,141.315
34,0.054983,141.315
35,0.05665,141.561
36,0.058317,141.196
37,0.059983,141.352
38,0.06165,141.352
39,0.063317,141.464
40,0.064983,141.539
41,0.06665,141.621
42,0.0683,141.621
43,0.069967,141.39
44,0.071633,141.472
45,0.0733,141.472
46,0.07496700000000001,141.412
47,0.07663300000000001,141.226
48,0.07829999999999999,141.36
49,0.07994999999999999,141.36
50,0.081617,141.032
51,0.083283,141.062
52,0.08495,141.479
53,0.086617,141.479
54,0.088283,141.74
55,0.08995,141.881
56,0.091617,141.837
57,0.093283,141.837
58,0.09495000000000001,141.881
59,0.09661699999999999,141.859
60,0.098283,141.703
61,0.09995,141.703
62,0.101617,141.896
63,0.103283,141.725
64,0.10495,141.725
65,0.106617,141.367
66,0.108283,141.218
67,0.10995,140.943
68,0.111633,140.943
69,0.113283,141.01
70,0.11495,141.203
71,0.116617,141.591
72,0.118283,141.591
73,0.11995,141.65
74,0.121617,141.531
75,0.123283,141.591
76,0.12495,141.591
77,0.126617,141.345
78,0.128283,141.151
79,0.12995,141.151
80,0.131617,141.107
81,0.13335,141.107
82,0.13495,141.352
83,0.136617,141.352
84,0.138267,141.725
85,0.139933,141.703
86,0.1416,141.822
87,0.143267,141.822
88,0.144933,141.621
89,0.1466,141.65
90,0.148283,141.762
91,0.150017,141.762
92,0.1516,141.688
93,0.153267,141.837
94,0.154933,141.762
95,0.1566,141.762
96,0.158267,141.874
97,0.159933,141.71
98,0.1616,141.71
99,0.163267,141.546
100,0.164933,141.546
101,0.166717,141.263
102,0.168267,141.263
103,0.169933,141.263
104,0.1716,141.501
105,0.173267,141.375
106,0.174933,141.375
107,0.1766,141.68
108,0.178267,141.881
109,0.179933,141.956
110,0.1816,141.956
111,0.183267,142.142
112,0.184933,141.814
113,0.1866,141.814
114,0.188267,141.531
115,0.18995,141.196
116,0.191617,141.025
117,0.193267,141.025
118,0.194933,141.338
119,0.1966,141.241
120,0.198267,141.352
121,0.199917,141.352
122,0.201583,141.472
123,0.20325,141.293
124,0.204917,141.3
125,0.206583,141.3
126,0.20825,141.554
127,0.209917,141.382
128,0.211583,141.382
129,0.21325,141.434
130,0.214917,141.427
131,0.216583,141.107
132,0.21825,141.107
133,0.219917,141.01
134,0.221583,140.89
135,0.22325,140.764
136,0.224917,140.764
137,0.226583,140.831
138,0.22825,140.771
139,0.229917,140.712
140,0.231583,140.712
141,0.23325,141.233
142,0.234917,141.457
143,0.236583,141.576
144,0.23825,141.576
145,0.239917,141.934
146,0.241583,141.509
147,0.24325,141.509
148,0.244917,141.218
149,0.246583,141.166
150,0.24825,140.883
151,0.249917,140.883
152,0.251633,140.898
153,0.25325,140.704
154,0.254917,140.883
155,0.256583,140.883
156,0.258233,140.645
157,0.259933,140.6
158,0.261617,140.898
159,0.263233,140.898
160,0.2649,140.861
161,0.266567,141.002
162,0.268317,141.218
163,0.2699,141.218
164,0.271567,141.092
165,0.273233,141.025
166,0.2749,141.025
167,0.276567,140.585
168,0.278233,140.555
169,0.2799,140.689
170,0.281567,140.689
171,0.283233,140.622
172,0.285017,141.256
173,0.286567,141.233
174,0.288233,141.233
175,0.2899,141.084
176,0.291567,141.166
177,0.293233,141.114
178,0.2949,141.114
179,0.296567,141.315
180,0.298233,141.427
181,0.2999,141.427
182,0.301567,141.554
183,0.303233,141.487
184,0.3049,141.241
185,0.306567,141.241
186,0.308233,141.248
187,0.3099,141.427
188,0.311567,141.613
189,0.313233,141.613
190,0.3149,141.74
191,0.316567,141.956
192,0.318233,141.725
193,0.319883,141.725
194,0.32155,141.799
195,0.323217,142.045
196,0.324883,142.045
197,0.32655,142.105
198,0.328217,142.261
199,0.329883,141.963
200,0.33155,141.963
201,0.333217,141.934
202,0.334883,141.568
203,0.33655,141.405
204,0.338217,141.405
205,0.339883,141.583
206,0.34155,141.375
207,0.343217,141.658
208,0.344883,141.658
209,0.34655,141.74
210,0.348217,141.814
211,0.349883,142.12
212,0.35155,142.12
213,0.353217,142.209
214,0.354883,142.507
215,0.35655,142.507
216,0.358217,142.91
217,0.359867,143.252
218,0.361533,143.848
219,0.3632,143.848
220,0.364867,144.295
221,0.366533,144.757
222,0.3682,145.473
223,0.369883,145.473
224,0.371533,146.143
225,0.3732,147.142
226,0.374867,148.334
227,0.376533,148.334
228,0.3782,149.712
229,0.37985,151.284
230,0.381517,151.284
231,0.383183,152.707
232,0.38485,154.592
233,0.386517,156.045
234,0.388183,156.045
235,0.38985,157.878
236,0.391517,160.217
237,0.393183,162.154
238,0.39485,162.154
239,0.396517,164.442
240,0.398183,166.26
241,0.39985,168.517
242,0.401517,168.517
243,0.4032,170.715
244,0.40485,173.084
245,0.406517,173.084
246,0.408183,175.759
247,0.40985,177.771
248,0.411517,179.902
249,0.413183,179.902
250,0.41485,182.077
251,0.416517,183.955
252,0.418183,185.527
253,0.419967,185.527
254,0.421517,186.89
255,0.423183,187.919
256,0.42485,188.872
257,0.426517,188.872
258,0.428183,189.409
259,0.42985,189.662
260,0.43155,189.386
261,0.433183,189.386
262,0.43485,188.865
263,0.436517,188.418
264,0.438183,188.418
265,0.439833,188.187
266,0.4415,187.866
267,0.443167,187.285
268,0.444833,187.285
269,0.4465,186.302
270,0.448167,184.618
271,0.449833,182.867
272,0.4515,182.867
273,0.453167,180.922
274,0.454833,179.224
275,0.4565,177.413
276,0.458167,177.413
277,0.459833,175.625
278,0.4615,173.651
279,0.463167,173.651
280,0.464833,171.833
281,0.4665,170.112
282,0.468167,168.264
283,0.469833,168.264
284,0.4715,166.915
285,0.473167,165.112
286,0.474833,163.361
287,0.4765,163.361
288,0.478167,162.013
289,0.479833,160.262
290,0.4815,158.958
291,0.483167,158.958
292,0.484833,157.893
293,0.4865,156.701
294,0.488167,155.717
295,0.489833,155.717
296,0.4915,155.061
297,0.493167,154.22
298,0.494833,154.22
299,0.4965,153.363
300,0.498167,152.64
301,0.499817,151.627
302,0.501483,151.627
303,0.50315,151.262
304,0.504883,150.934
305,0.506483,150.397
306,0.50815,150.397
307,0.509817,150.211
308,0.511483,149.831
309,0.513167,149.287
310,0.514817,149.287
311,0.516483,148.9
312,0.51815,148.751
313,0.519817,148.751
314,0.521517,148.296
315,0.52315,148.177
316,0.524817,148.125
317,0.526483,148.125
318,0.52815,147.7
319,0.529817,147.805
320,0.531483,147.775
321,0.53315,147.775
322,0.534817,147.752
323,0.536483,147.73
324,0.53825,147.492
325,0.539817,147.492
326,0.541483,147.387
327,0.54315,147.536
328,0.544817,147.432
329,0.5464830000000001,147.432
330,0.54815,147.358
331,0.549817,147.291
332,0.5514829999999999,147.291
333,0.55315,147.179
334,0.554817,147.276
335,0.5564829999999999,147.574
336,0.55815,147.574
337,0.5598,147.484
338,0.561467,147.648
339,0.563133,147.797
340,0.5648,147.797
341,0.5664670000000001,147.805
342,0.568133,148.103
343,0.5698,147.939
344,0.5714669999999999,147.939
345,0.573133,148.05
346,0.5748,148.125
347,0.576467,148.125
348,0.578133,148.058
349,0.5798,148.289
350,0.581467,148.311
351,0.583133,148.311
352,0.5848,147.894
353,0.586467,147.738
354,0.588133,147.551
355,0.5898,147.551
356,0.591467,147.358
357,0.593133,147.671
358,0.5948,147.976
359,0.596467,147.976
360,0.598133,148.14
361,0.5998,148.125
362,0.601467,147.909
363,0.603133,147.909
364,0.604817,147.73
365,0.606467,147.603
366,0.608133,147.603
367,0.6098,147.603
368,0.611467,147.797
369,0.613133,147.849
370,0.6148,147.849
371,0.616467,148.065
372,0.618133,148.341
373,0.619783,148.386
374,0.6214499999999999,148.386
375,0.623133,148.259
376,0.624783,147.894
377,0.62645,147.812
378,0.628117,147.812
379,0.629783,147.931
380,0.63145,147.864
381,0.633117,147.864
382,0.634783,148.214
383,0.63645,148.237
384,0.638117,148.401
385,0.6398,148.401
386,0.64145,148.945
387,0.643117,148.863
388,0.644783,149.027
389,0.64645,149.027
390,0.6481170000000001,148.959
391,0.649783,148.758
392,0.651433,148.773
393,0.6531,148.773
394,0.654767,148.803
395,0.656517,148.728
396,0.6581,148.728
397,0.659767,148.922
398,0.661433,149.213
399,0.6631,149.466
400,0.664767,149.466
401,0.6664330000000001,149.816
402,0.6681,150.129
403,0.669767,150.688
404,0.6714329999999999,150.688
405,0.6731,151.224
406,0.674767,151.947
407,0.676433,152.677
408,0.678083,152.677
409,0.679783,153.415
410,0.681467,154.257
411,0.683083,155.33
412,0.68475,155.33
413,0.6864170000000001,156.44
414,0.688083,157.557
415,0.68975,157.557
416,0.6914169999999999,158.809
417,0.693083,160.031
418,0.69475,161.529
419,0.696417,161.529
420,0.698117,163.16
421,0.69975,164.866
422,0.701417,166.595
423,0.703083,166.595
424,0.70475,168.383
425,0.706417,170.35
426,0.708083,172.66
427,0.70975,172.66
428,0.711417,174.977
429,0.713083,177.585
430,0.71475,177.585
431,0.716417,180.013
432,0.718083,182.286
433,0.71975,184.894
434,0.721417,184.894
435,0.723083,187.106
436,0.72475,189.677
437,0.726417,192.143
438,0.728083,192.143
439,0.72975,194.848
440,0.731417,198.089
441,0.733083,201.114
442,0.73475,201.114
443,0.736417,204.585
444,0.738083,207.655
445,0.739733,210.412
446,0.7414500000000001,210.412
447,0.743067,213.563
448,0.744733,216.454
449,0.7464,216.454
450,0.748067,219.151
451,0.749733,221.819
452,0.7514,224.493
453,0.753067,224.493
454,0.754733,227.28
455,0.7564,230.297
456,0.7581,233.33
457,0.759733,233.33
458,0.7614,236.027
459,0.7630670000000001,238.523
460,0.764733,241.332
461,0.7664,241.332
462,0.7680670000000001,244.319
463,0.769733,247.128
464,0.7714,247.128
465,0.7730669999999999,249.937
466,0.774867,252.441
467,0.7764,254.996
468,0.778067,254.996
469,0.7797500000000001,257.358
470,0.7814,259.809
471,0.783067,262.111
472,0.784733,262.111
473,0.7864,264.369
474,0.788067,266.775
475,0.789733,269.227
476,0.7914,269.227
477,0.793067,271.507
478,0.794733,273.421
479,0.7964,273.421
480,0.798067,275.94
481,0.799717,278.249
482,0.801383,280.619
483,0.80305,280.619
484,0.804717,283.152
485,0.806383,285.014
486,0.80805,286.765
487,0.809717,286.765
488,0.811383,289.112
489,0.8130500000000001,291.131
490,0.814717,293.553
491,0.816383,293.553
492,0.8180500000000001,295.833
493,0.819717,297.45
494,0.821383,299.565
495,0.8230499999999999,299.565
496,0.824717,301.309
497,0.826383,303.067
498,0.82805,303.067
499,0.829717,305.243
500,0.8314,306.882
501,0.83305,308.648
502,0.834717,308.648
503,0.836383,310.764
504,0.83805,312.403
505,0.839717,314.169
506,0.841383,314.169
507,0.84305,315.681
508,0.8447170000000001,317.119
509,0.846383,318.52
510,0.84805,318.52
511,0.8497169999999999,320.479
512,0.851383,322.29
513,0.85305,322.29
514,0.8547169999999999,324.056
515,0.856383,325.993
516,0.85805,327.744
517,0.859783,327.744
518,0.861367,329.8
519,0.8630330000000001,331.827
520,0.8647,333.622
521,0.866367,333.622
522,0.8680330000000001,335.462
523,0.8697,336.975
524,0.871367,338.301
525,0.8730329999999999,338.301
526,0.8747,339.799
527,0.876367,340.991
528,0.878033,342.473
529,0.8797,342.473
530,0.881367,344.418
531,0.883033,346.43
532,0.8847,346.43
533,0.886367,348.374
534,0.888033,350.475
535,0.8897,352.018
536,0.891367,352.018
537,0.89315,353.254
538,0.8947000000000001,354.856
539,0.896367,356.369
540,0.898033,356.369
541,0.8997000000000001,358.082
542,0.901367,359.841
543,0.903033,361.204
544,0.9046999999999999,361.204
545,0.906367,362.501
546,0.908033,363.775
547,0.909717,363.775
548,0.9113830000000001,365.332
549,0.913033,367.247
550,0.9147,368.945
551,0.916367,368.945
552,0.918033,370.547
553,0.919683,372.35
554,0.92135,373.863
555,0.923017,373.863
556,0.924683,375.688
557,0.92635,377.23
558,0.928017,378.75
559,0.929683,378.75
560,0.93135,380.248
561,0.933017,381.44
562,0.934683,383.087
563,0.93635,383.087
564,0.938017,384.547
565,0.939683,385.776
566,0.94135,385.776
567,0.9429999999999999,387.482
568,0.944667,389.099
569,0.946333,390.91
570,0.948,390.91
571,0.949667,392.988
572,0.951333,394.784
573,0.953,396.572
574,0.9546829999999999,396.572
575,0.956333,397.988
576,0.958,399.739
577,0.959667,401.251
578,0.961333,401.251
579,0.963,402.823
580,0.9646670000000001,404.514
581,0.966333,404.514
582,0.968,406.094
583,0.9696669999999999,407.703
584,0.971333,409.327
585,0.973,409.327
586,0.974667,410.996
587,0.976333,412.568
588,0.97805,414.453
589,0.9797169999999999,414.453
590,0.981317,415.847
591,0.9829830000000001,417.665
592,0.98465,419.371
593,0.986317,419.371
594,0.9879829999999999,420.675
595,0.98965,422.552
596,0.991317,422.552
597,0.9929829999999999,423.811
598,0.994733,424.966
599,0.996317,426.59
600,0.997983,426.59
601,0.99965,428.081
602,1.001317,429.787
603,1.002983,431.664
604,1.00465,431.664
605,1.006317,433.505
606,1.007983,435.3
607,1.00965,437.2
608,1.011367,437.2
609,1.012983,438.966
610,1.01465,440.739
611,1.016317,442.833
612,1.017983,442.833
613,1.01965,444.636
614,1.021317,446.655
615,1.022983,446.655
616,1.02465,448.547
617,1.026317,449.777
618,1.027983,451.386
619,1.02965,451.386
620,1.031317,452.913
621,1.032983,454.359
622,1.03465,456.668
623,1.036317,456.668
624,1.037967,458.799
625,1.039633,460.505
626,1.0413,462.249
627,1.042967,462.249
628,1.044633,463.493
629,1.0463,464.767
630,1.047967,464.767
631,1.049633,467.01
632,1.0513,469.148
633,1.052967,471.309
634,1.05465,471.309
635,1.056367,473.447
636,1.057967,474.721
637,1.059633,476.487
638,1.0613,476.487
639,1.062967,478.342
640,1.064633,479.937
641,1.0663,482.142
642,1.067967,482.142
643,1.069633,483.759
644,1.0713,485.308
645,1.072967,487.179
646,1.074633,487.179
647,1.0763,489.064
648,1.077967,491.194
649,1.079633,491.194
650,1.0813,493.072
651,1.082967,494.942
652,1.084633,496.484
653,1.0863,496.484
654,1.087967,498.213
655,1.089633,500.508
656,1.0913,502.445
657,1.092967,502.445
658,1.094633,504.434
659,1.09635,506.707
660,1.097967,508.673
661,1.099617,508.673
662,1.101283,510.797
663,1.10295,513.002
664,1.104617,513.002
665,1.106283,514.8049999999999
666,1.10795,516.4299999999999
667,1.109617,518.322
668,1.111283,518.322
669,1.11295,520.401
670,1.114617,522.412
671,1.116283,524.588
672,1.11795,524.588
673,1.119617,526.644
674,1.121283,528.73
675,1.12295,530.6900000000001
676,1.124617,530.6900000000001
677,1.126283,532.664
678,1.127967,534.728
679,1.1297,536.494
680,1.131283,536.494
681,1.13295,538.439
682,1.134617,540.569
683,1.136283,540.569
684,1.13795,542.6180000000001
685,1.139617,544.749
686,1.141283,546.88
687,1.14295,546.88
688,1.144617,548.817
689,1.146283,550.561
690,1.14795,552.438
691,1.149617,552.438
692,1.151283,554.793
693,1.15295,556.961
694,1.154617,559.539
695,1.156283,559.539
696,1.15795,561.759
697,1.1596,563.577
698,1.161267,563.577
699,1.162933,565.968
700,1.1646,568.248
701,1.166267,570.752
702,1.167933,570.752
703,1.1696,573.069
704,1.171267,575.051
705,1.172933,577.129
706,1.1746,577.129
707,1.176267,579.461
708,1.177933,581.965
709,1.1796,584.573
710,1.181267,584.573
711,1.18295,586.8819999999999
712,1.1846,589.333
713,1.186267,591.889
714,1.187933,591.889
715,1.1896,594.3920000000001
716,1.191267,597.09
717,1.192933,597.09
718,1.1946,599.228
719,1.196267,601.448
720,1.197933,603.877
721,1.1996,603.877
722,1.201267,605.896
723,1.202933,608.027
724,1.2046,610.091
725,1.206267,610.091
726,1.207933,612.2809999999999
727,1.2096,614.822
728,1.211267,617.0940000000001
729,1.212933,617.0940000000001
730,1.2146,619.434
731,1.216267,621.803
732,1.217933,621.803
733,1.219583,624.239
734,1.22125,626.989
735,1.222917,629.813
736,1.224583,629.813
737,1.22625,631.9880000000001
738,1.227917,633.948
739,1.229583,636.153
740,1.231333,636.153
741,1.232917,638.448
742,1.234567,640.787
743,1.236233,643.343
744,1.2379,643.343
745,1.239567,645.8390000000001
746,1.241233,647.962
747,1.2429,647.962
748,1.244567,650.279
749,1.246233,652.529
750,1.248,654.727
751,1.249567,654.727
752,1.251233,656.977
753,1.2529,659.22
754,1.254567,661.731
755,1.256233,661.731
756,1.2579,663.981
757,1.259567,666.328
758,1.261233,669.025
759,1.2629,669.025
760,1.264633,671.454
761,1.266233,673.808
762,1.2679,676.446
763,1.269567,676.446
764,1.271233,678.539
765,1.2729,680.648
766,1.274567,680.648
767,1.276233,683.129
768,1.277917,684.902
769,1.279583,686.973
770,1.281217,686.973
771,1.282883,689.097
772,1.28455,691.22
773,1.286217,693.634
774,1.287883,693.634
775,1.28955,696.063
776,1.291217,698.268
777,1.292883,700.1609999999999
778,1.29455,700.1609999999999
779,1.296217,702.202
780,1.297883,704.087
781,1.29955,704.087
782,1.301217,705.898
783,1.302883,708.252
784,1.30455,710.376
785,1.306217,710.376
786,1.307883,712.29
787,1.30955,714.3099999999999
788,1.311217,715.986
789,1.312883,715.986
790,1.31455,717.826
791,1.316217,719.547
792,1.317883,721.745
793,1.31955,721.745
794,1.321217,723.436
795,1.322883,724.956
796,1.32455,726.812
797,1.326217,726.812
798,1.327883,728.048
799,1.32955,729.747
800,1.331217,729.747
801,1.332883,731.811
802,1.33455,733.621
803,1.336217,735.566
804,1.337883,735.566
805,1.339533,737.354
806,1.3412,738.852
807,1.342867,740.2670000000001
808,1.344533,740.2670000000001
809,1.3462,741.825
810,1.347867,743.218
811,1.349617,744.73
812,1.3512,744.73
813,1.352867,746.526
814,1.354533,748.1799999999999
815,1.3562,748.1799999999999
816,1.357883,749.595
817,1.359533,750.84
818,1.3612,752.188
819,1.362867,752.188
820,1.364533,753.619
821,1.36625,755.221
822,1.367867,756.748
823,1.369533,756.748
824,1.3712,757.873
825,1.372867,759.155
826,1.374533,760.704
827,1.3762,760.704
828,1.377867,762.194
829,1.379533,763.99
830,1.3812,765.331
831,1.382967,765.331
832,1.384533,766.374
833,1.3862,767.5069999999999
834,1.387867,767.5069999999999
835,1.389533,768.229
836,1.3912,769.109
837,1.392867,770.248
838,1.394533,770.248
839,1.3962,771.247
840,1.397867,772.513
841,1.399517,773.542
842,1.401183,773.542
843,1.40285,774.5700000000001
844,1.404517,775.687
845,1.406183,776.7380000000001
846,1.40785,776.7380000000001
847,1.409517,777.908
848,1.411183,778.623
849,1.41285,778.623
850,1.414517,779.383
851,1.416183,780.12
852,1.41785,780.806
853,1.419567,780.806
854,1.421183,781.894
855,1.42285,782.683
856,1.424517,783.227
857,1.426183,783.227
858,1.42785,783.853
859,1.429517,784.412
860,1.4312,785.328
861,1.43285,785.328
862,1.434517,785.91
863,1.436183,786.461
864,1.43785,786.461
865,1.439517,786.67
866,1.441183,786.677
867,1.44285,787.6079999999999
868,1.444517,787.6079999999999
869,1.446183,788.175
870,1.44785,789.121
871,1.449517,789.903
872,1.451183,789.903
873,1.45285,790.3200000000001
874,1.454517,790.909
875,1.456183,791.08
876,1.457833,791.08
877,1.4595,791.4299999999999
878,1.461167,791.84
879,1.462833,792.116
880,1.4645,792.116
881,1.466167,792.6
882,1.46785,792.809
883,1.4695,792.809
884,1.471167,792.861
885,1.472833,792.9880000000001
886,1.4745,792.913
887,1.476167,792.913
888,1.477833,793.204
889,1.4795,793.092
890,1.481167,793.248
891,1.482833,793.248
892,1.484567,793.867
893,1.486167,793.971
894,1.487833,794.157
895,1.4895,794.157
896,1.491167,794.254
897,1.492833,794.008
898,1.4945,794.008
899,1.496167,793.889
900,1.497833,794.023
901,1.4995,794.016
902,1.501217,794.016
903,1.502833,794.224
904,1.5045,794.277
905,1.506167,794.373
906,1.507833,794.373
907,1.5095,794.321
908,1.511167,793.934
909,1.512833,793.852
910,1.5145,793.852
911,1.516167,793.494
912,1.51785,793.256
913,1.519483,793.122
914,1.52115,793.122
915,1.522817,792.764
916,1.524483,792.779
917,1.526133,792.779
918,1.5278,793.189
919,1.529467,793.2190000000001
920,1.531133,793.479
921,1.532817,793.479
922,1.534467,793.606
923,1.536133,793.323
924,1.5378,793.3150000000001
925,1.539467,793.3150000000001
926,1.541133,792.816
927,1.5428,792.071
928,1.544467,791.572
929,1.546133,791.572
930,1.5478,791.296
931,1.549467,791.2
932,1.551133,791.2
933,1.5528,791.401
934,1.554467,791.386
935,1.556133,790.909
936,1.5578,790.909
937,1.559467,790.752
938,1.561133,790.067
939,1.5628,789.665
940,1.564467,789.665
941,1.566133,789.27
942,1.5678,788.4059999999999
943,1.569467,788.2859999999999
944,1.571133,788.2859999999999
945,1.5728,787.802
