"ID","sea_time","fid_signal"
1,0,36.977
2,0.001667,36.991
3,0.003333,36.991
4,0.005,36.955
5,0.006667,36.868
6,0.008333,36.729
7,0.01,36.729
8,0.011667,36.624
9,0.013333,36.59
10,0.015,36.655
11,0.016667,36.655
12,0.018333,36.775
13,0.02,36.863
14,0.021717,36.916
15,0.023333,36.916
16,0.024983,36.918
17,0.02665,36.912
18,0.028317,36.912
19,0.029983,36.917
20,0.03165,36.909
21,0.033317,36.921
22,0.034983,36.921
23,0.03665,36.922
24,0.0384,36.95
25,0.039983,36.947
26,0.0417,36.947
27,0.043317,36.957
28,0.044983,36.931
29,0.04665,36.88
30,0.048317,36.88
31,0.049983,36.885
32,0.05165,36.883
33,0.053317,36.883
34,0.055067,36.929
35,0.05665,36.965
36,0.058317,36.959
37,0.059983,36.959
38,0.06165,36.921
39,0.063317,36.886
40,0.064983,36.874
41,0.06665,36.874
42,0.068317,36.86
43,0.069983,36.853
44,0.07165000000000001,36.842
45,0.07331699999999999,36.842
46,0.07498299999999999,36.845
47,0.07665,36.877
48,0.078317,36.945
49,0.079983,36.945
50,0.08165,37
51,0.083333,36.994
52,0.084967,36.994
53,0.086633,37.004
54,0.0883,36.985
55,0.08996700000000001,36.956
56,0.09163300000000001,36.956
57,0.09329999999999999,36.951
58,0.094967,36.951
59,0.096633,36.953
60,0.0983,36.953
61,0.099967,36.976
62,0.101633,36.982
63,0.1033,36.971
64,0.104967,36.971
65,0.106633,36.976
66,0.1083,36.947
67,0.109983,36.947
68,0.111633,36.962
69,0.1133,36.939
70,0.114967,36.907
71,0.116633,36.907
72,0.1183,36.911
73,0.119967,36.861
74,0.121633,36.889
75,0.1233,36.889
76,0.124967,36.9
77,0.126633,36.911
78,0.1283,36.95
79,0.129967,36.95
80,0.131633,36.908
81,0.1333,36.895
82,0.134967,36.892
83,0.136633,36.892
84,0.1383,36.906
85,0.139967,36.929
86,0.141633,36.929
87,0.1433,36.934
88,0.14495,36.927
89,0.146617,36.902
90,0.148283,36.902
91,0.14995,36.868
92,0.151617,36.857
93,0.153283,36.86
94,0.15495,36.86
95,0.156683,36.873
96,0.158283,36.928
97,0.15995,36.947
98,0.161617,36.947
99,0.163283,36.953
100,0.16495,36.941
101,0.166617,36.941
102,0.168283,36.899
103,0.169967,36.889
104,0.171617,36.848
105,0.173383,36.848
106,0.17495,36.823
107,0.176617,36.832
108,0.178283,36.844
109,0.17995,36.844
110,0.181617,36.881
111,0.183283,36.938
112,0.18495,36.956
113,0.186617,36.956
114,0.188283,36.975
115,0.190033,36.965
116,0.191617,36.925
117,0.193283,36.925
118,0.19495,36.892
119,0.196617,36.865
120,0.198283,36.865
121,0.19995,36.868
122,0.201617,36.889
123,0.203267,36.895
124,0.204933,36.895
125,0.2066,36.909
126,0.208283,36.93
127,0.209933,36.921
128,0.2116,36.921
129,0.213267,36.963
130,0.214933,36.953
131,0.2166,36.922
132,0.218267,36.922
133,0.219933,36.918
134,0.2216,36.891
135,0.223267,36.891
136,0.224933,36.88
137,0.2266,36.888
138,0.228267,36.9
139,0.229933,36.9
140,0.2316,36.895
141,0.233267,36.895
142,0.234933,36.916
143,0.2366,36.916
144,0.238267,36.901
145,0.239933,36.902
146,0.2416,36.933
147,0.243267,36.933
148,0.244933,36.927
149,0.2466,36.937
150,0.248267,36.944
151,0.24995,36.944
152,0.251667,36.937
153,0.253267,36.954
154,0.254933,36.954
155,0.2566,36.949
156,0.258283,36.952
157,0.259933,36.925
158,0.2616,36.925
159,0.26325,36.884
160,0.264917,36.879
161,0.2666,36.908
162,0.26825,36.908
163,0.269917,36.92
164,0.271583,36.94
165,0.27325,36.927
166,0.275,36.927
167,0.276583,36.912
168,0.27825,36.92
169,0.279917,36.92
170,0.281583,36.917
171,0.283233,36.911
172,0.2849,36.886
173,0.286567,36.886
174,0.288233,36.888
175,0.2899,36.88
176,0.291633,36.899
177,0.293233,36.899
178,0.2949,36.903
179,0.296567,36.885
180,0.298233,36.915
181,0.2999,36.915
182,0.301567,36.947
183,0.303233,36.964
184,0.3049,36.964
185,0.306567,36.997
186,0.30835,36.976
187,0.3099,36.979
188,0.311567,36.979
189,0.313233,36.978
190,0.3149,36.95
191,0.316567,36.959
192,0.318233,36.959
193,0.3199,36.959
194,0.321567,36.968
195,0.323233,36.971
196,0.324883,36.971
197,0.326567,36.963
198,0.328217,36.933
199,0.329917,36.909
200,0.33155,36.909
201,0.333217,36.93
202,0.334883,36.931
203,0.33655,36.931
204,0.338217,36.938
205,0.339883,36.946
206,0.34155,36.936
207,0.343217,36.936
208,0.344883,36.953
209,0.34655,36.959
210,0.348217,36.965
211,0.349883,36.965
212,0.35155,36.957
213,0.353217,36.93
214,0.354883,36.936
215,0.35655,36.936
216,0.358217,36.955
217,0.359883,36.997
218,0.36155,36.997
219,0.363217,37.042
220,0.364883,37.066
221,0.36655,37.117
222,0.368217,37.117
223,0.369883,37.124
224,0.37155,37.146
225,0.373217,37.187
226,0.374883,37.187
227,0.37655,37.199
228,0.378217,37.248
229,0.379883,37.303
230,0.38155,37.303
231,0.383217,37.359
232,0.384867,37.413
233,0.386533,37.469
234,0.3882,37.469
235,0.389867,37.541
236,0.391533,37.631
237,0.393283,37.631
238,0.394867,37.729
239,0.396567,37.814
240,0.3982,37.874
241,0.399867,37.874
242,0.401533,37.946
243,0.4032,38.049
244,0.404867,38.143
245,0.406533,38.143
246,0.4082,38.221
247,0.409883,38.271
248,0.411533,38.302
249,0.4132,38.302
250,0.414867,38.334
251,0.416533,38.391
252,0.4182,38.391
253,0.419867,38.449
254,0.421533,38.483
255,0.4232,38.536
256,0.424867,38.536
257,0.42665,38.582
258,0.4282,38.636
259,0.429867,38.636
260,0.431533,38.636
261,0.4332,38.618
262,0.434867,38.59
263,0.436533,38.52
264,0.4382,38.52
265,0.439867,38.485
266,0.441533,38.458
267,0.443183,38.458
268,0.44485,38.42
269,0.446517,38.395
270,0.448183,38.36
271,0.44985,38.36
272,0.451517,38.3
273,0.453183,38.255
274,0.45485,38.208
275,0.456517,38.208
276,0.458183,38.127
277,0.45985,38.076
278,0.461517,37.985
279,0.463183,37.985
280,0.46485,37.922
281,0.466517,37.881
282,0.468183,37.837
283,0.46985,37.837
284,0.471517,37.802
285,0.473183,37.722
286,0.47485,37.722
287,0.476517,37.639
288,0.478183,37.556
289,0.47985,37.517
290,0.481517,37.517
291,0.4832,37.501
292,0.48485,37.501
293,0.486517,37.469
294,0.488183,37.469
295,0.48985,37.412
296,0.491517,37.344
297,0.493183,37.303
298,0.49485,37.303
299,0.496517,37.277
300,0.498183,37.258
301,0.49985,37.258
302,0.501517,37.242
303,0.503183,37.223
304,0.504833,37.193
305,0.5065,37.193
306,0.508167,37.148
307,0.509833,37.114
308,0.511533,37.054
309,0.513167,37.054
310,0.514833,37.064
311,0.5165,37.081
312,0.518167,37.086
313,0.519833,37.086
314,0.5215,37.105
315,0.523167,37.063
316,0.524833,37.028
317,0.5265,37.028
318,0.5281670000000001,37.02
319,0.529833,37.032
320,0.5315,37.032
321,0.5331669999999999,37.05
322,0.534833,37.064
323,0.5365,37.07
324,0.538167,37.07
325,0.539833,37.07
326,0.5415,37.067
327,0.543167,37.096
328,0.544967,37.096
329,0.5465,37.12
330,0.548167,37.137
331,0.549833,37.147
332,0.5515,37.147
333,0.553167,37.14
334,0.554833,37.146
335,0.5565,37.146
336,0.558167,37.145
337,0.559833,37.133
338,0.5615,37.126
339,0.563167,37.126
340,0.564817,37.137
341,0.566483,37.148
342,0.56815,37.205
343,0.569817,37.205
344,0.571483,37.271
345,0.57315,37.279
346,0.5748,37.297
347,0.576467,37.297
348,0.578133,37.303
349,0.5798,37.299
350,0.581467,37.339
351,0.583133,37.339
352,0.5848,37.391
353,0.586467,37.471
354,0.588133,37.471
355,0.5898,37.541
356,0.591467,37.595
357,0.593133,37.658
358,0.5948,37.658
359,0.596467,37.713
360,0.598133,37.774
361,0.5998,37.872
362,0.601467,37.872
363,0.603133,37.953
364,0.6048,38.023
365,0.606467,38.153
366,0.608133,38.153
367,0.6098,38.263
368,0.611483,38.385
369,0.613133,38.385
370,0.6148,38.521
371,0.616467,38.621
372,0.618133,38.768
373,0.6198,38.768
374,0.621467,38.92
375,0.623117,39.095
376,0.624783,39.256
377,0.62645,39.256
378,0.628117,39.383
379,0.62985,39.538
380,0.63145,39.706
381,0.633117,39.706
382,0.634783,39.896
383,0.63645,40.098
384,0.638117,40.098
385,0.639783,40.331
386,0.64145,40.521
387,0.643117,40.727
388,0.644783,40.727
389,0.64645,40.939
390,0.6481170000000001,41.112
391,0.649783,41.325
392,0.65145,41.325
393,0.6531169999999999,41.562
394,0.654783,41.831
395,0.656467,42.124
396,0.658117,42.124
397,0.659783,42.424
398,0.66145,42.693
399,0.663233,42.965
400,0.664783,42.965
401,0.66645,43.216
402,0.668117,43.477
403,0.669783,43.477
404,0.67145,43.775
405,0.673117,44.052
406,0.674783,44.384
407,0.67645,44.384
408,0.678117,44.721
409,0.679783,45.055
410,0.68145,45.379
411,0.683117,45.379
412,0.684767,45.687
413,0.686433,46.012
414,0.688117,46.293
415,0.689767,46.293
416,0.691433,46.616
417,0.6931,46.953
418,0.694767,46.953
419,0.696433,47.282
420,0.6981000000000001,47.633
421,0.699767,47.977
422,0.701433,47.977
423,0.7030999999999999,48.304
424,0.704767,48.67
425,0.706433,49.052
426,0.7081,49.052
427,0.709767,49.412
428,0.711433,49.813
429,0.7131,50.154
430,0.714767,50.154
431,0.716433,50.507
432,0.7181,50.89
433,0.719767,51.25
434,0.721433,51.25
435,0.7231,51.63
436,0.7247670000000001,52.038
437,0.726433,52.038
438,0.7281,52.425
439,0.7297670000000001,52.845
440,0.731433,53.243
441,0.7331,53.243
442,0.7347669999999999,53.643
443,0.736433,54.038
444,0.738117,54.397
445,0.739767,54.397
446,0.741433,54.801
447,0.743083,55.194
448,0.74475,55.611
449,0.746417,55.611
450,0.74815,56.032
451,0.74975,56.475
452,0.75145,56.475
453,0.7530829999999999,56.888
454,0.75475,57.319
455,0.756417,57.741
456,0.758083,57.741
457,0.75975,58.147
458,0.761417,58.588
459,0.763083,59.009
460,0.76475,59.009
461,0.766417,59.448
462,0.768083,59.869
463,0.76975,60.288
464,0.771417,60.288
465,0.773083,60.716
466,0.77475,61.127
467,0.776417,61.552
468,0.778083,61.552
469,0.7797500000000001,61.993
470,0.781533,62.451
471,0.783083,62.451
472,0.7847499999999999,62.916
473,0.786417,63.371
474,0.788083,63.813
475,0.78975,63.813
476,0.791417,64.246
477,0.793083,64.68600000000001
478,0.79475,65.136
479,0.796417,65.136
480,0.798083,65.57599999999999
481,0.79975,66.035
482,0.801417,66.488
483,0.803083,66.488
484,0.804733,66.95399999999999
485,0.8064,67.449
486,0.808067,67.449
487,0.809733,67.88800000000001
488,0.8114,68.383
489,0.813067,68.849
490,0.814733,68.849
491,0.8164,69.31
492,0.818067,69.78400000000001
493,0.819733,70.199
494,0.8214,70.199
495,0.823083,70.667
496,0.824817,71.122
497,0.8264,71.578
498,0.828067,71.578
499,0.8297330000000001,72.04600000000001
500,0.8314,72.499
501,0.833067,72.971
502,0.8347329999999999,72.971
503,0.8364,73.468
504,0.838067,73.974
505,0.83975,73.974
506,0.8414,74.43000000000001
507,0.843067,74.86799999999999
508,0.844733,75.33499999999999
509,0.8464,75.33499999999999
510,0.848067,75.80800000000001
511,0.849733,76.319
512,0.8514,76.842
513,0.853067,76.842
514,0.854733,77.325
515,0.8564000000000001,77.798
516,0.858067,78.291
517,0.859733,78.291
518,0.8614000000000001,78.783
519,0.863067,79.259
520,0.864717,79.259
521,0.866367,79.747
522,0.8680330000000001,80.205
523,0.8697,80.64700000000001
524,0.871367,80.64700000000001
525,0.8730329999999999,81.128
526,0.8747,81.621
527,0.876367,82.14
528,0.878033,82.14
529,0.8797,82.669
530,0.881367,83.15900000000001
531,0.883033,83.639
532,0.8847,83.639
533,0.886367,84.08
534,0.888033,84.548
535,0.8897,84.548
536,0.891367,85.041
537,0.893033,85.554
538,0.894717,86.083
539,0.896367,86.083
540,0.898033,86.59399999999999
541,0.8998,87.117
542,0.901367,87.63
543,0.903033,87.63
544,0.9046999999999999,88.126
545,0.906367,88.605
546,0.908033,89.09
547,0.9097,89.09
548,0.911367,89.53700000000001
549,0.913033,90.001
550,0.9147,90.509
551,0.916367,90.509
552,0.918033,91.02200000000001
553,0.9197,91.529
554,0.921367,91.529
555,0.923033,92.059
556,0.924683,92.553
557,0.92635,93.048
558,0.928017,93.048
559,0.929683,93.556
560,0.93135,94.05500000000001
561,0.933017,94.554
562,0.934683,94.554
563,0.93635,95.063
564,0.938017,95.56699999999999
565,0.939683,96.077
566,0.94135,96.077
567,0.943017,96.584
568,0.9446830000000001,97.072
569,0.94635,97.072
570,0.948017,97.59699999999999
571,0.9496830000000001,98.13500000000001
572,0.95135,98.643
573,0.953017,98.643
574,0.9546829999999999,99.158
575,0.95635,99.66800000000001
576,0.958017,100.162
577,0.959683,100.162
578,0.961383,100.669
579,0.963017,101.174
580,0.964683,101.653
581,0.96635,101.653
582,0.968017,102.142
583,0.969683,102.638
584,0.97135,103.126
585,0.973017,103.126
586,0.974683,103.613
587,0.976367,104.079
588,0.978017,104.079
589,0.979683,104.57
590,0.981333,105.07
591,0.983017,105.602
592,0.984667,105.602
593,0.986333,106.11
594,0.988,106.605
595,0.989667,107.12
596,0.991333,107.12
597,0.993,107.594
598,0.994667,108.108
599,0.996333,108.594
600,0.998,108.594
601,0.999667,109.064
602,1.001417,109.529
603,1.003,109.529
604,1.004667,110.01
605,1.006333,110.538
606,1.008,111.034
607,1.009667,111.034
608,1.011333,111.57
609,1.013017,112.092
610,1.014683,112.587
611,1.016333,112.587
612,1.018083,113.111
613,1.019667,113.593
614,1.021333,114.068
615,1.023,114.068
616,1.024667,114.57
617,1.026333,115.038
618,1.028,115.538
619,1.029667,115.538
620,1.031333,116.011
621,1.033,116.488
622,1.034783,116.488
623,1.036333,116.932
624,1.038,117.368
625,1.039683,117.849
626,1.041333,117.849
627,1.043,118.309
628,1.04465,118.829
629,1.046317,119.358
630,1.047983,119.358
631,1.04965,119.852
632,1.051317,120.353
633,1.052983,120.851
634,1.05465,120.851
635,1.056317,121.319
636,1.057983,121.797
637,1.05965,121.797
638,1.061317,122.265
639,1.062983,122.76
640,1.06465,123.266
641,1.066333,123.266
642,1.067983,123.756
643,1.06965,124.223
644,1.071317,124.684
645,1.072983,124.684
646,1.07465,125.13
647,1.076317,125.568
648,1.077983,126.047
649,1.07965,126.047
650,1.081317,126.513
651,1.082983,126.994
652,1.08465,126.994
653,1.086317,127.476
654,1.087983,127.912
655,1.08965,128.356
656,1.091317,128.356
657,1.092983,128.793
658,1.09465,129.231
659,1.096317,129.696
660,1.097983,129.696
661,1.09965,130.127
662,1.101317,130.563
663,1.103017,131.046
664,1.104633,131.046
665,1.1063,131.503
666,1.107967,131.948
667,1.109633,132.397
668,1.1113,132.397
669,1.112967,132.853
670,1.114633,133.321
671,1.1163,133.321
672,1.117967,133.811
673,1.119667,134.293
674,1.1213,134.739
675,1.122967,134.739
676,1.124633,135.187
677,1.1263,135.627
678,1.127967,136.089
679,1.129633,136.089
680,1.1313,136.536
681,1.132967,136.954
682,1.134633,137.367
683,1.13635,137.367
684,1.137967,137.796
685,1.139633,138.199
686,1.1413,138.199
687,1.142967,138.628
688,1.144633,139.099
689,1.1463,139.534
690,1.147967,139.534
691,1.149633,139.999
692,1.1513,140.443
693,1.153083,140.848
694,1.154633,140.848
695,1.156283,141.237
696,1.15795,141.646
697,1.159617,142.089
698,1.161283,142.089
699,1.162933,142.516
700,1.1646,142.935
701,1.166267,143.342
702,1.167933,143.342
703,1.1696,143.718
704,1.171267,144.102
705,1.172933,144.102
706,1.1746,144.535
707,1.176267,144.943
708,1.17795,145.336
709,1.1796,145.336
710,1.181267,145.721
711,1.182933,146.097
712,1.1846,146.524
713,1.186267,146.524
714,1.187933,146.965
715,1.189617,147.427
716,1.191267,147.841
717,1.192933,147.841
718,1.1946,148.223
719,1.196267,148.624
720,1.197933,148.624
721,1.1996,148.989
722,1.201267,149.334
723,1.202933,149.662
724,1.2046,149.662
725,1.206267,149.969
726,1.207933,150.331
727,1.2096,150.756
728,1.211267,150.756
729,1.212933,151.181
730,1.2146,151.619
731,1.216267,152.015
732,1.217933,152.015
733,1.2196,152.402
734,1.221317,152.788
735,1.222917,152.788
736,1.224583,153.162
737,1.226283,153.512
738,1.227917,153.854
739,1.229583,153.854
740,1.23125,154.191
741,1.232917,154.513
742,1.234583,154.858
743,1.23625,154.858
744,1.237933,155.221
745,1.239583,155.606
746,1.24125,155.986
747,1.242917,155.986
748,1.2446,156.36
749,1.24625,156.729
750,1.247917,157.068
751,1.249583,157.068
752,1.25125,157.424
753,1.252917,157.762
754,1.254617,157.762
755,1.25625,158.08
756,1.257917,158.399
757,1.259583,158.703
758,1.26125,158.703
759,1.262917,159.053
760,1.264583,159.377
761,1.26625,159.686
762,1.267917,159.686
763,1.269583,160.044
764,1.271333,160.347
765,1.272917,160.681
766,1.274583,160.681
767,1.27625,161.056
768,1.277917,161.351
769,1.279583,161.351
770,1.28125,161.697
771,1.282917,162.011
772,1.284567,162.293
773,1.286233,162.293
774,1.2879,162.619
775,1.289567,162.933
776,1.291233,163.246
777,1.2929,163.246
778,1.294567,163.55
779,1.296233,163.823
780,1.2979,164.085
781,1.299567,164.085
782,1.301233,164.347
783,1.3029,164.655
784,1.304567,164.961
785,1.306233,164.961
786,1.3079,165.294
787,1.309567,165.637
788,1.311233,165.637
789,1.312917,165.932
790,1.314583,166.216
791,1.316233,166.469
792,1.3179,166.469
793,1.319567,166.742
794,1.321233,166.979
795,1.3229,167.247
796,1.324567,167.247
797,1.326233,167.529
798,1.3279,167.753
799,1.329567,168.047
800,1.331233,168.047
801,1.3329,168.346
802,1.334567,168.587
803,1.336233,168.587
804,1.3379,168.873
805,1.339567,169.141
806,1.341233,169.401
807,1.342883,169.401
808,1.34455,169.729
809,1.346217,170.019
810,1.347883,170.304
811,1.34955,170.304
812,1.351217,170.585
813,1.352883,170.824
814,1.35455,171.082
815,1.356217,171.082
816,1.357883,171.342
817,1.35955,171.586
818,1.361217,171.836
819,1.362883,171.836
820,1.36455,172.099
821,1.366217,172.318
822,1.367883,172.318
823,1.36955,172.567
824,1.371217,172.804
825,1.3729,173.016
826,1.37455,173.016
827,1.376217,173.273
828,1.377883,173.487
829,1.37955,173.751
830,1.381217,173.751
831,1.382883,174.047
832,1.38455,174.296
833,1.386217,174.551
834,1.387883,174.551
835,1.38965,174.794
836,1.391217,174.972
837,1.392883,174.972
838,1.39455,175.145
839,1.396217,175.316
840,1.397883,175.464
841,1.39955,175.464
842,1.401217,175.618
843,1.402883,175.815
844,1.404533,176.065
845,1.4062,176.065
846,1.407867,176.287
847,1.409533,176.512
848,1.4112,176.764
849,1.412867,176.764
850,1.414533,176.958
851,1.4162,177.176
852,1.417883,177.409
853,1.419533,177.409
854,1.4212,177.575
855,1.422867,177.784
856,1.424533,177.784
857,1.4262,177.95
858,1.427867,178.106
859,1.429533,178.315
860,1.4312,178.315
861,1.432867,178.47
862,1.434533,178.63
863,1.4362,178.814
864,1.437867,178.814
865,1.439533,178.976
866,1.4412,179.165
867,1.442867,179.365
868,1.444533,179.365
869,1.4462,179.566
870,1.44785,179.746
871,1.449517,179.746
872,1.451183,179.92
873,1.45285,180.089
874,1.454517,180.272
875,1.456183,180.272
876,1.45785,180.471
877,1.459517,180.645
878,1.461183,180.808
879,1.462867,180.808
880,1.4645,180.915
881,1.466167,181.03
882,1.467833,181.172
883,1.4695,181.172
884,1.471167,181.315
885,1.472833,181.478
886,1.474583,181.616
887,1.476167,181.616
888,1.477833,181.738
889,1.4795,181.916
890,1.481167,181.916
891,1.482833,182.067
892,1.4845,182.215
893,1.486167,182.351
894,1.487833,182.351
895,1.4895,182.457
896,1.491167,182.574
897,1.492833,182.677
898,1.4945,182.677
899,1.496167,182.753
900,1.497833,182.818
901,1.4995,182.936
902,1.501167,182.936
903,1.502833,183.003
904,1.5045,183.131
905,1.506167,183.131
906,1.507933,183.29
907,1.5095,183.421
908,1.511167,183.59
909,1.512833,183.59
910,1.5145,183.737
911,1.516167,183.86
912,1.517833,183.97
913,1.5195,183.97
914,1.521167,184.103
915,1.522833,184.231
916,1.524483,184.348
917,1.52615,184.348
918,1.527817,184.463
919,1.529483,184.6
920,1.531183,184.6
921,1.532817,184.735
922,1.534483,184.859
923,1.53615,184.958
924,1.537817,184.958
925,1.539483,185.031
926,1.54115,185.085
927,1.542817,185.156
928,1.544483,185.156
929,1.54615,185.239
930,1.547817,185.315
931,1.549483,185.405
932,1.55115,185.405
933,1.552817,185.493
934,1.5545,185.541
935,1.55615,185.603
936,1.557817,185.603
937,1.559483,185.651
938,1.56115,185.701
939,1.562817,185.701
940,1.564483,185.762
941,1.56615,185.806
942,1.567817,185.859
943,1.569483,185.859
944,1.57115,185.926
945,1.572817,186.009
946,1.574483,186.107
947,1.57615,186.107
948,1.577817,186.179
949,1.579483,186.257
950,1.58115,186.305
951,1.582817,186.305
952,1.584467,186.39
953,1.586133,186.49
954,1.5878,186.49
955,1.589467,186.519
956,1.591133,186.63
957,1.592883,186.673
958,1.594467,186.673
959,1.596133,186.718
960,1.5978,186.802
961,1.599483,186.82
962,1.601133,186.82
963,1.6028,186.842
964,1.604467,186.856
965,1.606133,186.892
966,1.6078,186.892
967,1.609467,186.933
968,1.611133,186.98
969,1.6128,187.062
970,1.614467,187.062
971,1.616133,187.113
972,1.6178,187.185
973,1.619467,187.185
974,1.621133,187.263
975,1.6228,187.317
976,1.624467,187.372
977,1.62625,187.372
978,1.6278,187.416
979,1.629467,187.436
980,1.631133,187.442
981,1.6328,187.442
982,1.634467,187.438
983,1.636133,187.408
984,1.6378,187.399
985,1.639467,187.399
986,1.641133,187.391
