"ID","sea_time","fid_signal"
1,0,1199.394
2,0.001667,1199.394
3,0.003333,1199.618
4,0.005,1195.818
5,0.006667,1196.861
6,0.008333,1196.861
7,0.01,1192.242
8,0.011667,1187.474
9,0.013317,1189.634
10,0.014983,1189.634
11,0.01665,1188.666
12,0.018317,1191.422
13,0.019983,1191.422
14,0.02165,1193.881
15,0.023367,1190.454
16,0.024983,1187.697
17,0.02665,1187.697
18,0.028317,1186.505
19,0.029983,1187.399
20,0.03165,1190.528
21,0.033317,1190.528
22,0.034983,1194.626
23,0.03665,1195.818
24,0.038317,1193.956
25,0.039983,1193.956
26,0.04165,1194.179
27,0.043317,1191.944
28,0.044983,1192.391
29,0.04665,1192.391
30,0.048317,1194.403
31,0.05005,1196.265
32,0.05165,1196.265
33,0.053317,1201.928
34,0.054983,1204.237
35,0.05665,1204.684
36,0.058317,1204.684
37,0.059983,1202.598
38,0.06165,1198.947
39,0.063317,1197.01
40,0.064983,1197.01
41,0.06665,1196.414
42,0.068317,1195.595
43,0.069983,1195.297
44,0.071633,1195.297
45,0.0733,1196.414
46,0.07496700000000001,1196.861
47,0.07663300000000001,1196.861
48,0.07829999999999999,1195.818
49,0.079967,1194.477
50,0.081633,1193.583
51,0.08343299999999999,1193.583
52,0.084967,1194.104
53,0.086633,1192.912
54,0.0883,1194.328
55,0.08996700000000001,1194.328
56,0.09163300000000001,1191.571
57,0.09329999999999999,1190.826
58,0.094967,1192.689
59,0.09665,1192.689
60,0.0983,1190.454
61,0.099967,1193.136
62,0.101633,1190.677
63,0.1033,1190.677
64,0.104967,1190.603
65,0.106633,1192.391
66,0.1083,1192.391
67,0.109967,1192.763
68,0.111633,1195.148
69,0.1133,1193.807
70,0.114967,1193.807
71,0.116633,1193.657
72,0.118317,1194.403
73,0.119967,1193.583
74,0.121633,1193.583
75,0.1233,1195.073
76,0.124967,1194.403
77,0.126633,1190.752
78,0.128317,1190.752
79,0.129967,1189.411
80,0.131633,1190.156
81,0.133283,1190.156
82,0.13495,1189.709
83,0.136617,1192.54
84,0.138283,1194.924
85,0.13995,1194.924
86,0.141617,1194.328
87,0.143283,1195.744
88,0.14495,1194.179
89,0.146617,1194.179
90,0.148283,1191.348
91,0.14995,1189.113
92,0.151617,1188.144
93,0.153283,1188.144
94,0.15495,1190.007
95,0.156617,1193.732
96,0.158317,1197.085
97,0.15995,1197.085
98,0.161617,1196.116
99,0.163283,1193.21
100,0.16495,1193.21
101,0.166617,1190.007
102,0.1683,1186.356
103,0.16995,1185.76
104,0.171617,1185.76
105,0.173283,1184.642
106,0.17495,1184.344
107,0.176617,1184.046
108,0.178283,1184.046
109,0.17995,1182.035
110,0.181617,1182.407
111,0.183283,1182.482
112,0.185017,1182.482
113,0.186617,1183.599
114,0.188283,1188.368
115,0.18995,1188.368
116,0.191617,1191.348
117,0.193267,1192.465
118,0.194933,1195.371
119,0.1966,1195.371
120,0.198267,1191.571
121,0.199933,1186.877
122,0.201717,1186.281
123,0.203267,1186.281
124,0.204933,1182.929
125,0.2066,1183.599
126,0.208267,1185.611
127,0.209933,1185.611
128,0.2116,1183.823
129,0.213267,1183.823
130,0.214933,1183.823
131,0.2166,1182.333
132,0.218283,1180.246
133,0.219933,1180.843
134,0.2216,1180.843
135,0.223267,1183.078
136,0.224933,1183.897
137,0.2266,1186.058
138,0.228267,1186.058
139,0.229933,1187.324
140,0.2316,1187.548
141,0.233267,1190.379
142,0.234933,1190.379
143,0.2366,1193.657
144,0.238267,1192.167
145,0.239933,1190.379
146,0.2416,1190.379
147,0.24325,1190.603
148,0.244917,1185.462
149,0.246583,1185.462
150,0.24825,1185.387
151,0.249917,1180.917
152,0.251567,1177.937
153,0.253233,1177.937
154,0.2549,1183.078
155,0.256567,1182.556
156,0.258233,1185.536
157,0.2599,1185.536
158,0.261567,1187.474
159,0.263233,1183.003
160,0.2649,1182.78
161,0.266567,1182.78
162,0.268233,1181.588
163,0.2699,1177.713
164,0.271567,1177.713
165,0.273233,1179.129
166,0.2749,1182.705
167,0.276567,1184.568
168,0.278233,1184.568
169,0.2799,1186.803
170,0.281567,1188.964
171,0.283233,1186.579
172,0.2849,1186.579
173,0.286583,1186.058
174,0.288233,1184.493
175,0.2899,1181.215
176,0.291567,1181.215
177,0.29325,1181.886
178,0.2949,1182.78
179,0.296567,1186.579
180,0.298233,1186.579
181,0.2999,1189.783
182,0.301567,1191.05
183,0.3033,1191.05
184,0.3049,1192.018
185,0.306567,1188.889
186,0.308233,1184.568
187,0.3099,1184.568
188,0.311567,1180.619
189,0.313217,1178.756
190,0.314883,1178.831
191,0.31655,1178.831
192,0.318217,1180.917
193,0.319967,1182.631
194,0.32155,1186.132
195,0.323217,1186.132
196,0.324883,1190.156
197,0.32655,1187.324
198,0.328217,1187.324
199,0.329883,1188.442
200,0.33155,1184.717
201,0.333217,1179.799
202,0.334883,1179.799
203,0.336683,1183.078
204,0.338217,1180.619
205,0.339883,1183.301
206,0.34155,1183.301
207,0.343217,1186.058
208,0.344883,1185.611
209,0.34655,1183.376
210,0.348217,1183.376
211,0.349883,1180.097
212,0.35155,1179.501
213,0.353217,1179.501
214,0.354883,1179.278
215,0.35655,1182.333
216,0.358217,1183.003
217,0.359883,1183.003
218,0.36155,1181.29
219,0.363217,1181.737
220,0.364883,1183.227
221,0.36655,1183.227
222,0.368217,1186.654
223,0.369883,1188.219
224,0.371533,1187.623
225,0.373233,1187.623
226,0.374917,1191.571
227,0.376533,1192.987
228,0.3782,1196.489
229,0.379867,1196.489
230,0.381533,1202.449
231,0.3832,1203.865
232,0.384867,1203.865
233,0.386533,1209.825
234,0.3882,1216.233
235,0.389867,1227.334
236,0.391533,1227.334
237,0.3932,1241.49
238,0.394867,1256.317
239,0.396533,1280.01
240,0.3982,1280.01
241,0.399867,1310.334
242,0.401533,1350.716
243,0.4032,1405.776
244,0.404867,1405.776
245,0.406533,1479.238
246,0.4082,1573.414
247,0.409867,1573.414
248,0.411533,1697.019
249,0.4132,1855.865
250,0.414867,2058.744
251,0.416533,2058.744
252,0.4182,2313.182
253,0.419867,2626.851
254,0.421567,3005.043
255,0.4232,3005.043
256,0.424867,3450.96
257,0.426533,3968.03
258,0.4282,4554.242
259,0.429867,4554.242
260,0.431533,5205.721
261,0.433183,5915.761
262,0.43485,6671.026
263,0.436517,6671.026
264,0.438317,7460.266
265,0.43985,8270.517
266,0.441517,8270.517
267,0.443183,9083.375
268,0.44485,9891.465
269,0.446517,10676.086
270,0.448183,10676.086
271,0.449917,11423.9
272,0.451517,12120.157
273,0.453183,12749.508
274,0.45485,12749.508
275,0.456517,13306.514
276,0.458183,13781.265
277,0.45985,14169.663
278,0.461517,14169.663
279,0.463183,14468.506
280,0.46485,14679.729
281,0.466517,14679.729
282,0.468183,14803.708
283,0.46985,14844.983
284,0.471517,14806.911
285,0.473183,14806.911
286,0.47485,14694.184
287,0.476517,14517.382
288,0.478183,14286.786
289,0.47985,14286.786
290,0.481517,14008.73
291,0.483183,13693.348
292,0.48485,13346.448
293,0.486517,13346.448
294,0.488183,12972.132
295,0.48985,12580.156
296,0.491517,12170.821
297,0.493167,12170.821
298,0.494833,11748.896
299,0.4965,11322.647
300,0.498167,11322.647
301,0.499833,10895.729
302,0.5014999999999999,10474.324
303,0.503167,10060.444
304,0.504833,10060.444
305,0.5065,9651.406999999999
306,0.508167,9251.162
307,0.509833,8862.838
308,0.5115,8862.838
309,0.513167,8489.787
310,0.51485,8135.14
311,0.516533,7794.648
312,0.518167,7794.648
313,0.519833,7469.282
314,0.521517,7157.177
315,0.523167,7157.177
316,0.524833,6859.973
317,0.5265,6576.181
318,0.5281670000000001,6306.246
319,0.529833,6306.246
320,0.5315,6052.926
321,0.53315,5811.378
322,0.534817,5588.308
323,0.536483,5588.308
324,0.53815,5375.966
325,0.539833,5173.907
326,0.541483,4982.576
327,0.54315,4982.576
328,0.544817,4801.303
329,0.5464830000000001,4630.536
330,0.54815,4630.536
331,0.5498,4467.07
332,0.551467,4315.674
333,0.553133,4167.706
334,0.5548,4167.706
335,0.5564829999999999,4029.125
336,0.558133,3900.603
337,0.5598,3777.295
338,0.561467,3777.295
339,0.563133,3662.854
340,0.5648,3553.853
341,0.5664670000000001,3452.45
342,0.568133,3452.45
343,0.5698,3360.51
344,0.5714669999999999,3272.742
345,0.573217,3188.848
346,0.5748,3188.848
347,0.576467,3106.669
348,0.578133,3026.575
349,0.5798,3026.575
350,0.581467,2951.995
351,0.583133,2881.139
352,0.5848,2815.872
353,0.586467,2815.872
354,0.588133,2753.213
355,0.5898,2693.385
356,0.591483,2638.102
357,0.593133,2638.102
358,0.5948,2583.861
359,0.596467,2531.186
360,0.598133,2483.502
361,0.5998,2483.502
362,0.601467,2437.755
363,0.603133,2395.585
364,0.6048,2395.585
365,0.606467,2355.948
366,0.608133,2316.684
367,0.6098,2278.537
368,0.61145,2278.537
369,0.613117,2240.24
370,0.614783,2204.478
371,0.6164500000000001,2172.887
372,0.618117,2172.887
373,0.619783,2143.234
374,0.6214499999999999,2114.698
375,0.623117,2088.696
376,0.624783,2088.696
377,0.62645,2060.532
378,0.628117,2032.518
379,0.629783,2009.943
380,0.63145,2009.943
381,0.633117,1985.878
382,0.634783,1963.153
383,0.63645,1963.153
384,0.638117,1943.111
385,0.639783,1919.046
386,0.64145,1898.333
387,0.643117,1898.333
388,0.644783,1877.025
389,0.64645,1854.748
390,0.6481170000000001,1836.196
391,0.649783,1836.196
392,0.65145,1814.589
393,0.6531169999999999,1795.962
394,0.654783,1779.869
395,0.65645,1779.869
396,0.6582,1762.956
397,0.659783,1751.184
398,0.66145,1751.184
399,0.663117,1738.891
400,0.664783,1724.735
401,0.66645,1710.504
402,0.668117,1710.504
403,0.669783,1693.815
404,0.6714329999999999,1680.776
405,0.6731,1667.961
406,0.674767,1667.961
407,0.676433,1655.966
408,0.6781,1647.621
409,0.679767,1637.265
410,0.681433,1637.265
411,0.6831,1627.505
412,0.684767,1618.415
413,0.686433,1607.09
414,0.6881,1607.09
415,0.689767,1596.585
416,0.691567,1587.272
417,0.6931,1587.272
418,0.694767,1580.492
419,0.69645,1571.476
420,0.6981000000000001,1563.579
421,0.699767,1563.579
422,0.701433,1557.618
423,0.7030999999999999,1550.168
424,0.704767,1542.717
425,0.706433,1542.717
426,0.7081,1536.086
427,0.709767,1526.996
428,0.711433,1516.566
429,0.7131,1516.566
430,0.714767,1509.935
431,0.716433,1501.963
432,0.7181,1501.963
433,0.719767,1495.63
434,0.721433,1490.638
435,0.7231,1483.262
436,0.7247670000000001,1483.262
437,0.726433,1477.152
438,0.728083,1471.713
439,0.72975,1465.827
440,0.731417,1465.827
441,0.733117,1463.89
442,0.7348170000000001,1456.961
443,0.736417,1452.044
444,0.738083,1452.044
445,0.73975,1449.51
446,0.741417,1444.742
447,0.743083,1444.742
448,0.74475,1441.389
449,0.746417,1436.397
450,0.7480830000000001,1428.053
451,0.74975,1428.053
452,0.751417,1418.665
453,0.7530829999999999,1412.705
454,0.75475,1406.074
455,0.756417,1406.074
456,0.758083,1401.007
457,0.75975,1399.741
458,0.761417,1395.196
459,0.763083,1395.196
460,0.76475,1392.886
461,0.766417,1391.247
462,0.768083,1387.298
463,0.76975,1387.298
464,0.771417,1387.894
465,0.773083,1386.553
466,0.77475,1386.553
467,0.776483,1382.753
468,0.778083,1379.102
469,0.7797500000000001,1374.558
470,0.781417,1374.558
471,0.783083,1374.632
472,0.7847499999999999,1374.483
473,0.786417,1372.099
474,0.788083,1372.099
475,0.78975,1366.66
476,0.791417,1355.112
477,0.793067,1349.002
478,0.794733,1349.002
479,0.7964,1346.245
480,0.798067,1344.234
481,0.799733,1344.234
482,0.8014,1344.085
483,0.803067,1343.489
484,0.804733,1340.807
485,0.8064,1340.807
486,0.808067,1338.72
487,0.80985,1336.187
488,0.8114,1332.909
489,0.813067,1332.909
490,0.814733,1332.313
491,0.8164,1328.811
492,0.818067,1326.576
493,0.819733,1326.576
494,0.8214,1327.47
495,0.823067,1322.553
496,0.824717,1321.733
497,0.826383,1321.733
498,0.82805,1319.498
499,0.829717,1313.537
500,0.831383,1313.537
501,0.83305,1310.408
502,0.834717,1309.589
503,0.836383,1307.204
504,0.83805,1307.204
505,0.839717,1306.459
506,0.841383,1309.365
507,0.84305,1305.342
508,0.8447170000000001,1305.342
509,0.846383,1304.075
510,0.84805,1303.107
511,0.8497169999999999,1297.593
512,0.851367,1297.593
513,0.853033,1296.923
514,0.8547,1297.668
515,0.856367,1297.668
516,0.858033,1294.538
517,0.8597,1292.378
518,0.861367,1292.229
519,0.8630330000000001,1292.229
520,0.8647,1289.621
521,0.866367,1290.068
522,0.8680330000000001,1289.696
523,0.8697,1289.696
524,0.871383,1286.045
525,0.8730329999999999,1282.766
526,0.8747,1280.159
527,0.876367,1280.159
528,0.878033,1280.978
529,0.8797,1282.916
530,0.881367,1283.064
531,0.883033,1283.064
532,0.8847,1280.904
533,0.886367,1277.253
534,0.88805,1277.253
535,0.8897,1273.304
536,0.891367,1272.932
537,0.893033,1274.273
538,0.894717,1274.273
539,0.896367,1273.453
540,0.898033,1275.316
541,0.8997000000000001,1274.347
542,0.901367,1274.347
543,0.903033,1272.634
544,0.9046999999999999,1273.826
545,0.906367,1270.324
546,0.908017,1270.324
547,0.909683,1269.653
548,0.911417,1268.312
549,0.913017,1268.312
550,0.914683,1266.375
551,0.91635,1265.556
552,0.918017,1264.214
553,0.919683,1264.214
554,0.92135,1260.713
555,0.923017,1260.638
556,0.924683,1260.564
557,0.92635,1260.564
558,0.928083,1258.478
559,0.929683,1259.297
560,0.93135,1255.497
561,0.933017,1255.497
562,0.934683,1252.294
563,0.93635,1251.25
564,0.938017,1251.25
565,0.939683,1250.207
566,0.94135,1249.164
567,0.943017,1249.015
568,0.9446830000000001,1249.015
569,0.94635,1248.196
570,0.948017,1249.239
571,0.949717,1250.133
572,0.95135,1250.133
573,0.953017,1252.517
574,0.9546829999999999,1252.815
575,0.95635,1252.219
576,0.958017,1252.219
577,0.959683,1251.623
578,0.96135,1250.878
579,0.963017,1249.015
580,0.964683,1249.015
581,0.96635,1246.184
582,0.968,1244.992
583,0.9696669999999999,1244.992
584,0.971333,1242.31
585,0.973,1242.608
586,0.974667,1240.894
587,0.976333,1240.894
588,0.978,1240
589,0.979667,1240.82
590,0.981333,1244.247
591,0.983,1244.247
592,0.984667,1245.216
593,0.986333,1244.47
594,0.9880330000000001,1242.757
595,0.989667,1242.757
596,0.991333,1238.436
597,0.993,1237.02
598,0.994667,1237.02
599,0.996333,1236.871
600,0.998,1235.083
601,0.999667,1234.785
602,1.001333,1234.785
603,1.003,1235.828
604,1.004667,1235.53
605,1.006333,1234.561
606,1.008,1234.561
607,1.009667,1233.444
608,1.011333,1229.793
609,1.013033,1230.836
610,1.014667,1230.836
611,1.016333,1229.718
612,1.018017,1230.24
613,1.019667,1231.506
614,1.021333,1231.506
615,1.023,1230.985
