"ID","sea_time","fid_signal"
1,0,141.248
2,0.001667,141.248
3,0.003333,141.673
4,0.00505,141.539
5,0.006667,141.472
6,0.008333,141.472
7,0.01,141.27
8,0.011667,140.838
9,0.013333,140.861
10,0.015,140.861
11,0.016667,141.181
12,0.018333,141.382
13,0.02,141.382
14,0.021767,141.509
15,0.023333,141.621
16,0.025,141.39
17,0.026667,141.39
18,0.028333,141.487
19,0.03,141.375
20,0.031667,141.144
21,0.033333,141.144
22,0.035,141.181
23,0.036667,140.861
24,0.038333,140.801
25,0.04,140.801
26,0.041667,140.965
27,0.04335,141.047
28,0.045,141.047
29,0.046667,141.181
30,0.048333,141.27
31,0.05,141.248
32,0.051667,141.248
33,0.053333,141.278
34,0.054983,141.412
35,0.05665,141.129
36,0.058317,141.129
37,0.060017,141.129
38,0.061633,141.099
39,0.0633,141.196
40,0.064967,141.196
41,0.066633,141.807
42,0.0683,141.636
43,0.069967,141.636
44,0.071633,141.211
45,0.0733,141.233
46,0.07496700000000001,140.853
47,0.07663300000000001,140.853
48,0.07829999999999999,140.943
49,0.079967,141.129
50,0.081633,140.905
51,0.0833,140.905
52,0.084967,140.987
53,0.086633,141.203
54,0.0883,141.501
55,0.08996700000000001,141.501
56,0.09163300000000001,141.412
57,0.09329999999999999,141.33
58,0.094967,141.077
59,0.096633,141.077
60,0.0983,141.062
61,0.099967,141.472
62,0.101633,141.472
63,0.1033,141.613
64,0.104967,142.016
65,0.106667,141.822
66,0.1083,141.822
67,0.109967,141.449
68,0.111633,141.27
69,0.1133,140.943
70,0.11495,140.943
71,0.116617,141.114
72,0.118283,141.375
73,0.11995,141.293
74,0.121617,141.293
75,0.123367,141.352
76,0.12495,141.211
77,0.126617,141.211
78,0.128283,140.98
79,0.130017,141.151
80,0.131617,141.248
81,0.133283,141.248
82,0.13495,141.39
83,0.136617,141.434
84,0.138283,141.457
85,0.140067,141.457
86,0.141617,141.434
87,0.143283,141.382
88,0.14495,141.427
89,0.146617,141.427
90,0.148283,141.688
91,0.14995,141.874
92,0.151617,141.919
93,0.153283,141.919
94,0.15495,141.896
95,0.156617,141.859
96,0.158283,141.859
97,0.15995,141.688
98,0.161617,141.814
99,0.163283,142.016
100,0.16495,142.016
101,0.166617,141.971
102,0.168283,141.77
103,0.16995,141.367
104,0.171617,141.367
105,0.173283,141.017
106,0.174933,140.868
107,0.1766,140.898
108,0.178267,140.898
109,0.179933,141.01
110,0.1816,141.047
111,0.183267,141.047
112,0.184933,140.913
113,0.1866,140.719
114,0.188267,140.764
115,0.189933,140.764
116,0.1916,140.712
117,0.193267,140.794
118,0.194933,140.965
119,0.1966,140.965
120,0.198267,140.838
121,0.199933,140.809
122,0.2016,140.756
123,0.203267,140.756
124,0.20495,140.809
125,0.2066,140.786
126,0.208267,140.95
127,0.209933,140.95
128,0.2116,141.107
129,0.213267,141.166
130,0.214933,141.166
131,0.2166,141.196
132,0.218283,141.151
133,0.219933,141.151
134,0.2216,141.151
135,0.223267,140.92
136,0.224983,140.913
137,0.2266,140.898
138,0.228267,140.898
139,0.229933,141.069
140,0.2316,141.285
141,0.233267,141.427
142,0.234917,141.427
143,0.236583,141.606
144,0.23825,141.3
145,0.239917,141.3
146,0.241583,141.256
147,0.24325,141.144
148,0.244917,141.084
149,0.246583,141.084
150,0.24825,140.98
151,0.249917,140.89
152,0.251583,140.794
153,0.25325,140.794
154,0.254917,140.928
155,0.256583,141.33
156,0.25835,141.196
157,0.259917,141.196
158,0.261583,141.278
159,0.26325,141.285
160,0.264917,141.285
161,0.266583,141.136
162,0.268267,141.405
163,0.269917,141.583
164,0.271583,141.583
165,0.27325,141.338
166,0.274917,141.189
167,0.276583,141.107
168,0.27825,141.107
169,0.279917,140.838
170,0.281583,140.756
171,0.28325,140.51
172,0.284917,140.51
173,0.286583,140.6
174,0.28825,140.727
175,0.289917,141.114
176,0.291583,141.114
177,0.29325,141.464
178,0.294933,141.278
179,0.296567,141.278
180,0.298233,141.516
181,0.2999,141.323
182,0.301567,141.203
183,0.303233,141.203
184,0.3049,141.211
185,0.306567,141.211
186,0.308233,141.189
187,0.3099,141.189
188,0.311567,141.472
189,0.313233,141.539
190,0.3149,141.211
191,0.316567,141.211
192,0.318233,141.211
193,0.3199,140.823
194,0.321567,140.823
195,0.323233,141.174
196,0.3249,141.285
197,0.326567,141.166
198,0.328233,141.166
199,0.3299,141.524
200,0.331567,141.174
201,0.333233,141.189
202,0.3349,141.189
203,0.336567,141.233
204,0.338233,140.92
205,0.3399,141.025
206,0.341567,141.025
207,0.343283,141.084
208,0.3449,141.144
209,0.346567,141.531
210,0.348233,141.531
211,0.3499,141.837
212,0.351567,142.142
213,0.353217,142.142
214,0.354867,142.179
215,0.356533,142.068
216,0.3582,141.986
217,0.359867,141.986
218,0.361533,141.926
219,0.3632,142.403
220,0.364867,142.708
221,0.366533,142.708
222,0.3682,143.118
223,0.369867,143.401
224,0.371533,143.565
225,0.3732,143.565
226,0.374867,143.968
227,0.37665,144.266
228,0.3782,144.266
229,0.379867,144.787
230,0.381533,145.502
231,0.3832,146.449
232,0.384867,146.449
233,0.386533,147.35
234,0.3882,148.572
235,0.389867,150.047
236,0.391533,150.047
237,0.393217,151.15
238,0.394867,152.722
239,0.396533,154.085
240,0.3982,154.085
241,0.399867,155.143
242,0.401533,156.783
243,0.4032,157.99
244,0.404867,157.99
245,0.406533,159.584
246,0.4082,160.992
247,0.409883,160.992
248,0.411533,161.842
249,0.413183,163.287
250,0.41485,164.315
251,0.416517,164.315
252,0.418183,165.343
253,0.41985,166.52
254,0.421517,166.99
255,0.423183,166.99
256,0.42485,167.4
257,0.426517,167.929
258,0.428183,168.651
259,0.42985,168.651
260,0.431517,169.359
261,0.433183,169.486
262,0.43485,169.486
263,0.436517,169.829
264,0.438183,169.516
265,0.43985,169.27
266,0.441517,169.27
267,0.443183,168.867
268,0.44485,168.025
269,0.446517,167.206
270,0.448183,167.206
271,0.44985,166.148
272,0.451517,165.507
273,0.453183,164.665
274,0.45485,164.665
275,0.456517,163.89
276,0.458183,163.168
277,0.45985,163.168
278,0.461583,162.199
279,0.463183,161.089
280,0.46485,159.927
281,0.466517,159.927
282,0.468183,158.586
283,0.46985,157.744
284,0.471517,156.961
285,0.473167,156.961
286,0.47485,155.985
287,0.4765,154.883
288,0.478167,153.542
289,0.479833,153.542
290,0.4815,152.58
291,0.483167,151.679
292,0.484833,151.038
293,0.4865,151.038
294,0.488167,150.36
295,0.489833,149.682
296,0.4915,149.682
297,0.493167,149.071
298,0.49495,148.609
299,0.4965,148.132
300,0.498167,148.132
301,0.499833,147.38
302,0.5014999999999999,147.179
303,0.503167,146.709
304,0.504833,146.709
305,0.5065,146.329
306,0.508167,146.084
307,0.509833,145.532
308,0.5115,145.532
309,0.513167,145.577
310,0.514833,145.331
311,0.5165,145.331
312,0.518167,145.108
313,0.519833,145.093
314,0.5215,144.571
315,0.523167,144.571
316,0.524833,144.206
317,0.5265,143.968
318,0.5281670000000001,143.372
319,0.529833,143.372
320,0.5315,143.036
321,0.53315,142.977
322,0.534817,142.88
323,0.536483,142.88
324,0.53815,143.014
325,0.539817,143.215
326,0.541483,143.312
327,0.54315,143.312
328,0.544817,143.297
329,0.546517,143.2
330,0.548217,143.2
331,0.549817,143.282
332,0.5514829999999999,143.155
333,0.55315,142.887
334,0.554817,142.887
335,0.5564829999999999,142.768
336,0.55815,142.656
337,0.559817,142.679
338,0.561483,142.679
339,0.56315,142.857
340,0.564817,143.014
341,0.566483,142.954
342,0.56815,142.954
343,0.569817,142.775
344,0.571483,142.746
345,0.57315,142.746
346,0.574817,142.626
347,0.576483,142.492
348,0.5781500000000001,142.679
349,0.579833,142.679
350,0.581483,142.664
351,0.5831499999999999,142.79
352,0.584817,142.761
353,0.586483,142.761
354,0.58815,142.5
355,0.589817,142.522
356,0.591483,142.41
357,0.59315,142.41
358,0.5948,142.686
359,0.59655,142.962
360,0.598133,142.969
361,0.5998,142.969
362,0.601467,142.843
363,0.603133,142.597
364,0.6048,142.597
365,0.606467,142.604
366,0.608133,142.924
367,0.6098,143.215
368,0.611467,143.215
369,0.61325,143.409
370,0.6148,143.252
371,0.616467,142.924
372,0.618133,142.924
373,0.6198,142.537
374,0.621483,142.239
375,0.62315,142.016
376,0.624817,142.016
377,0.626467,141.956
378,0.6281330000000001,141.948
379,0.6299,141.822
380,0.631467,141.822
381,0.6331329999999999,141.881
382,0.6348,142.008
383,0.636467,142.008
384,0.638133,142.507
385,0.6398,142.977
386,0.641467,143.319
387,0.643133,143.319
388,0.644783,143.372
389,0.64645,142.984
390,0.6481170000000001,142.522
391,0.649783,142.522
392,0.651433,142.381
393,0.6531,142.254
394,0.654767,142.254
395,0.656433,142.112
396,0.6581,142.366
397,0.659767,142.351
398,0.661433,142.351
399,0.6631,142.276
400,0.664767,142.746
401,0.6664330000000001,142.626
402,0.6681,142.626
403,0.669767,142.582
404,0.6714329999999999,142.589
405,0.6731,142.619
406,0.674767,142.619
407,0.676433,142.604
408,0.6781,142.612
409,0.679767,142.79
410,0.681433,142.79
411,0.6831,142.321
412,0.684767,142.112
413,0.686433,142.112
414,0.6881,141.919
415,0.689767,141.837
416,0.691433,141.837
417,0.6931,141.837
418,0.694767,142.008
419,0.696433,141.986
420,0.698133,141.911
421,0.699767,141.911
422,0.701433,142.15
423,0.7030999999999999,142.239
424,0.704767,142.612
425,0.706433,142.612
426,0.7081,142.761
427,0.709767,142.731
428,0.711433,142.731
429,0.713083,142.463
430,0.71475,142.47
431,0.716417,142.299
432,0.718083,142.299
433,0.71975,142.44
434,0.721417,142.351
435,0.723083,142.254
436,0.72475,142.254
437,0.726417,141.963
438,0.728083,141.568
439,0.72975,141.911
440,0.7315,141.911
441,0.733083,141.829
442,0.73475,142.12
443,0.736417,142.418
444,0.738083,142.418
445,0.73975,142.366
446,0.741417,142.358
447,0.743083,142.358
448,0.74475,142.41
449,0.746417,142.172
450,0.748183,142.366
451,0.74975,142.366
452,0.751417,142.246
453,0.7530829999999999,142.112
454,0.75475,142.053
455,0.756417,142.053
456,0.758083,141.725
457,0.75975,141.867
458,0.761417,141.799
459,0.763083,141.799
460,0.76475,142.083
461,0.766417,142.194
462,0.768083,142.194
463,0.76975,141.971
464,0.7714,142.246
465,0.7730669999999999,142.343
466,0.774733,142.343
467,0.7764,142.395
468,0.778067,142.612
469,0.779733,142.328
470,0.7814,142.328
471,0.783067,142.209
472,0.784733,142.314
473,0.7864,142.395
474,0.788067,142.395
475,0.789733,142.351
476,0.791417,142.187
477,0.793067,141.874
478,0.794733,141.874
479,0.796417,141.785
480,0.798067,142.165
481,0.799733,142.165
482,0.8014,142.269
483,0.803067,142.604
484,0.804733,142.679
485,0.8064,142.679
486,0.808067,142.604
487,0.809733,142.537
488,0.8114,142.232
489,0.813067,142.232
490,0.814733,142.008
491,0.8164,142.127
492,0.818067,142.232
493,0.819733,142.232
494,0.8214,142.507
495,0.823067,142.656
496,0.824733,142.656
497,0.8264,142.418
498,0.828067,142.373
499,0.8297330000000001,142.537
500,0.8314,142.537
501,0.833167,142.671
502,0.834717,142.649
503,0.836383,142.977
504,0.83805,142.977
505,0.839717,142.835
506,0.841383,142.731
507,0.84305,142.962
508,0.8447170000000001,142.962
509,0.846383,142.977
510,0.84805,143.044
511,0.849783,143.215
512,0.851383,143.215
513,0.85305,143.252
514,0.8547169999999999,143.468
515,0.856383,143.468
516,0.85805,143.61
517,0.859717,143.707
518,0.861383,144.05
519,0.86305,144.05
520,0.864717,143.893
521,0.866483,143.759
522,0.86805,143.684
523,0.869717,143.684
524,0.871383,143.617
525,0.87305,143.707
526,0.874717,144.146
527,0.876383,144.146
528,0.87805,144.683
529,0.879717,144.884
530,0.881383,144.884
531,0.88305,145.011
532,0.884717,145.361
533,0.886383,145.443
534,0.88805,145.443
535,0.889717,145.562
536,0.891383,145.897
537,0.89305,145.875
538,0.8947000000000001,145.875
539,0.896367,146.225
540,0.898033,146.545
541,0.8997000000000001,146.836
542,0.901367,146.836
543,0.90305,147.179
544,0.9046999999999999,147.477
545,0.906367,147.477
546,0.908033,147.857
547,0.9097,148.177
548,0.911367,148.743
549,0.913033,148.743
550,0.9147,149.108
551,0.916367,149.466
552,0.918033,149.98
553,0.9197,149.98
554,0.921367,150.315
555,0.923033,150.591
556,0.9247,151.008
557,0.9263670000000001,151.008
558,0.928033,151.552
559,0.9297,152.141
560,0.9313669999999999,152.871
561,0.933033,152.871
562,0.934683,153.46
563,0.93635,153.668
564,0.938017,153.668
565,0.939683,154.1
566,0.94135,154.607
567,0.943017,155.263
568,0.9446830000000001,155.263
569,0.94635,156.164
570,0.948017,157.118
571,0.9496830000000001,157.781
572,0.9514,157.781
573,0.953,158.578
574,0.954667,159.398
575,0.956333,160.12
576,0.958,160.12
577,0.959667,161.201
578,0.961333,162.289
579,0.963,162.289
580,0.9646670000000001,163.317
581,0.96635,164.047
582,0.968,165.008
583,0.9696669999999999,165.008
584,0.97135,166.006
585,0.973017,167.109
586,0.974667,168.487
587,0.976333,168.487
588,0.978,169.471
589,0.979667,170.41
590,0.981333,171.393
591,0.983,171.393
592,0.9847669999999999,172.168
593,0.986333,173.204
594,0.988,174.411
595,0.989667,174.411
596,0.991333,175.707
597,0.993,177.011
598,0.994667,177.011
599,0.996333,178.337
600,0.998,179.425
601,0.999667,180.505
602,1.001333,180.505
603,1.003,181.995
604,1.004667,183.523
605,1.006333,184.99
606,1.008,184.99
607,1.009667,186.741
608,1.011333,188.164
609,1.013,189.453
610,1.01465,189.453
611,1.016317,191.137
612,1.017983,192.508
613,1.01965,192.508
614,1.021317,193.79
615,1.022983,195.257
616,1.02465,196.673
617,1.026317,196.673
618,1.027983,198.081
619,1.02965,199.705
620,1.031317,201.136
621,1.032983,201.136
622,1.03465,202.455
623,1.036317,204.057
624,1.037983,205.643
625,1.0397,205.643
626,1.041317,207.514
627,1.042983,209.555
628,1.04465,209.555
629,1.046317,211.097
630,1.047983,212.871
631,1.04965,214.636
632,1.051317,214.636
633,1.052983,216.261
634,1.05465,218.257
635,1.056317,220.314
636,1.057983,220.314
637,1.05965,222.258
638,1.061317,224.203
639,1.062983,225.924
640,1.06465,225.924
641,1.066317,227.407
642,1.067983,229.061
643,1.0697,230.685
644,1.071317,230.685
645,1.072967,232.652
646,1.074633,234.418
647,1.0763,234.418
648,1.077967,236.198
649,1.079633,238.061
650,1.0813,239.789
651,1.082967,239.789
652,1.084633,241.697
653,1.0863,243.515
654,1.087967,245.288
655,1.089633,245.288
656,1.0913,247.076
657,1.092967,249.021
658,1.094633,250.734
659,1.0963,250.734
660,1.097967,252.932
661,1.099633,254.877
662,1.1013,254.877
663,1.103083,256.576
664,1.104633,258.461
665,1.1063,260.308
666,1.107967,260.308
667,1.109633,262.015
668,1.1113,264.212
669,1.112967,266.477
670,1.114633,266.477
671,1.1163,268.452
672,1.117983,270.65
673,1.119633,272.445
674,1.1213,272.445
675,1.122967,274.085
676,1.124633,275.955
677,1.1263,278.205
678,1.127967,278.205
679,1.129633,280.03
680,1.1313,282.407
681,1.132967,282.407
682,1.134617,284.426
683,1.136283,285.976
684,1.13795,288.27
685,1.139617,288.27
686,1.141283,290.126
687,1.14295,292.122
688,1.144617,294.432
689,1.146283,294.432
690,1.14795,296.332
691,1.149617,298.113
692,1.151283,299.61
693,1.15295,299.61
694,1.154617,301.346
695,1.156283,303.44
696,1.15795,303.44
697,1.159617,305.63
698,1.161283,308.126
699,1.16295,309.862
700,1.164617,309.862
701,1.166283,311.68
702,1.16795,313.401
703,1.169617,315.107
704,1.171283,315.107
705,1.17295,317.365
706,1.174617,319.399
707,1.176283,321.545
708,1.17795,321.545
709,1.179617,323.541
710,1.181283,325.672
711,1.182983,327.826
712,1.184617,327.826
713,1.186283,329.688
714,1.18805,331.625
715,1.189617,331.625
716,1.191283,333.57
717,1.19295,335.455
718,1.1946,337.794
719,1.196267,337.794
720,1.197933,340.097
721,1.199617,342.071
722,1.201267,344.239
723,1.202933,344.239
724,1.2046,346.228
725,1.206267,348.113
726,1.207933,350.423
727,1.2096,350.423
728,1.211267,352.629
729,1.212933,354.715
730,1.2146,354.715
731,1.216267,356.972
732,1.217933,358.723
733,1.2196,360.355
734,1.221267,360.355
735,1.222933,362.24
736,1.2246,364.386
737,1.22625,366.904
738,1.227917,366.904
739,1.229583,369.355
740,1.23125,371.493
741,1.232917,373.617
742,1.234583,373.617
743,1.23625,375.316
744,1.237917,377.148
745,1.239583,377.148
746,1.24125,379.518
747,1.242917,381.552
748,1.244583,383.757
749,1.24625,383.757
750,1.247917,385.918
751,1.249583,387.833
752,1.25125,389.889
753,1.2529,389.889
754,1.2546,391.908
755,1.256283,394.21
756,1.2579,396.416
757,1.259567,396.416
758,1.261233,398.636
759,1.2629,400.7
760,1.264567,402.853
761,1.266233,402.853
762,1.2679,404.835
763,1.269567,406.645
764,1.271233,406.645
765,1.272917,408.806
766,1.274567,410.862
767,1.276233,413.097
768,1.2779,413.097
769,1.279567,415.452
770,1.281233,417.523
771,1.2829,419.334
772,1.284567,419.334
773,1.286233,421.412
774,1.2879,423.29
775,1.289567,425.719
776,1.291233,425.719
777,1.2929,428.133
778,1.294567,430.048
779,1.296233,430.048
780,1.2979,432.283
781,1.299567,433.885
782,1.301233,435.479
783,1.3029,435.479
784,1.304567,437.26
785,1.306317,439.04
786,1.3079,441.141
787,1.309567,441.141
788,1.311233,443.302
789,1.312883,445.321
790,1.31455,447.191
791,1.316217,447.191
792,1.317883,449.277
793,1.31955,451.602
794,1.321217,453.971
795,1.322883,453.971
796,1.32455,456.065
797,1.326217,458.069
798,1.327883,458.069
799,1.32955,459.731
800,1.331217,461.482
801,1.332883,463.56
802,1.33455,463.56
803,1.336217,465.55
804,1.337883,467.934
805,1.33965,470.012
806,1.341217,470.012
807,1.342883,472.136
808,1.34455,474.215
809,1.346217,475.958
810,1.347883,475.958
811,1.34955,478.014
812,1.351217,479.981
813,1.352883,479.981
814,1.35455,481.688
815,1.356217,483.438
816,1.357883,485.323
817,1.35955,485.323
818,1.361217,486.933
819,1.362883,488.721
820,1.36455,490.874
821,1.366217,490.874
822,1.367883,492.819
823,1.36955,494.92
824,1.371217,496.879
825,1.372883,496.879
826,1.37455,498.556
827,1.3762,500.344
828,1.377867,502.02
829,1.379533,502.02
830,1.3812,504.002
831,1.382867,505.984
832,1.384533,505.984
833,1.3862,507.705
834,1.387867,509.292
835,1.389533,510.775
836,1.3912,510.775
837,1.392867,512.354
838,1.394533,514.075
839,1.396233,516.124
840,1.397867,516.124
841,1.399533,518.1660000000001
842,1.4012,519.671
843,1.402867,521.526
844,1.404533,521.526
845,1.4062,523.47
846,1.407867,524.975
847,1.409533,524.975
848,1.4112,526.898
849,1.412867,528.38
850,1.414533,529.438
851,1.4162,529.438
852,1.417867,530.742
853,1.419533,532.083
854,1.4212,533.544
855,1.422867,533.544
856,1.424533,535.175
857,1.4262,536.9109999999999
858,1.427867,538.461
859,1.429533,538.461
860,1.431183,539.996
861,1.43285,541.4109999999999
862,1.434517,541.4109999999999
863,1.436183,542.76
864,1.43785,544.429
865,1.439517,545.919
866,1.4413,545.919
867,1.44285,547.402
868,1.444517,548.869
869,1.446183,550.374
870,1.44785,550.374
871,1.449517,551.753
872,1.451183,553.3920000000001
873,1.45285,554.778
874,1.454517,554.778
875,1.456183,555.925
876,1.45795,557.497
877,1.459517,558.928
878,1.461183,558.928
879,1.46285,560.388
880,1.464517,561.64
881,1.466183,561.64
882,1.46785,562.571
883,1.469517,563.458
884,1.4712,564.456
885,1.47285,564.456
886,1.474517,565.454
887,1.476183,566.7809999999999
888,1.47785,567.95
889,1.479517,567.95
890,1.481183,569.2619999999999
891,1.48285,570.364
892,1.484517,571.534
893,1.486183,571.534
894,1.48785,572.681
895,1.489517,573.6799999999999
896,1.491183,573.6799999999999
897,1.49285,574.864
898,1.4945,575.639
899,1.496167,576.712
900,1.497833,576.712
901,1.4995,577.681
902,1.501167,578.7089999999999
903,1.502833,579.655
904,1.5045,579.655
905,1.506167,580.542
906,1.507833,581.7190000000001
907,1.5095,582.77
908,1.511167,582.77
909,1.512833,583.753
910,1.5145,585.027
911,1.516167,586.2190000000001
912,1.517817,586.2190000000001
913,1.519483,587.255
914,1.52115,588.484
915,1.522817,588.484
916,1.524483,589.021
917,1.52615,589.058
918,1.527817,589.46
919,1.529483,589.46
920,1.53115,589.885
921,1.532817,590.54
922,1.5345,591.4640000000001
923,1.53615,591.4640000000001
924,1.537817,592.2910000000001
925,1.539483,592.992
926,1.54115,593.923
927,1.542817,593.923
928,1.544483,594.869
929,1.54615,595.845
930,1.547817,595.845
931,1.549483,596.6799999999999
932,1.55115,597.2089999999999
933,1.552817,597.849
934,1.554467,597.849
935,1.556133,598.647
936,1.5578,599.206
937,1.559583,599.802
938,1.561133,599.802
939,1.5628,600.323
940,1.564467,600.353
941,1.566133,601.083
942,1.5678,601.083
943,1.569467,601.88
944,1.571133,602.439
945,1.5728,602.99
946,1.574467,602.99
947,1.576217,603.49
948,1.5778,603.601
949,1.579467,603.601
950,1.581133,603.795
951,1.5828,604.235
952,1.584467,604.287
953,1.586133,604.287
954,1.5878,604.443
955,1.589467,604.972
956,1.591133,605.173
957,1.592917,605.173
958,1.594467,605.635
959,1.596133,606.298
960,1.5978,606.798
961,1.599467,606.798
