"ID","sea_time","fid_signal"
1,0,1165.643
2,0.001667,1168.922
3,0.003333,1168.922
4,0.005,1169.667
5,0.006667,1173.392
6,0.008333,1173.392
7,0.01,1174.286
8,0.011667,1174.212
9,0.013333,1176.447
10,0.015,1176.447
11,0.01665,1176
12,0.018317,1176.298
13,0.019983,1176.894
14,0.02165,1176.894
15,0.023317,1174.137
16,0.024983,1170.859
17,0.02665,1169.518
18,0.028317,1169.518
19,0.029983,1169.592
20,0.03165,1172.498
21,0.033317,1172.498
22,0.034983,1175.18
23,0.03665,1178.905
24,0.038317,1182.556
25,0.039983,1182.556
26,0.04165,1183.45
27,0.043317,1185.089
28,0.04505,1182.407
29,0.04665,1182.407
30,0.04835,1176.745
31,0.049983,1174.957
32,0.05165,1175.627
33,0.053317,1175.627
34,0.054983,1179.054
35,0.05665,1180.172
36,0.058317,1181.513
37,0.059983,1181.513
38,0.06165,1179.576
39,0.063317,1176.745
40,0.064983,1176.745
41,0.06665,1175.553
42,0.068317,1173.765
43,0.069983,1173.466
44,0.07165000000000001,1173.466
45,0.07331699999999999,1173.541
46,0.07498299999999999,1172.945
47,0.07663300000000001,1176.074
48,0.078417,1176.074
49,0.079967,1174.659
50,0.081633,1171.604
51,0.0833,1173.988
52,0.084967,1173.988
53,0.086633,1170.933
54,0.0883,1171.455
55,0.08996700000000001,1171.455
56,0.09163300000000001,1172.647
57,0.09329999999999999,1172.349
58,0.094967,1173.541
59,0.096633,1173.541
60,0.0983,1174.286
61,0.099967,1175.255
62,0.10165,1171.976
63,0.1033,1171.976
64,0.104967,1171.38
65,0.106633,1170.71
66,0.1083,1169.294
67,0.109967,1169.294
68,0.111633,1170.784
69,0.1133,1172.498
70,0.114967,1171.306
71,0.116633,1171.306
72,0.1183,1170.71
73,0.119967,1169.22
74,0.121633,1169.22
75,0.1233,1164.675
76,0.124967,1162.514
77,0.126633,1164.824
78,0.1283,1164.824
79,0.129967,1168.102
80,0.131633,1169.965
81,0.133317,1171.753
82,0.134983,1171.753
83,0.136617,1173.243
84,0.1383,1171.008
85,0.13995,1171.827
86,0.141617,1171.827
87,0.143283,1174.659
88,0.14495,1175.478
89,0.146617,1175.478
90,0.148283,1177.713
91,0.14995,1178.607
92,0.151617,1177.192
93,0.153283,1177.192
94,0.15495,1174.212
95,0.156617,1173.392
96,0.158283,1173.019
97,0.15995,1173.019
98,0.161617,1173.094
99,0.163333,1172.274
100,0.16495,1173.019
101,0.166617,1173.019
102,0.168283,1173.541
103,0.16995,1174.063
104,0.171617,1174.063
105,0.173283,1176.074
106,0.174933,1175.627
107,0.1766,1176
108,0.178267,1176
109,0.179933,1173.615
110,0.1816,1171.157
111,0.183267,1168.996
112,0.184933,1168.996
113,0.1866,1168.326
114,0.188267,1171.008
115,0.189933,1174.286
116,0.1916,1174.286
117,0.193267,1174.807
118,0.194933,1175.329
119,0.196717,1174.51
120,0.19825,1174.51
121,0.199917,1171.008
122,0.201583,1172.125
123,0.20325,1172.125
124,0.204917,1172.2
125,0.206583,1172.2
126,0.20825,1175.553
127,0.209917,1175.553
128,0.211633,1174.36
129,0.21325,1172.721
130,0.214917,1171.678
131,0.216583,1171.678
132,0.21825,1168.549
133,0.219917,1166.016
134,0.221583,1167.729
135,0.22325,1167.729
136,0.224917,1169.667
137,0.226583,1171.306
138,0.22825,1171.306
139,0.229917,1177.117
140,0.231583,1176.819
141,0.23325,1177.639
142,0.234917,1177.639
143,0.236583,1177.564
144,0.23825,1178.458
145,0.239917,1175.329
146,0.241583,1175.329
147,0.24325,1172.125
148,0.244917,1172.274
149,0.246583,1167.58
150,0.24825,1167.58
151,0.249917,1170.263
152,0.251583,1172.051
153,0.25325,1170.635
154,0.254917,1170.635
155,0.256583,1171.604
156,0.258233,1169.965
157,0.2599,1169.965
158,0.261567,1168.549
159,0.263233,1169.22
160,0.2649,1168.549
161,0.266567,1168.549
162,0.268233,1168.4
163,0.2699,1168.624
164,0.271567,1167.208
165,0.273233,1167.208
166,0.2749,1166.388
167,0.276583,1166.686
168,0.278233,1167.729
169,0.2799,1167.729
170,0.281617,1170.039
171,0.283233,1174.659
172,0.2849,1174.659
173,0.286567,1173.765
174,0.288233,1175.18
175,0.2899,1176.149
176,0.291567,1176.149
177,0.293233,1172.125
178,0.2949,1172.349
179,0.296567,1170.71
180,0.298283,1170.71
181,0.2999,1170.412
182,0.301567,1172.423
183,0.303233,1174.286
184,0.3049,1174.286
185,0.306567,1175.106
186,0.308233,1176.298
187,0.3099,1176.298
188,0.311567,1179.203
189,0.313233,1179.576
190,0.315,1177.415
191,0.316567,1177.415
192,0.318217,1176.447
193,0.319883,1173.094
194,0.32155,1172.274
195,0.323217,1172.274
196,0.324883,1173.466
197,0.32655,1173.615
198,0.328217,1174.435
199,0.329883,1174.435
200,0.331667,1172.796
201,0.333217,1173.466
202,0.334883,1172.87
203,0.33655,1172.87
204,0.338217,1172.125
205,0.339883,1172.647
206,0.34155,1172.647
207,0.343217,1172.349
208,0.344883,1171.38
209,0.34655,1171.753
210,0.348217,1171.753
211,0.349883,1171.38
212,0.351567,1170.337
213,0.353217,1173.466
214,0.354883,1173.466
215,0.35655,1171.753
216,0.358217,1171.753
217,0.359883,1174.286
218,0.36155,1174.286
219,0.363217,1173.168
220,0.364883,1177.49
221,0.36655,1177.49
222,0.368217,1182.333
223,0.369883,1182.035
224,0.37155,1178.756
225,0.373217,1178.756
226,0.374883,1173.541
227,0.376533,1168.698
228,0.3782,1165.941
229,0.379867,1165.941
230,0.381533,1165.494
231,0.3832,1165.792
232,0.384867,1167.804
233,0.386533,1167.804
234,0.3882,1169.741
235,0.389867,1172.423
236,0.391533,1176.819
237,0.3932,1176.819
238,0.394867,1176.223
239,0.396533,1175.925
240,0.3982,1175.925
241,0.399867,1174.137
242,0.401533,1173.168
243,0.4032,1173.317
244,0.404867,1173.317
245,0.406533,1171.604
246,0.4082,1173.243
247,0.409867,1170.859
248,0.411533,1170.859
249,0.4132,1171.008
250,0.414867,1174.063
251,0.41655,1174.51
252,0.4182,1174.51
253,0.419867,1178.011
254,0.421533,1176.819
255,0.423217,1176.819
256,0.424867,1174.286
257,0.426533,1174.212
258,0.4282,1173.988
259,0.429867,1173.988
260,0.431533,1174.36
261,0.43325,1176.596
262,0.434867,1180.768
263,0.436517,1180.768
264,0.438183,1187.548
265,0.43985,1206.323
266,0.441517,1235.902
267,0.443183,1235.902
268,0.44485,1279.488
269,0.446517,1347.14
270,0.448183,1450.181
271,0.449967,1450.181
272,0.451517,1605.898
273,0.453183,1838.654
274,0.45485,1838.654
275,0.456517,2171.621
276,0.458183,2627
277,0.45985,3229.007
278,0.461517,3229.007
279,0.463217,4002.303
280,0.46485,4966.185
281,0.4665,6141.215
282,0.468167,6141.215
283,0.469833,7537.827
284,0.4715,9153.335999999999
285,0.473167,10982.305
286,0.474833,10982.305
287,0.4765,13008.862
288,0.478167,15212.223
289,0.479833,15212.223
290,0.4815,17574.205
291,0.483167,20063.072
292,0.484833,22637.547
293,0.4865,22637.547
294,0.488167,25257.17
295,0.489833,27862.043
296,0.4915,30393.898
297,0.493167,30393.898
298,0.49485,32797.828
299,0.496483,35016.016
300,0.49815,37002.266
301,0.499817,37002.266
302,0.501483,38718.133
303,0.50315,40126.742
304,0.504817,40126.742
305,0.506483,41204.469
306,0.50815,41940.285
307,0.509817,42341.129
308,0.511483,42341.129
309,0.51315,42421.594
310,0.514817,42201.875
311,0.516483,41708.051
312,0.51815,41708.051
313,0.519817,40974.02
314,0.521483,40039.719
315,0.52315,38947.688
316,0.524817,38947.688
317,0.526483,37742.629
318,0.52815,36454.199
319,0.529817,35114.883
320,0.531483,35114.883
321,0.53315,33750.758
322,0.534883,32384.246
323,0.536483,32384.246
324,0.53815,31030.848
325,0.539817,29707.254
326,0.541483,28427.914
327,0.54315,28427.914
328,0.544817,27196.705
329,0.5464830000000001,26022.346
330,0.54815,24906.77
331,0.549817,24906.77
332,0.551517,23844.615
333,0.55315,22836.477
334,0.554817,21887.719
335,0.5564829999999999,21887.719
336,0.558133,20993.203
337,0.5598,20150.99
338,0.561467,20150.99
339,0.563133,19357.949
340,0.5648,18607.676
341,0.5664670000000001,17894.879
342,0.568183,17894.879
343,0.5698,17226.859
344,0.5715,16600.34
345,0.573133,16007.051
346,0.5748,16007.051
347,0.576467,15455.037
348,0.578133,14926.121
349,0.5798,14427.527
350,0.581467,14427.527
351,0.583133,13954.564
352,0.5848,13503.283
353,0.586467,13078.451
354,0.588133,13078.451
355,0.5898,12672.097
356,0.591467,12291.894
357,0.593133,12291.894
358,0.5948,11929.423
359,0.596467,11585.951
360,0.598133,11257.977
361,0.5998,11257.977
362,0.601467,10944.53
363,0.603133,10648.966
364,0.6048,10366.887
365,0.606467,10366.887
366,0.608133,10097.25
367,0.6098,9839.535
368,0.611467,9590.164000000001
369,0.613133,9590.164000000001
370,0.6148,9353.607
371,0.6164500000000001,9129.569
372,0.618117,9129.569
373,0.619783,8915.960999999999
374,0.6214499999999999,8709.504999999999
375,0.623117,8509.83
376,0.624783,8509.83
377,0.62645,8319.021000000001
378,0.628117,8132.83
379,0.629783,7954.091
380,0.631483,7954.091
381,0.633117,7784.441
382,0.634783,7620.082
383,0.63645,7461.011
384,0.638117,7461.011
385,0.639817,7310.584
386,0.64145,7166.117
387,0.643117,7028.878
388,0.644783,7028.878
389,0.64645,6897.151
390,0.6481170000000001,6772.205
391,0.649783,6772.205
392,0.65145,6651.133
393,0.6531169999999999,6533.34
394,0.654783,6417.632
395,0.65645,6417.632
396,0.658117,6302.819
397,0.659783,6190.836
398,0.66145,6082.654
399,0.663117,6082.654
400,0.664783,5980.954
401,0.66645,5884.841
402,0.668117,5792.305
403,0.669783,5792.305
404,0.67145,5700.514
405,0.673117,5613.863
406,0.674783,5613.863
407,0.676433,5526.021
408,0.6781,5443.99
409,0.679783,5366.653
410,0.681433,5366.653
411,0.6831,5287.006
412,0.684767,5211.681
413,0.68655,5137.026
414,0.6881,5137.026
415,0.689767,5062.669
416,0.691433,4993.901
417,0.6931,4927.59
418,0.694767,4927.59
419,0.696433,4858.747
420,0.6981000000000001,4793.182
421,0.699767,4730.448
422,0.701433,4730.448
423,0.7030999999999999,4668.459
424,0.704767,4611.686
425,0.706433,4611.686
426,0.7081,4556.924
427,0.709767,4500.076
428,0.711433,4447.251
429,0.7131,4447.251
430,0.7148,4392.192
431,0.716433,4339.218
432,0.718183,4291.907
433,0.719767,4291.907
434,0.721433,4242.584
435,0.7231,4195.571
436,0.7247670000000001,4149.229
437,0.726433,4149.229
438,0.7281,4105.494
439,0.7297670000000001,4064.068
440,0.731433,4064.068
441,0.7331,4022.718
442,0.7347669999999999,3982.633
443,0.736433,3938.898
444,0.738083,3938.898
445,0.73975,3895.76
446,0.741417,3855.229
447,0.743083,3818.423
448,0.74475,3818.423
449,0.746417,3778.189
450,0.7480830000000001,3740.117
451,0.74975,3702.566
452,0.751417,3702.566
453,0.7530829999999999,3663.078
454,0.75475,3630.594
455,0.756417,3630.594
456,0.758067,3596.842
457,0.759733,3565.997
458,0.7614,3535.151
459,0.7630670000000001,3535.151
460,0.764733,3501.996
461,0.7664,3473.61
462,0.7680670000000001,3442.615
463,0.769733,3442.615
464,0.7714,3415.123
465,0.7730669999999999,3390.089
466,0.774733,3360.51
467,0.7764,3360.51
468,0.778067,3331.825
469,0.779733,3302.097
470,0.7814,3273.562
471,0.783067,3273.562
472,0.784733,3246.963
473,0.786417,3222.972
474,0.788133,3222.972
475,0.789733,3195.107
476,0.7914,3169.403
477,0.793067,3143.772
478,0.794733,3143.772
479,0.796383,3119.707
480,0.79805,3100.187
481,0.799717,3079.996
482,0.801383,3079.996
483,0.80305,3060.028
484,0.80485,3037.229
485,0.806383,3015.771
486,0.80805,3015.771
487,0.809717,2991.408
488,0.811383,2970.174
489,0.8130500000000001,2970.174
490,0.814717,2952.218
491,0.816383,2930.313
492,0.8180500000000001,2908.781
493,0.819717,2908.781
494,0.821383,2884.716
495,0.8230499999999999,2859.235
496,0.824717,2838.597
497,0.826383,2838.597
498,0.82805,2819.896
499,0.829717,2802.461
500,0.831383,2786.07
501,0.83305,2786.07
502,0.834717,2767.667
503,0.836383,2749.711
504,0.83805,2735.481
505,0.839717,2735.481
506,0.841383,2721.846
507,0.84305,2706.125
508,0.8447170000000001,2706.125
509,0.846383,2691.448
510,0.84805,2672.151
511,0.8497169999999999,2651.513
512,0.851383,2651.513
513,0.85305,2633.259
514,0.8547169999999999,2615.154
515,0.856367,2600.625
516,0.858033,2600.625
517,0.859733,2587.81
518,0.861417,2574.25
519,0.8630330000000001,2560.541
520,0.8647,2560.541
521,0.866367,2544.969
522,0.8680330000000001,2526.417
523,0.8697,2526.417
524,0.871367,2511.814
525,0.8730329999999999,2500.117
526,0.8747,2487.525
527,0.876367,2487.525
528,0.878033,2476.722
529,0.8797,2463.385
530,0.881367,2447.814
531,0.883033,2447.814
532,0.8847,2434.85
533,0.886367,2420.619
534,0.888033,2410.263
535,0.88975,2410.263
536,0.891367,2399.459
537,0.893033,2388.06
538,0.8947000000000001,2379.343
539,0.896367,2379.343
540,0.898033,2364.442
541,0.8997000000000001,2352.67
542,0.901367,2352.67
543,0.903033,2342.313
544,0.9046999999999999,2332.479
545,0.906367,2321.973
546,0.90805,2321.973
547,0.9097,2310.723
548,0.911367,2296.791
549,0.913033,2283.677
550,0.9147,2283.677
551,0.91635,2274.066
552,0.918017,2262.443
553,0.919683,2253.13
554,0.92135,2253.13
555,0.923083,2239.793
556,0.924683,2226.383
557,0.92635,2226.383
558,0.928017,2214.313
559,0.929683,2203.584
560,0.93135,2196.729
561,0.933017,2196.729
562,0.934717,2191.588
563,0.93635,2186.596
564,0.938017,2177.283
565,0.939683,2177.283
566,0.94135,2167.448
567,0.943017,2154.112
568,0.9446830000000001,2141.818
569,0.94635,2141.818
570,0.948017,2132.282
571,0.9496830000000001,2121.627
572,0.95135,2121.627
573,0.953017,2114.847
574,0.9546829999999999,2108.738
575,0.95635,2099.35
576,0.958017,2099.35
577,0.959683,2091.005
578,0.96135,2081.096
579,0.963017,2070.069
580,0.964683,2070.069
581,0.96635,2064.854
582,0.968017,2056.956
583,0.969683,2047.792
584,0.97135,2047.792
585,0.973017,2041.087
586,0.974667,2031.55
587,0.976333,2024.397
588,0.978,2024.397
589,0.979667,2018.586
590,0.981333,2009.198
591,0.983,2009.198
592,0.984667,2002.567
593,0.986333,1996.607
594,0.988,1992.658
595,0.989667,1992.658
596,0.991333,1987.666
597,0.993,1980.662
598,0.994667,1972.914
599,0.99635,1972.914
600,0.998,1965.016
601,0.999683,1959.13
602,1.001333,1952.052
603,1.003,1952.052
604,1.004667,1946.315
605,1.006333,1940.802
606,1.008033,1932.457
607,1.009667,1932.457
608,1.011333,1924.336
609,1.013,1915.619
610,1.014667,1915.619
611,1.016333,1907.2
612,1.018,1899.228
613,1.019667,1892.075
614,1.021333,1892.075
615,1.023,1886.785
616,1.02475,1878.515
617,1.026333,1870.766
618,1.028,1870.766
619,1.029667,1866.072
620,1.031333,1861.528
621,1.033,1855.642
622,1.03465,1855.642
623,1.036317,1851.767
624,1.037983,1844.913
625,1.03965,1844.913
626,1.04145,1836.941
627,1.042983,1832.694
628,1.04465,1828.969
629,1.046317,1828.969
630,1.047983,1824.647
631,1.049633,1819.953
632,1.0513,1815.557
633,1.052967,1815.557
634,1.054633,1809.224
635,1.0563,1801.997
636,1.057967,1795.143
637,1.059633,1795.143
638,1.0613,1785.904
639,1.062967,1780.093
640,1.064633,1780.093
641,1.0663,1776.814
642,1.067967,1772.27
643,1.069633,1769.513
644,1.0713,1769.513
645,1.072967,1766.16
646,1.074633,1760.721
647,1.0763,1755.729
648,1.077967,1755.729
649,1.079633,1753.792
650,1.0813,1748.279
651,1.082983,1746.044
652,1.084633,1746.044
653,1.0863,1743.361
654,1.087983,1735.911
655,1.089633,1735.911
656,1.0913,1731.962
657,1.092967,1726.97
658,1.094633,1724.586
659,1.096283,1724.586
660,1.09795,1720.116
661,1.099617,1716.614
662,1.101283,1713.037
663,1.10295,1713.037
664,1.104617,1705.81
665,1.106283,1699.776
666,1.10795,1691.133
667,1.109617,1691.133
668,1.111283,1683.906
669,1.11295,1678.392
670,1.114617,1675.71
671,1.116283,1675.71
672,1.11795,1674.071
673,1.119617,1671.463
674,1.121283,1671.463
675,1.12295,1667.365
676,1.124617,1662.374
677,1.1263,1658.797
678,1.12795,1658.797
679,1.129617,1653.656
680,1.131283,1651.049
681,1.13295,1647.174
682,1.134617,1647.174
683,1.136283,1641.214
684,1.13795,1639.426
685,1.139617,1636.297
686,1.141283,1636.297
687,1.143033,1634.583
688,1.144617,1631.379
689,1.146283,1631.379
690,1.14795,1625.344
691,1.149617,1623.705
692,1.151283,1618.639
693,1.15295,1618.639
694,1.154617,1615.807
695,1.156267,1611.784
696,1.157933,1605.228
697,1.159717,1605.228
698,1.161267,1599.714
699,1.162933,1594.201
700,1.1646,1593.679
701,1.166267,1593.679
702,1.167933,1590.103
703,1.1696,1589.283
704,1.171267,1588.166
705,1.172933,1588.166
706,1.1746,1582.503
707,1.176333,1582.801
708,1.177933,1582.801
709,1.179617,1579.97
710,1.181267,1576.841
711,1.182933,1574.308
712,1.1846,1574.308
713,1.186267,1569.763
714,1.187933,1567.528
715,1.1896,1565.665
716,1.191267,1565.665
717,1.192933,1562.759
718,1.1946,1557.767
719,1.196267,1551.881
720,1.197933,1551.881
721,1.1996,1548.976
722,1.201267,1548.305
723,1.202933,1548.305
724,1.2046,1546.443
725,1.206267,1545.846
726,1.207933,1543.09
727,1.2096,1543.09
728,1.211267,1536.757
729,1.21295,1532.733
730,1.2146,1529.306
731,1.216267,1529.306
732,1.217917,1524.836
733,1.219583,1523.867
734,1.22125,1523.346
735,1.222917,1523.346
736,1.224583,1518.726
737,1.22625,1514.852
738,1.227917,1514.107
739,1.229583,1514.107
740,1.23125,1510.233
741,1.232917,1509.115
742,1.234583,1509.115
743,1.23625,1509.19
744,1.237917,1503.155
745,1.239583,1498.759
746,1.24125,1498.759
747,1.242917,1498.237
748,1.244583,1493.99
749,1.24625,1494.214
750,1.247917,1494.214
751,1.249583,1492.426
752,1.25125,1490.116
753,1.252933,1489.297
754,1.254583,1489.297
755,1.25625,1484.752
756,1.257917,1481.548
757,1.259583,1481.548
758,1.2613,1476.258
759,1.262917,1473.203
760,1.264583,1471.117
761,1.26625,1471.117
762,1.267917,1472.98
763,1.269583,1472.905
764,1.27125,1469.478
765,1.272917,1469.478
766,1.274583,1467.392
767,1.276233,1463.443
768,1.277967,1461.059
769,1.279567,1461.059
770,1.28125,1462.102
771,1.2829,1461.133
772,1.284567,1458.973
773,1.286233,1458.973
774,1.2879,1459.569
775,1.289567,1457.632
776,1.291233,1457.632
777,1.2929,1455.694
778,1.294683,1453.012
779,1.296233,1447.275
780,1.2979,1447.275
781,1.299567,1443.475
782,1.301233,1440.719
783,1.3029,1440.57
784,1.304567,1440.57
785,1.306233,1438.856
786,1.3079,1436.621
787,1.309567,1434.088
788,1.31125,1434.088
789,1.3129,1430.586
790,1.314567,1426.861
791,1.316233,1426.861
792,1.3179,1425.222
793,1.319567,1424.625
794,1.321233,1424.029
795,1.3229,1424.029
796,1.324567,1424.775
797,1.326233,1424.104
798,1.3279,1421.571
799,1.329567,1421.571
800,1.331233,1417.845
801,1.3329,1417.1
802,1.334567,1413.748
803,1.336233,1413.748
804,1.337883,1411.289
805,1.339583,1410.767
806,1.3412,1410.767
807,1.342867,1406.372
808,1.344533,1407.117
809,1.3462,1408.16
810,1.347867,1408.16
811,1.349533,1407.34
812,1.3512,1408.085
813,1.352867,1404.211
814,1.354533,1404.211
815,1.3562,1402.795
816,1.357867,1401.752
817,1.359533,1398.772
818,1.3612,1398.772
819,1.362867,1398.698
820,1.364533,1394.6
821,1.3662,1390.874
822,1.367867,1390.874
823,1.369533,1389.384
824,1.3712,1389.161
825,1.372867,1389.161
826,1.374533,1390.651
827,1.3762,1390.278
828,1.377867,1391.247
829,1.3796,1391.247
830,1.3812,1386.702
831,1.382867,1383.796
832,1.384533,1383.424
833,1.3862,1383.424
834,1.387867,1381.561
835,1.389533,1383.051
836,1.3912,1378.879
837,1.392867,1378.879
838,1.394533,1376.346
839,1.39625,1373.738
840,1.39785,1373.738
841,1.399517,1373.068
842,1.401183,1374.409
843,1.40285,1372.77
844,1.404517,1372.77
845,1.406183,1371.577
846,1.40785,1369.119
847,1.409517,1366.585
848,1.411183,1366.585
849,1.412983,1365.17
850,1.414517,1363.605
851,1.416183,1361.445
852,1.41785,1361.445
853,1.419517,1362.786
854,1.421183,1360.923
855,1.422883,1359.805
856,1.424517,1359.805
857,1.426183,1357.421
858,1.42785,1354.59
859,1.429517,1354.59
860,1.431183,1354.59
861,1.43285,1353.174
862,1.434517,1350.045
863,1.436183,1350.045
864,1.43785,1346.394
865,1.439517,1342.967
866,1.441183,1340.732
867,1.44285,1340.732
868,1.444517,1343.638
869,1.446183,1343.936
870,1.44785,1344.308
871,1.449517,1344.308
872,1.451183,1346.394
873,1.45285,1344.383
874,1.454517,1344.383
875,1.456167,1343.042
876,1.457833,1339.316
877,1.4595,1334.623
878,1.461167,1334.623
879,1.462833,1334.846
880,1.4645,1333.654
881,1.466167,1333.803
882,1.467833,1333.803
883,1.4695,1334.25
884,1.471167,1328.662
885,1.472833,1330.227
886,1.4745,1330.227
887,1.476167,1329.407
888,1.477833,1330.376
889,1.4795,1329.556
890,1.481183,1329.556
891,1.482833,1325.16
892,1.4845,1326.65
893,1.486183,1326.65
894,1.487833,1322.031
895,1.4895,1322.329
896,1.491167,1321.957
897,1.492833,1321.957
898,1.4945,1321.584
899,1.496167,1321.36
900,1.4979,1318.678
901,1.4995,1318.678
902,1.501167,1317.039
903,1.502833,1313.09
904,1.5045,1311.824
905,1.506167,1311.824
906,1.507833,1311.898
907,1.5095,1312.42
908,1.511167,1312.42
909,1.512833,1313.388
910,1.514517,1315.325
911,1.51615,1319.125
912,1.517817,1319.125
913,1.519483,1318.827
914,1.52115,1316.816
