"ID","sea_time","fid_signal"
1,0,141.636
2,0.001667,141.636
3,0.00335,141.189
4,0.005,141.01
5,0.00665,140.987
6,0.008333,140.987
7,0.009983000000000001,140.876
8,0.01165,141.159
9,0.013317,141.159
10,0.014983,141.114
11,0.01665,140.816
12,0.018317,140.838
13,0.019983,140.838
14,0.02165,140.652
15,0.023317,140.555
16,0.024983,140.92
17,0.02665,140.92
18,0.028417,140.92
19,0.029983,140.972
20,0.03165,140.861
21,0.033317,140.861
22,0.034983,140.786
23,0.03665,141.084
24,0.038317,141.084
25,0.039983,141.196
26,0.04165,141.367
27,0.043317,141.308
28,0.044983,141.308
29,0.04665,141.114
30,0.048317,141.248
31,0.049983,141.293
32,0.051633,141.293
33,0.0533,141.047
34,0.054967,141.099
35,0.056633,140.92
36,0.0583,140.92
37,0.059967,140.883
38,0.061633,141.27
39,0.0633,141.032
40,0.064967,141.032
41,0.066633,141.069
42,0.0683,140.935
43,0.069967,140.935
44,0.071633,140.786
45,0.0733,141.002
46,0.07498299999999999,141.166
47,0.07663300000000001,141.166
48,0.07829999999999999,141.203
49,0.079967,141.367
50,0.081633,141.315
51,0.0833,141.315
52,0.084967,141.054
53,0.086633,141.203
54,0.0883,140.943
55,0.08996700000000001,140.943
56,0.09165,140.95
57,0.09329999999999999,140.987
58,0.094967,140.987
59,0.096633,140.794
60,0.0983,140.741
61,0.099967,140.458
62,0.101633,140.458
63,0.1033,140.488
64,0.104967,140.779
65,0.106633,141.226
66,0.1083,141.226
67,0.109967,141.524
68,0.111617,141.762
69,0.11335,141.792
70,0.11495,141.792
71,0.116617,141.762
72,0.118283,141.703
73,0.11995,141.315
74,0.121617,141.315
75,0.123283,140.995
76,0.12495,140.525
77,0.126617,140.525
78,0.128283,140.652
79,0.12995,140.727
80,0.131617,140.719
81,0.133283,140.719
82,0.13495,140.965
83,0.136617,141.166
84,0.138283,141.539
85,0.13995,141.539
86,0.141617,141.315
87,0.143283,141.211
88,0.14495,140.615
89,0.146683,140.615
90,0.148283,140.332
91,0.14995,140.6
92,0.151617,140.6
93,0.153283,140.92
94,0.15495,141.39
95,0.156617,141.591
96,0.158283,141.591
97,0.15995,141.725
98,0.161617,141.606
99,0.163283,141.524
100,0.16495,141.524
101,0.166617,141.211
102,0.168283,141.226
103,0.16995,140.95
104,0.1716,140.95
105,0.173267,140.809
106,0.174933,140.995
107,0.1766,140.794
108,0.178267,140.794
109,0.179933,140.823
110,0.1816,140.801
111,0.183267,140.801
112,0.184933,140.585
113,0.1866,140.682
114,0.188267,141.017
115,0.189933,141.017
116,0.1916,141.136
117,0.193267,141.524
118,0.194933,141.747
119,0.196617,141.747
120,0.198267,141.583
121,0.199933,141.218
122,0.2016,140.89
123,0.203267,140.89
124,0.204933,140.652
125,0.2066,140.585
126,0.208267,140.585
127,0.209933,140.51
128,0.2116,140.525
129,0.213267,140.488
130,0.21495,140.488
131,0.2166,140.347
132,0.218267,140.749
133,0.219933,140.607
134,0.2216,140.607
135,0.223267,140.749
136,0.224933,140.63
137,0.2266,140.674
138,0.228267,140.674
139,0.229933,140.764
140,0.231617,140.451
141,0.233267,140.451
142,0.234917,140.637
143,0.236583,140.443
144,0.23825,140.451
145,0.239917,140.451
146,0.241583,140.741
147,0.24325,140.861
148,0.244917,141.002
149,0.246583,141.002
150,0.248317,141.114
151,0.249917,141.241
152,0.251583,141.181
153,0.25325,141.181
154,0.254917,141.345
155,0.256583,141.39
156,0.25825,141.36
157,0.259917,141.36
158,0.261583,141.464
159,0.26325,141.442
160,0.264983,141.442
161,0.266583,141.39
162,0.26825,141.196
163,0.269933,141.039
164,0.271583,141.039
165,0.27325,140.555
166,0.274917,140.443
167,0.276583,140.227
168,0.27825,140.227
169,0.279917,140.302
170,0.281583,140.741
171,0.28325,140.809
172,0.284917,140.809
173,0.286583,141.367
174,0.28825,141.345
175,0.289917,141.345
176,0.291583,141.308
177,0.293233,141.531
178,0.2949,141.509
179,0.296567,141.509
180,0.298217,141.464
181,0.299883,141.531
182,0.30155,141.479
183,0.303217,141.479
184,0.304883,141.643
185,0.30655,142.157
186,0.308217,142.664
187,0.309883,142.664
188,0.31155,143.178
189,0.313217,143.513
190,0.314883,144.094
191,0.31655,144.094
192,0.318217,145.003
193,0.319883,145.972
194,0.32155,145.972
195,0.323217,147.276
196,0.324883,149.086
197,0.32655,151.56
198,0.328217,151.56
199,0.329883,155.069
200,0.33155,159.189
201,0.333217,164.114
202,0.334883,164.114
203,0.33655,169.665
204,0.338217,176.46
205,0.339883,184.603
206,0.34155,184.603
207,0.343217,194.11
208,0.344883,205.487
209,0.34655,205.487
210,0.348217,218.399
211,0.3499,233.062
212,0.351533,249.833
213,0.3532,249.833
214,0.3549,268.333
215,0.356533,289.589
216,0.3582,313.431
217,0.359867,313.431
218,0.361533,340.432
219,0.3632,370.853
220,0.364867,404.507
221,0.3666,404.507
222,0.3682,441.961
223,0.369867,483.371
224,0.37155,529.11
225,0.3732,529.11
226,0.374867,579.625
227,0.376533,636.034
228,0.3782,636.034
229,0.379867,698.067
230,0.381533,766.508
231,0.3833,841.871
232,0.384867,841.871
233,0.386533,924.766
234,0.3882,1016.013
235,0.389867,1116.395
236,0.391533,1116.395
237,0.3932,1226.574
238,0.394867,1347.162
239,0.396533,1479.126
240,0.3982,1479.126
241,0.399967,1622.371
242,0.401533,1777.112
243,0.4032,1777.112
244,0.404867,1943.089
245,0.406533,2119.534
246,0.4082,2305.604
247,0.409867,2305.604
248,0.411517,2500.221
249,0.413183,2701.066
250,0.41485,2906.494
251,0.416517,2906.494
252,0.418183,3114
253,0.41985,3320.24
254,0.421517,3523.044
255,0.423183,3523.044
256,0.42485,3718.905
257,0.426517,3904.82
258,0.428183,3904.82
259,0.42985,4078.336
260,0.431517,4236.065
261,0.433183,4375.338
262,0.43485,4375.338
263,0.436517,4494.13
264,0.438183,4590.832
265,0.439867,4664.279
266,0.441517,4664.279
267,0.443183,4713.863
268,0.44485,4739.448
269,0.446517,4740.573
270,0.448183,4740.573
271,0.44985,4718.013
272,0.451517,4672.974
273,0.453183,4606.284
274,0.45485,4606.284
275,0.456517,4519.902
276,0.458183,4415.967
277,0.45985,4415.967
278,0.461517,4296.109
279,0.463183,4163.079
280,0.46485,4018.88
281,0.466517,4018.88
282,0.468167,3865.436
283,0.46985,3705.211
284,0.4715,3540.076
285,0.473167,3540.076
286,0.474833,3372.267
287,0.4765,3203.399
288,0.478167,3035.24
289,0.479833,3035.24
290,0.4815,2868.95
291,0.483167,2705.552
292,0.4849,2546.422
293,0.4865,2546.422
294,0.488167,2392.359
295,0.489833,2244.07
296,0.4915,2244.07
297,0.493167,2102.114
298,0.494833,1967.117
299,0.4965,1839.25
300,0.498167,1839.25
301,0.49985,1718.648
302,0.5016,1605.19
303,0.503167,1498.595
304,0.504833,1498.595
305,0.5065,1398.906
306,0.508167,1306.236
307,0.509833,1220.599
308,0.5115,1220.599
309,0.513167,1140.773
310,0.514833,1066.871
311,0.5165,1066.871
312,0.51825,998.326
313,0.519833,934.772
314,0.5215,876.687
315,0.523167,876.687
316,0.524833,822.8049999999999
317,0.5265,773.534
318,0.5281670000000001,728.421
319,0.529833,728.421
320,0.531483,686.765
321,0.53315,648.975
322,0.534817,613.965
323,0.536483,613.965
324,0.53815,581.689
325,0.539817,551.999
326,0.541483,551.999
327,0.54315,524.409
328,0.544817,499.42
329,0.5464830000000001,476.204
330,0.54815,476.204
331,0.549817,455.461
332,0.5514829999999999,436.276
333,0.55315,418.127
334,0.554817,418.127
335,0.5564829999999999,401.631
336,0.55815,386.141
337,0.559817,372.075
338,0.561483,372.075
339,0.563167,359.207
340,0.564817,347.421
341,0.566483,336.446
342,0.56815,336.446
343,0.569817,326.037
344,0.571483,316.53
345,0.57315,316.53
346,0.574817,307.672
347,0.576483,299.595
348,0.5781500000000001,292.51
349,0.579817,292.51
350,0.581483,285.968
351,0.5831499999999999,279.516
352,0.584817,273.325
353,0.586483,273.325
354,0.58815,267.528
355,0.5898,261.813
356,0.59145,256.531
357,0.593117,256.531
358,0.594783,251.733
359,0.59645,247.426
360,0.598117,247.426
361,0.599783,243.545
362,0.60145,239.901
363,0.603117,236.519
364,0.604783,236.519
365,0.60645,232.786
366,0.608117,229.135
367,0.609783,226.371
368,0.61145,226.371
369,0.613117,223.443
370,0.614783,220.768
371,0.6164500000000001,218.146
372,0.618117,218.146
373,0.619817,215.501
374,0.6214499999999999,212.915
375,0.623117,212.915
376,0.624783,210.553
377,0.62645,208.676
378,0.628117,206.411
379,0.629783,206.411
380,0.63145,204.72
381,0.633117,202.894
382,0.634783,201.203
383,0.6365499999999999,201.203
384,0.638117,199.631
385,0.639817,197.977
386,0.64145,196.755
387,0.643117,196.755
388,0.644783,195.265
389,0.64645,193.752
390,0.6481170000000001,192.322
391,0.649783,192.322
392,0.651433,190.623
393,0.6531,189.446
394,0.654767,189.446
395,0.656433,188.678
396,0.6581,187.717
397,0.659767,186.689
398,0.661433,186.689
399,0.6631,185.534
400,0.664767,184.506
401,0.6664330000000001,183.56
402,0.6681,183.56
403,0.669767,182.77
404,0.6714329999999999,181.943
405,0.6731,180.811
406,0.674767,180.811
407,0.676433,180.058
408,0.6781,179.432
409,0.679767,179.432
410,0.681433,178.516
411,0.6831,177.808
412,0.684767,176.802
413,0.686433,176.802
414,0.6881,175.864
415,0.689767,175.454
416,0.69145,174.865
417,0.6931,174.865
418,0.694767,174.403
419,0.696433,173.718
420,0.6981000000000001,172.846
421,0.699767,172.846
422,0.701433,172.116
423,0.7030999999999999,171.244
424,0.704767,170.648
425,0.706433,170.648
426,0.7081,170.074
427,0.709767,169.903
428,0.711417,169.903
429,0.713083,169.672
430,0.71475,169.501
431,0.716417,169.486
432,0.718083,169.486
433,0.71975,169.039
434,0.721417,168.666
435,0.723083,168.063
436,0.72475,168.063
437,0.726417,167.578
438,0.728083,166.93
439,0.72975,166.439
440,0.731417,166.439
441,0.733083,166.208
442,0.73475,165.515
443,0.736417,165.515
444,0.738083,165.03
445,0.73975,164.509
446,0.741417,164.33
447,0.743083,164.33
448,0.74475,164.121
449,0.746417,163.98
450,0.7480830000000001,163.645
451,0.74975,163.645
452,0.751417,163.101
453,0.7530829999999999,162.736
454,0.754817,162.214
455,0.756417,162.214
456,0.758083,162.154
457,0.75975,161.961
458,0.761417,161.938
459,0.763083,161.938
460,0.76475,161.879
461,0.766417,161.409
462,0.768083,161.409
463,0.76975,160.769
464,0.7714,160.336
465,0.7730669999999999,159.755
466,0.77475,159.755
467,0.7764,159.614
468,0.778067,159.763
469,0.779733,159.785
470,0.7814,159.785
471,0.783083,160.106
472,0.7848000000000001,159.897
473,0.7864,159.644
474,0.788067,159.644
475,0.789733,159.279
476,0.7914,159.003
477,0.793067,159.003
478,0.794733,158.817
479,0.7964,158.496
480,0.798067,157.975
481,0.799733,157.975
482,0.8014,157.408
483,0.803067,157.282
484,0.804733,157.334
485,0.8064,157.334
486,0.808067,157.461
487,0.809733,157.379
488,0.8114,157.259
489,0.813067,157.259
490,0.814733,156.82
491,0.8164,156.552
492,0.818067,156.485
493,0.819733,156.485
494,0.8214,156.127
495,0.823067,155.956
496,0.824733,155.956
497,0.8264,155.993
498,0.828067,155.889
499,0.8297330000000001,156.015
500,0.831383,156.015
501,0.83305,156.231
502,0.834717,156.023
503,0.836383,155.732
504,0.83805,155.732
505,0.839717,155.665
506,0.841383,155.106
507,0.84305,154.89
508,0.8447170000000001,154.89
509,0.846383,154.905
510,0.84805,154.316
511,0.8497169999999999,154.316
512,0.8514,154.398
513,0.85305,154.071
514,0.8547169999999999,153.914
515,0.856383,153.914
516,0.85805,153.773
517,0.859717,153.564
518,0.861383,153.668
519,0.86305,153.668
520,0.864717,153.683
521,0.866383,154.026
522,0.86805,153.974
523,0.869717,153.974
524,0.871383,153.683
525,0.873133,153.363
526,0.874717,153.363
527,0.876383,152.908
528,0.87805,152.752
529,0.879717,152.715
530,0.881367,152.715
531,0.883033,152.647
532,0.8847,152.61
533,0.886367,152.506
534,0.888033,152.506
535,0.8897,152.461
536,0.89135,152.178
537,0.8930169999999999,152.215
538,0.894683,152.215
539,0.89635,152.297
540,0.898017,152.23
541,0.899683,152.394
542,0.90135,152.394
543,0.903017,152.402
544,0.904683,151.955
545,0.90635,151.955
546,0.908017,151.865
547,0.909683,151.776
548,0.91135,151.478
549,0.913017,151.478
550,0.914683,151.634
551,0.91635,151.478
552,0.918017,151.217
553,0.919683,151.217
554,0.92135,151.314
555,0.923017,151.373
556,0.924683,151.299
557,0.92635,151.299
558,0.928033,151.269
559,0.929683,151.008
560,0.93135,151.008
561,0.933017,150.807
562,0.934683,151.031
563,0.93635,151.008
564,0.938017,151.008
565,0.939683,150.986
566,0.94135,151.157
567,0.943017,151.031
568,0.9446830000000001,151.031
569,0.94635,151.068
570,0.948017,150.889
571,0.9496830000000001,150.561
572,0.951333,150.561
573,0.953,150.025
574,0.954667,149.876
575,0.956333,150.092
576,0.95805,150.092
577,0.959667,150.077
578,0.961333,150.129
579,0.963,150.129
580,0.9646670000000001,150.196
581,0.966333,149.921
582,0.968,149.928
583,0.9696669999999999,149.928
584,0.971333,150.092
585,0.973,150.025
586,0.974667,150.077
587,0.976333,150.077
588,0.978,150.077
589,0.979667,150.085
590,0.981333,149.95
591,0.983,149.95
592,0.984667,149.868
593,0.986333,149.66
594,0.988,149.66
595,0.989667,149.414
596,0.9914500000000001,149.421
597,0.993,149.481
598,0.994667,149.481
599,0.996333,149.503
600,0.998,149.369
601,0.999667,149.205
602,1.001333,149.205
603,1.003,149.071
604,1.004683,148.959
605,1.006333,148.922
606,1.008,148.922
607,1.009667,149.146
608,1.011317,149.019
609,1.012983,149.019
610,1.01465,148.87
611,1.016317,148.922
612,1.017983,148.594
613,1.01965,148.594
614,1.021317,148.378
615,1.022983,148.229
616,1.02465,148.095
617,1.026317,148.095
618,1.027983,148.043
619,1.02965,147.969
620,1.031317,148.14
621,1.032983,148.14
622,1.03465,148.155
623,1.036317,148.17
624,1.037983,148.155
625,1.03965,148.155
626,1.041317,147.916
627,1.042983,147.767
628,1.04465,147.767
629,1.046317,147.797
630,1.047983,148.08
631,1.04965,148.222
632,1.051317,148.222
633,1.052983,148.423
634,1.05465,148.229
635,1.056317,147.812
636,1.057983,147.812
637,1.05965,147.7
638,1.061317,147.589
639,1.062983,147.484
640,1.06465,147.484
641,1.066317,147.805
642,1.067983,147.738
643,1.06965,147.738
644,1.071333,147.507
645,1.073017,147.447
646,1.074633,147.156
647,1.076417,147.156
648,1.077967,147.201
649,1.079633,147.261
650,1.0813,147.544
651,1.082967,147.544
652,1.084633,147.544
653,1.0863,147.574
654,1.087967,147.879
655,1.089633,147.879
656,1.0913,147.752
657,1.092967,147.827
658,1.094633,147.559
659,1.0963,147.559
660,1.097967,147.343
661,1.099633,147.32
662,1.1013,147.32
663,1.102967,147.194
664,1.104633,147.067
665,1.1063,147.097
666,1.107967,147.097
667,1.10975,146.836
668,1.1113,146.709
669,1.112967,147.03
670,1.114633,147.03
671,1.1163,146.762
672,1.117967,146.449
673,1.119633,146.486
674,1.1213,146.486
675,1.122967,146.247
676,1.124633,146.344
677,1.1263,146.344
678,1.127967,146.799
679,1.129617,146.948
680,1.1313,147.305
681,1.13295,147.305
682,1.134617,147.298
683,1.136283,147.097
684,1.13795,146.843
685,1.139617,146.843
686,1.141283,146.516
687,1.14295,146.285
688,1.144617,146.121
689,1.146333,146.121
690,1.14795,146.389
691,1.149617,146.389
692,1.151283,146.538
693,1.15295,146.538
694,1.154617,146.672
695,1.156283,146.709
696,1.15795,146.709
697,1.159617,146.776
698,1.161283,146.62
699,1.16295,146.732
700,1.164617,146.732
701,1.166283,146.605
702,1.16795,146.359
703,1.169617,146.635
704,1.171283,146.635
705,1.172933,146.59
706,1.1746,146.195
707,1.176267,146.195
708,1.17795,146.195
709,1.1796,145.942
710,1.181267,145.882
711,1.182933,145.882
712,1.1846,145.979
713,1.186267,145.83
714,1.187933,146.165
715,1.1896,146.165
716,1.19125,146.471
717,1.192917,146.754
718,1.19465,147.276
719,1.19625,147.276
720,1.197917,147.127
721,1.199583,146.575
722,1.20125,146.538
723,1.202917,146.538
724,1.204583,145.942
725,1.20625,145.547
726,1.207917,145.547
727,1.209583,145.577
728,1.21125,145.234
729,1.212917,145.324
730,1.2146,145.324
731,1.21625,145.406
732,1.217933,145.51
733,1.219583,145.54
734,1.22125,145.54
735,1.222917,145.733
736,1.224583,145.972
737,1.22625,145.763
738,1.228017,145.763
739,1.229583,145.912
740,1.23125,145.711
741,1.232917,145.368
742,1.234583,145.368
743,1.23625,145.324
744,1.237917,145.145
745,1.239583,145.145
746,1.24125,145.122
747,1.242917,144.988
748,1.244683,145.204
749,1.24625,145.204
750,1.247917,145.033
751,1.249583,144.869
752,1.251233,145.011
753,1.2529,145.011
754,1.254567,145.227
755,1.256233,145.391
756,1.2579,145.443
757,1.259567,145.443
758,1.261233,145.443
759,1.2629,145.122
760,1.264567,145.122
761,1.266233,144.869
762,1.2679,145.204
763,1.269567,145.115
764,1.271233,145.115
765,1.2729,145.093
766,1.274567,145.406
767,1.276233,145.085
768,1.2779,145.085
769,1.279567,145.361
770,1.281233,145.465
771,1.2829,145.48
772,1.284567,145.48
773,1.286233,145.569
774,1.2879,145.42
775,1.289567,145.525
776,1.291233,145.525
777,1.2929,145.592
778,1.294567,145.711
779,1.296233,145.711
780,1.2979,145.726
781,1.299567,145.607
782,1.301233,145.413
783,1.3029,145.413
784,1.304567,145.227
785,1.306233,145.048
786,1.3079,144.891
787,1.309567,144.891
788,1.311217,144.988
789,1.312883,145.279
790,1.31455,145.547
791,1.316217,145.547
792,1.317883,145.905
793,1.31955,146.069
794,1.321217,146.069
795,1.322883,145.614
796,1.32455,145.316
797,1.326217,144.623
798,1.327883,144.623
799,1.3296,144.146
800,1.331217,144.303
801,1.332883,144.43
802,1.33455,144.43
803,1.336217,144.631
804,1.337883,144.78
805,1.33955,144.765
806,1.341217,144.765
807,1.342883,144.519
808,1.34455,144.705
809,1.3463,144.489
810,1.347883,144.489
811,1.34955,144.191
812,1.351217,144.131
813,1.352883,144.131
814,1.35455,143.953
815,1.356217,144.295
816,1.357883,144.839
817,1.35955,144.839
818,1.361217,145.093
819,1.363017,145.204
820,1.36455,145.033
821,1.366217,145.033
822,1.367883,144.705
823,1.369533,144.75
824,1.3712,144.981
825,1.372867,144.981
826,1.374533,144.735
827,1.3762,144.489
828,1.377867,144.489
829,1.379533,144.34
830,1.3812,143.968
831,1.382867,144.139
832,1.384533,144.139
833,1.3862,144.333
834,1.387867,144.452
835,1.389533,144.564
836,1.3912,144.564
837,1.392867,144.348
838,1.394533,144.653
839,1.3962,144.862
840,1.397883,144.862
841,1.399533,145.011
842,1.4012,145.592
843,1.402867,145.607
844,1.404533,145.607
845,1.406217,145.257
846,1.407867,144.891
847,1.409533,144.891
848,1.4112,144.668
849,1.412867,144.191
850,1.414533,144.266
851,1.4162,144.266
852,1.417867,144.437
853,1.419533,144.124
854,1.4212,144.213
855,1.422867,144.213
856,1.424533,144.318
857,1.426217,144.467
858,1.427867,144.675
859,1.429533,144.675
860,1.431183,144.787
861,1.43285,144.43
862,1.434517,144.43
863,1.436183,144.228
864,1.43785,144.139
865,1.439517,144.094
866,1.441183,144.094
867,1.44285,144.444
868,1.444517,144.69
869,1.446183,144.958
870,1.447867,144.958
871,1.449517,144.787
872,1.451183,144.638
873,1.45285,144.459
874,1.454517,144.459
875,1.456183,144.079
876,1.45785,143.997
877,1.459517,143.997
878,1.461183,143.871
879,1.462833,143.595
880,1.46455,143.737
881,1.466167,143.737
882,1.467833,143.953
883,1.4695,143.856
884,1.471167,144.266
885,1.472833,144.266
886,1.4745,144.213
887,1.476167,144.4
888,1.477833,144.772
889,1.4795,144.772
890,1.481267,144.519
891,1.482833,144.579
892,1.4845,144.28
893,1.486167,144.28
894,1.487833,143.975
895,1.4895,143.96
896,1.49115,143.96
897,1.492817,144.05
898,1.494483,144.288
899,1.49615,144.385
900,1.497817,144.385
901,1.499483,144.236
902,1.50115,143.982
903,1.50285,143.647
904,1.504483,143.647
905,1.50615,143.521
906,1.507817,143.573
907,1.509483,143.662
908,1.51115,143.662
909,1.512817,143.789
910,1.514483,143.722
911,1.51615,143.722
912,1.517817,143.759
913,1.519483,143.841
914,1.52115,143.789
915,1.522817,143.789
916,1.524483,143.863
917,1.52615,143.863
918,1.527817,143.781
919,1.529483,143.781
920,1.53115,143.759
921,1.532817,143.647
922,1.534483,143.804
923,1.53615,143.804
924,1.537817,143.953
925,1.539483,144.139
926,1.54115,144.526
927,1.542817,144.526
928,1.544483,144.482
929,1.54615,144.035
930,1.547817,144.035
931,1.549467,144.169
932,1.551133,143.938
933,1.5528,143.878
934,1.554467,143.878
935,1.556133,144.325
936,1.5578,144.079
937,1.559467,144.057
938,1.561133,144.057
939,1.5628,144.05
940,1.564467,144.02
941,1.566133,144.012
942,1.5678,144.012
943,1.569467,143.789
944,1.571133,143.796
945,1.5728,143.796
946,1.574467,143.781
947,1.576133,143.908
948,1.5778,144.243
949,1.579467,144.243
950,1.58115,144.37
951,1.582833,144.169
952,1.584467,143.886
953,1.586133,143.886
954,1.5878,143.602
955,1.589467,143.327
956,1.591133,143.334
957,1.5928,143.334
958,1.594467,143.372
959,1.596133,143.379
960,1.5978,143.297
961,1.599583,143.297
962,1.601133,143.17
963,1.6028,143.126
