"ID","sea_time","fid_signal"
1,0,1180.47
2,0.001667,1181.439
3,0.003333,1180.768
4,0.005,1179.948
5,0.006667,1179.948
6,0.008333,1178.011
7,0.0101,1177.862
8,0.01165,1177.043
9,0.013317,1177.043
10,0.014983,1177.043
11,0.01665,1176.968
12,0.018317,1176.968
13,0.019983,1177.266
14,0.02165,1177.937
15,0.023317,1175.925
16,0.024983,1175.925
17,0.026733,1173.541
18,0.028317,1172.572
19,0.029983,1173.168
20,0.03165,1173.168
21,0.033317,1176.074
22,0.034983,1182.184
23,0.03665,1185.983
24,0.038317,1185.983
25,0.039983,1188.964
26,0.041667,1188.889
27,0.043433,1188.889
28,0.044983,1188.889
29,0.04665,1185.238
30,0.048317,1181.513
31,0.049983,1181.513
32,0.05165,1183.227
33,0.053317,1179.278
34,0.054983,1181.513
35,0.05665,1181.513
36,0.058333,1181.066
37,0.059983,1180.172
38,0.06165,1182.035
39,0.063317,1182.035
40,0.064983,1180.917
41,0.06665,1183.45
42,0.068317,1183.45
43,0.069983,1182.333
44,0.07165000000000001,1182.929
45,0.0733,1182.556
46,0.07496700000000001,1182.556
47,0.07663300000000001,1181.737
48,0.07829999999999999,1184.121
49,0.079967,1185.462
50,0.081633,1185.462
51,0.0833,1188.293
52,0.084967,1190.752
53,0.086633,1190.081
54,0.0883,1190.081
55,0.08996700000000001,1187.921
56,0.09163300000000001,1184.866
57,0.09329999999999999,1180.917
58,0.094967,1180.917
59,0.096633,1179.576
60,0.0983,1177.713
61,0.099967,1177.713
62,0.101633,1175.404
63,0.1033,1172.349
64,0.104967,1170.114
65,0.106633,1170.114
66,0.1083,1171.604
67,0.109967,1173.168
68,0.111617,1175.627
69,0.113283,1175.627
70,0.11495,1178.458
71,0.116617,1178.533
72,0.118283,1182.705
73,0.119967,1182.705
74,0.121617,1184.195
75,0.123283,1185.164
76,0.12495,1185.164
77,0.126617,1184.94
78,0.128333,1182.631
79,0.129933,1181.662
80,0.131617,1181.662
81,0.133267,1176.521
82,0.134933,1173.988
83,0.1366,1171.678
84,0.138267,1171.678
85,0.139933,1172.721
86,0.1416,1178.384
87,0.143267,1184.642
88,0.145,1184.642
89,0.1466,1185.685
90,0.148267,1186.952
91,0.149933,1185.313
92,0.1516,1185.313
93,0.153267,1182.854
94,0.154933,1184.493
95,0.1566,1184.493
96,0.158267,1185.387
97,0.159933,1183.897
98,0.1617,1185.387
99,0.163267,1185.387
100,0.164933,1184.419
101,0.1666,1182.854
102,0.168267,1182.705
103,0.169933,1182.705
104,0.1716,1181.066
105,0.173267,1183.599
106,0.174933,1182.854
107,0.1766,1182.854
108,0.178267,1184.121
109,0.179933,1182.929
110,0.1816,1182.929
111,0.183267,1180.619
112,0.184933,1177.788
113,0.1866,1176.372
114,0.188267,1176.372
115,0.189933,1177.862
116,0.1916,1180.023
117,0.19325,1186.356
118,0.194917,1186.356
119,0.1966,1186.803
120,0.19825,1187.25
121,0.199917,1188.74
122,0.201583,1188.74
123,0.20325,1185.238
124,0.204917,1187.697
125,0.206583,1187.623
126,0.20825,1187.623
127,0.209917,1182.482
128,0.211583,1182.482
129,0.21325,1182.482
130,0.214917,1180.47
131,0.2166,1179.576
132,0.21825,1180.47
133,0.219917,1180.47
134,0.221583,1183.227
135,0.22325,1185.015
136,0.224917,1182.258
137,0.226583,1182.258
138,0.22825,1180.768
139,0.229917,1179.203
140,0.231583,1179.799
141,0.23325,1179.799
142,0.234917,1183.972
143,0.236583,1186.281
144,0.23825,1186.281
145,0.239917,1187.921
146,0.241583,1184.94
147,0.243267,1183.897
148,0.244917,1183.897
149,0.2466,1182.184
150,0.24825,1179.874
151,0.249917,1181.737
152,0.251567,1181.737
153,0.253233,1182.482
154,0.2549,1182.035
155,0.256567,1181.513
156,0.258233,1181.513
157,0.2599,1178.905
158,0.261567,1175.553
159,0.2633,1177.639
160,0.2649,1177.639
161,0.266567,1178.533
162,0.268233,1180.47
163,0.2699,1180.47
164,0.271567,1182.333
165,0.273233,1182.109
166,0.2749,1180.619
167,0.276567,1180.619
168,0.278233,1181.96
169,0.280017,1181.141
170,0.281567,1182.854
171,0.283233,1182.854
172,0.2849,1185.611
173,0.286567,1184.195
174,0.288233,1186.356
175,0.2899,1186.356
176,0.291567,1185.015
177,0.293233,1183.45
178,0.2949,1183.45
179,0.296567,1185.015
180,0.298233,1183.823
181,0.299917,1183.525
182,0.301567,1183.525
183,0.303233,1182.854
184,0.3049,1180.396
185,0.306567,1179.129
186,0.308233,1179.129
187,0.3099,1178.682
188,0.311567,1180.917
189,0.313217,1184.344
190,0.314883,1184.344
191,0.31655,1185.387
192,0.318217,1185.238
193,0.319883,1185.238
194,0.32155,1183.227
195,0.323217,1181.513
196,0.324883,1180.917
197,0.32655,1180.917
198,0.328217,1181.439
199,0.329883,1183.823
200,0.33155,1183.376
201,0.333217,1183.376
202,0.334883,1180.619
203,0.33655,1180.843
204,0.338217,1178.458
205,0.339883,1178.458
206,0.34155,1178.086
207,0.343217,1182.929
208,0.344883,1181.29
209,0.34655,1181.29
210,0.348217,1181.215
211,0.349883,1181.96
212,0.35155,1181.96
213,0.353217,1183.599
214,0.354883,1185.611
215,0.35655,1184.94
216,0.358217,1184.94
217,0.359883,1187.026
218,0.36155,1183.599
219,0.363217,1183.078
220,0.364933,1183.078
221,0.36655,1186.579
222,0.368217,1185.462
223,0.369883,1187.026
224,0.371533,1187.026
225,0.3732,1186.43
226,0.374867,1186.207
227,0.376533,1186.207
228,0.3782,1185.015
229,0.379867,1187.101
230,0.381567,1190.975
231,0.3832,1190.975
232,0.384867,1192.689
233,0.386533,1193.509
234,0.3882,1190.081
235,0.389867,1190.081
236,0.391533,1187.101
237,0.3932,1186.579
238,0.394867,1188.517
239,0.396533,1188.517
240,0.398317,1190.007
241,0.399867,1192.465
242,0.401533,1194.104
243,0.403183,1194.104
244,0.40485,1196.638
245,0.406517,1199.543
246,0.408183,1199.543
247,0.40985,1203.12
248,0.411517,1202.002
249,0.413183,1201.406
250,0.41485,1201.406
251,0.416517,1201.853
252,0.418183,1199.842
253,0.41985,1203.418
254,0.421517,1203.418
255,0.423183,1204.088
256,0.42485,1203.492
257,0.426517,1203.12
258,0.428183,1203.12
259,0.42985,1203.492
260,0.431517,1203.79
261,0.433167,1203.79
262,0.434833,1204.759
263,0.4365,1208.782
264,0.438167,1206.771
265,0.439833,1206.771
266,0.4415,1206.174
267,0.443167,1209.602
268,0.444833,1208.112
269,0.4465,1208.112
270,0.448167,1208.335
271,0.449833,1210.496
272,0.4515,1208.186
273,0.453167,1208.186
274,0.454833,1210.272
275,0.4565,1206.473
276,0.458167,1206.473
277,0.459833,1204.759
278,0.4615,1206.398
279,0.463167,1201.481
280,0.464833,1201.481
281,0.4665,1204.014
282,0.468167,1202.002
283,0.469833,1198.128
284,0.4715,1198.128
285,0.473167,1197.532
286,0.474833,1192.912
287,0.4765,1192.391
288,0.478167,1192.391
289,0.479833,1191.273
290,0.4815,1191.571
291,0.483217,1193.657
292,0.484833,1193.657
293,0.4865,1194.924
294,0.488167,1194.179
295,0.489833,1194.179
296,0.491483,1191.124
297,0.49315,1192.763
298,0.494817,1188.964
299,0.496483,1188.964
300,0.49815,1188.144
301,0.499817,1187.995
302,0.501483,1185.164
303,0.50315,1185.164
304,0.504817,1190.454
305,0.506483,1190.23
306,0.50815,1190.379
307,0.509817,1190.379
308,0.511483,1192.093
309,0.51315,1188.293
310,0.514817,1188.293
311,0.516583,1190.975
312,0.51815,1193.807
313,0.519817,1195.222
314,0.521483,1195.222
315,0.52315,1195.52
316,0.524817,1196.042
317,0.526483,1194.03
318,0.52815,1194.03
319,0.529817,1192.465
320,0.531483,1194.403
321,0.53315,1193.583
322,0.534817,1193.583
323,0.536483,1193.434
324,0.53815,1192.242
325,0.539817,1189.858
326,0.541483,1189.858
327,0.54315,1189.932
328,0.544817,1188.964
329,0.5464830000000001,1188.964
330,0.54815,1188.293
331,0.549817,1189.113
332,0.5514829999999999,1187.548
333,0.55315,1187.548
334,0.5548,1190.826
335,0.556467,1190.677
336,0.558167,1188.293
337,0.5598,1188.293
338,0.561467,1187.176
339,0.563133,1187.399
340,0.5648,1186.505
341,0.5664670000000001,1186.505
342,0.568133,1188.889
343,0.5698,1192.316
344,0.5714669999999999,1192.316
345,0.573133,1191.72
346,0.5748,1196.265
347,0.576467,1196.638
348,0.578133,1196.638
349,0.5798,1196.265
350,0.581467,1195.073
351,0.583133,1194.924
352,0.5848,1194.924
353,0.586467,1192.465
354,0.588133,1187.474
355,0.5898,1188.07
356,0.591467,1188.07
357,0.593133,1184.642
358,0.5948,1184.195
359,0.596467,1188.517
360,0.598133,1188.517
361,0.5998,1186.654
362,0.601517,1187.474
363,0.603133,1187.474
364,0.6048,1186.877
365,0.606467,1183.897
366,0.608133,1183.227
367,0.6098,1183.227
368,0.611467,1183.376
369,0.613117,1185.611
370,0.614783,1185.387
371,0.6164500000000001,1185.387
372,0.618133,1185.387
373,0.6198,1182.258
374,0.6214499999999999,1176.968
375,0.623117,1176.968
376,0.624783,1179.427
377,0.62645,1181.215
378,0.628117,1181.215
379,0.629783,1181.811
380,0.63145,1185.983
381,0.633117,1182.333
382,0.6349,1182.333
383,0.63645,1180.321
384,0.638117,1181.439
385,0.639783,1183.227
386,0.64145,1183.227
387,0.643117,1185.015
388,0.644783,1186.356
389,0.64645,1186.579
390,0.6481170000000001,1186.579
391,0.649783,1184.642
392,0.65145,1185.536
393,0.6531169999999999,1187.25
394,0.654783,1187.25
395,0.65645,1186.356
396,0.658117,1188.368
397,0.659783,1188.368
398,0.66145,1189.187
399,0.663117,1187.324
400,0.664783,1190.826
401,0.66645,1190.826
402,0.668117,1189.187
403,0.669783,1187.846
404,0.6714329999999999,1186.43
405,0.6731,1186.43
406,0.674767,1184.94
407,0.676433,1183.003
408,0.6781,1179.203
409,0.679767,1179.203
410,0.681433,1179.352
411,0.6831,1179.203
412,0.684767,1179.203
413,0.686433,1183.227
414,0.6881,1188.517
415,0.689767,1188.442
416,0.691433,1188.442
417,0.6931,1188.815
418,0.694767,1185.089
419,0.696417,1183.972
420,0.698083,1183.972
421,0.69975,1185.015
422,0.701417,1183.823
423,0.703083,1187.324
424,0.70475,1187.324
425,0.706417,1189.113
426,0.708083,1187.995
427,0.70975,1187.995
428,0.711417,1186.729
429,0.7131,1187.25
430,0.71475,1186.058
431,0.716417,1186.058
432,0.718083,1187.101
433,0.7198,1190.677
434,0.721417,1187.399
435,0.723083,1187.399
436,0.72475,1186.058
437,0.726417,1185.611
438,0.728083,1185.76
439,0.72975,1185.76
440,0.731417,1189.038
441,0.733067,1192.391
442,0.734733,1195.148
443,0.7364000000000001,1195.148
444,0.738067,1193.434
445,0.739733,1192.242
446,0.7413999999999999,1192.242
447,0.743067,1193.956
448,0.744733,1198.053
449,0.7464,1204.163
450,0.748067,1204.163
451,0.749733,1206.622
452,0.7514,1210.421
453,0.753183,1215.115
454,0.754733,1215.115
455,0.7564,1218.319
456,0.758067,1225.397
457,0.759733,1227.93
458,0.7614,1227.93
459,0.7630670000000001,1234.412
460,0.764733,1242.161
461,0.7664,1242.161
462,0.7680670000000001,1250.282
463,0.769733,1261.234
464,0.7714,1270.25
465,0.7730669999999999,1270.25
466,0.774733,1285.97
467,0.7764,1303.181
468,0.778067,1320.764
469,0.779733,1320.764
470,0.7814,1340.136
471,0.783067,1355.261
472,0.784733,1371.13
473,0.7864,1371.13
474,0.788067,1391.47
475,0.789733,1415.014
476,0.7914,1441.911
477,0.79305,1441.911
478,0.794733,1471.49
479,0.796383,1500.547
480,0.79805,1500.547
481,0.799717,1528.338
482,0.801383,1560.077
483,0.80305,1595.244
484,0.804717,1595.244
485,0.806383,1635.477
486,0.80805,1678.69
487,0.809717,1720.339
488,0.811383,1720.339
489,0.8130500000000001,1763.85
490,0.814717,1807.138
491,0.816383,1852.289
492,0.8180500000000001,1852.289
493,0.819717,1901.463
494,0.821383,1951.531
495,0.8230499999999999,1951.531
496,0.824717,2007.484
497,0.826383,2062.991
498,0.82805,2124.682
499,0.829717,2124.682
500,0.831383,2189.279
501,0.83305,2252.012
502,0.834717,2317.578
503,0.8364,2317.578
504,0.838083,2380.312
505,0.839717,2448.037
506,0.841383,2516.955
507,0.84305,2516.955
508,0.8447170000000001,2588.406
509,0.846383,2661.646
510,0.84805,2661.646
511,0.8497169999999999,2731.681
512,0.851383,2800.226
513,0.853033,2872.05
514,0.8548,2872.05
515,0.856367,2944.469
516,0.858033,3021.21
517,0.8597,3104.284
518,0.861367,3104.284
519,0.8630330000000001,3183.41
520,0.8647,3262.609
521,0.866367,3339.648
522,0.8680330000000001,3339.648
523,0.8697,3416.24
524,0.871467,3496.334
525,0.8730329999999999,3576.428
526,0.8747,3576.428
527,0.876367,3657.788
528,0.878033,3737.807
529,0.8797,3737.807
530,0.881367,3819.019
531,0.883033,3901.198
532,0.8847,3981.516
533,0.886367,3981.516
534,0.888133,4062.28
535,0.8897,4141.033
536,0.891367,4223.436
537,0.893033,4223.436
538,0.8947000000000001,4305.616
539,0.896367,4387.498
540,0.89805,4469.604
541,0.8997000000000001,4469.604
542,0.901367,4546.866
543,0.903033,4623.979
544,0.9046999999999999,4623.979
545,0.906367,4701.316
546,0.908033,4778.057
547,0.9097,4855.096
548,0.911367,4855.096
549,0.913033,4929.826
550,0.914683,5004.406
551,0.91635,5073.92
552,0.918017,5073.92
553,0.919683,5145.296
554,0.92135,5215.928
555,0.923017,5281.046
556,0.924683,5281.046
557,0.92635,5348.772
558,0.928017,5413.07
559,0.929683,5476.475
560,0.93135,5476.475
561,0.933017,5540.326
562,0.934683,5599.335
563,0.93635,5599.335
564,0.938017,5657.896
565,0.939683,5718.619
566,0.94135,5775.839
567,0.943017,5775.839
568,0.9446830000000001,5831.569
569,0.94635,5883.425
570,0.948017,5930.662
571,0.9496830000000001,5930.662
572,0.95135,5981.028
573,0.953017,6029.755
574,0.9546829999999999,6075.725
575,0.956367,6075.725
576,0.958017,6118.64
577,0.959683,6156.042
578,0.96135,6156.042
579,0.963017,6192.103
580,0.964683,6225.333
581,0.96635,6259.233
582,0.968017,6259.233
583,0.969683,6290.898
584,0.971333,6320.179
585,0.973067,6348.342
586,0.974667,6348.342
587,0.976333,6371.29
588,0.978,6393.567
589,0.979683,6413.385
590,0.981333,6413.385
591,0.983,6430
592,0.984683,6446.168
593,0.986317,6457.12
594,0.9879829999999999,6457.12
595,0.989717,6467.029
596,0.991317,6473.958
597,0.9929829999999999,6473.958
598,0.99465,6479.397
599,0.996317,6483.271
600,0.997983,6489.456
601,0.99965,6489.456
602,1.001317,6492.287
603,1.002983,6489.307
604,1.00465,6485.582
605,1.006417,6485.582
606,1.007983,6475.225
607,1.00965,6464.571
608,1.011317,6456.673
609,1.012983,6456.673
610,1.01465,6444.082
611,1.016317,6428.659
612,1.017983,6428.659
613,1.01965,6410.852
614,1.021317,6390.512
615,1.023,6372.705
616,1.02465,6372.705
617,1.026317,6350.651
618,1.027983,6331.206
619,1.029633,6308.779
620,1.0313,6308.779
621,1.032967,6282.33
622,1.034633,6260.052
623,1.0363,6232.783
624,1.037967,6232.783
625,1.039633,6203.577
626,1.0413,6174.668
627,1.042967,6174.668
628,1.044633,6142.557
629,1.0463,6113.872
630,1.047967,6085.858
631,1.049633,6085.858
632,1.0513,6054.267
633,1.052967,6020.963
634,1.05465,5983.04
635,1.05635,5983.04
636,1.057967,5944.818
637,1.059633,5910.248
638,1.0613,5877.986
639,1.062967,5877.986
640,1.064633,5844.235
641,1.0663,5808.919
642,1.067967,5773.38
643,1.069633,5773.38
644,1.0713,5736.425
645,1.072967,5701.035
646,1.074633,5701.035
647,1.0763,5667.806
648,1.077967,5631.596
649,1.079633,5595.535
650,1.0813,5595.535
651,1.082967,5561.858
652,1.084633,5523.19
653,1.0863,5486.906
654,1.087967,5486.906
655,1.089633,5453.899
656,1.091383,5415.901
657,1.09295,5380.288
658,1.094617,5380.288
659,1.096283,5348.548
660,1.09795,5314.648
661,1.099617,5314.648
662,1.101283,5283.803
663,1.10295,5253.106
664,1.104617,5220.771
665,1.106283,5220.771
666,1.10795,5184.859
667,1.109617,5149.022
668,1.111283,5116.984
669,1.11295,5116.984
670,1.114617,5082.488
671,1.116283,5049.557
672,1.11795,5019.531
673,1.119617,5019.531
674,1.121283,4984.811
675,1.12295,4950.464
676,1.124733,4918.352
677,1.126283,4918.352
678,1.12795,4887.283
679,1.129617,4857.108
680,1.131283,4857.108
681,1.13295,4829.839
682,1.134617,4803.836
683,1.1363,4773.438
684,1.13795,4773.438
685,1.139617,4744.157
686,1.141283,4714.355
687,1.14295,4685.074
688,1.144617,4685.074
689,1.146283,4657.954
690,1.14795,4631.579
691,1.149617,4603.714
692,1.151283,4603.714
693,1.152933,4575.849
694,1.1546,4549.474
695,1.156267,4549.474
696,1.157933,4522.651
697,1.1596,4496.649
698,1.161267,4470.274
699,1.162933,4470.274
700,1.1646,4443.75
701,1.166267,4419.759
702,1.167933,4396.066
703,1.1696,4396.066
704,1.171267,4373.789
705,1.172933,4350.319
706,1.1746,4327.074
707,1.176267,4327.074
708,1.177933,4300.848
709,1.1796,4274.696
710,1.181267,4253.015
711,1.182933,4253.015
712,1.1846,4229.695
713,1.186267,4212.26
714,1.187933,4212.26
715,1.1896,4194.23
716,1.191267,4171.356
717,1.192933,4151.091
718,1.1946,4151.091
719,1.196267,4126.131
720,1.197933,4104.376
721,1.1996,4085.004
722,1.201267,4085.004
723,1.202933,4061.982
724,1.2046,4044.026
725,1.206283,4021.972
726,1.207933,4021.972
727,1.209617,3999.919
728,1.21125,3980.696
729,1.212917,3980.696
730,1.214583,3962.144
731,1.21625,3941.581
732,1.217917,3919.974
733,1.219583,3919.974
734,1.22125,3899.932
735,1.222917,3877.58
736,1.224583,3859.401
737,1.22625,3859.401
738,1.227917,3846.437
739,1.229583,3832.057
740,1.23125,3817.826
741,1.232917,3817.826
742,1.234583,3803.223
743,1.23625,3782.883
744,1.237917,3761.798
745,1.239583,3761.798
746,1.24125,3743.917
747,1.243017,3726.259
748,1.244583,3726.259
749,1.24625,3710.389
750,1.247917,3696.084
751,1.249583,3677.16
752,1.251267,3677.16
753,1.252917,3661.588
754,1.254583,3646.761
755,1.25625,3631.562
756,1.257917,3631.562
757,1.259583,3616.363
758,1.26125,3601.611
759,1.262917,3586.188
760,1.264583,3586.188
761,1.26625,3570.989
762,1.267917,3556.609
763,1.269583,3556.609
764,1.271233,3537.759
765,1.2729,3522.262
766,1.274567,3506.69
767,1.276233,3506.69
768,1.277883,3492.385
769,1.27955,3479.347
770,1.281217,3463.999
771,1.282883,3463.999
772,1.28455,3452.301
773,1.286217,3438.89
774,1.287883,3426
775,1.28955,3426
776,1.291217,3414.601
777,1.292883,3400.967
778,1.29455,3400.967
779,1.296217,3389.12
780,1.297883,3377.572
781,1.29955,3364.98
782,1.301217,3364.98
783,1.302883,3351.048
784,1.30455,3340.095
785,1.306217,3325.79
786,1.307883,3325.79
787,1.30955,3312.603
788,1.311217,3301.725
789,1.312883,3290.325
790,1.31455,3290.325
791,1.316217,3280.416
792,1.317883,3270.73
793,1.31955,3259.48
794,1.321217,3259.48
795,1.322883,3243.908
796,1.32455,3231.54
797,1.326217,3231.54
798,1.32795,3220.96
799,1.32955,3211.871
800,1.331217,3201.44
801,1.332867,3201.44
802,1.334533,3188.178
803,1.3362,3172.606
804,1.337867,3156.96
805,1.339533,3156.96
806,1.3412,3146.38
807,1.342867,3140.047
808,1.344567,3134.087
809,1.346233,3134.087
810,1.347867,3127.53
811,1.349533,3118.068
812,1.3512,3118.068
813,1.352867,3106.371
814,1.354533,3094.226
815,1.3562,3080.443
816,1.357867,3080.443
817,1.359533,3068.149
818,1.361317,3058.016
819,1.362867,3048.629
820,1.364533,3048.629
821,1.3662,3041.551
822,1.367867,3036.186
823,1.369533,3029.183
824,1.3712,3029.183
825,1.372867,3017.932
826,1.374533,3006.235
827,1.3762,2995.953
828,1.377867,2995.953
829,1.379533,2982.393
830,1.3812,2977.55
831,1.382867,2977.55
832,1.384533,2969.578
833,1.3862,2959.818
834,1.387883,2952.516
835,1.389533,2952.516
836,1.391183,2940.446
837,1.39285,2931.505
838,1.394517,2919.286
839,1.396183,2919.286
840,1.39785,2911.165
841,1.399517,2902.597
842,1.401183,2892.092
843,1.40285,2892.092
844,1.404517,2886.728
845,1.406183,2878.83
846,1.40785,2878.83
847,1.409517,2871.156
848,1.411183,2865.791
849,1.41285,2855.957
850,1.414517,2855.957
851,1.416183,2846.494
852,1.41785,2839.565
853,1.419517,2831.072
854,1.421183,2831.072
855,1.42285,2824.813
856,1.424517,2816.841
857,1.4262,2804.473
858,1.42785,2804.473
859,1.429517,2795.011
860,1.431183,2786.592
861,1.43285,2777.949
862,1.434517,2777.949
863,1.436183,2772.361
864,1.43785,2768.71
865,1.439517,2768.71
866,1.441183,2762.675
867,1.44285,2755.97
868,1.444517,2751.052
869,1.446233,2751.052
870,1.44785,2742.261
871,1.4495,2733.693
872,1.451167,2726.913
873,1.452833,2726.913
874,1.4545,2717.972
875,1.456167,2709.776
876,1.457833,2704.412
877,1.4595,2704.412
878,1.461167,2697.706
879,1.462833,2691.15
880,1.4645,2691.15
881,1.466167,2684.817
882,1.467833,2677.888
883,1.4695,2671.629
884,1.471167,2671.629
885,1.472833,2664.849
886,1.4745,2658.367
887,1.476167,2651.289
888,1.477833,2651.289
889,1.4796,2648.234
890,1.481167,2642.05
891,1.482833,2637.803
892,1.4845,2637.803
893,1.486167,2633.557
894,1.487833,2627.373
895,1.489517,2622.604
896,1.491167,2622.604
897,1.492833,2615.675
898,1.4945,2610.013
899,1.496167,2610.013
900,1.497833,2602.637
901,1.4995,2597.198
902,1.501167,2591.535
903,1.502833,2591.535
904,1.5045,2586.543
905,1.506167,2577.23
906,1.507833,2570.45
907,1.5095,2570.45
908,1.51115,2563.298
909,1.512817,2556.22
910,1.514483,2551.004
911,1.51615,2551.004
912,1.517817,2546.683
913,1.519483,2541.319
914,1.52115,2541.319
915,1.522817,2534.539
916,1.524483,2532.154
917,1.52615,2527.013
918,1.527817,2527.013
919,1.529483,2522.543
920,1.53115,2518.222
921,1.532817,2512.708
