"ID","sea_time","fid_signal"
1,0,1178.384
2,0.001667,1178.086
3,0.003333,1177.341
4,0.005,1177.937
5,0.006667,1177.937
6,0.008333,1175.776
7,0.01,1174.435
8,0.011667,1174.435
9,0.013333,1174.36
10,0.015,1173.392
11,0.016667,1175.255
12,0.018333,1175.255
13,0.02,1173.913
14,0.021667,1172.721
15,0.023333,1172.349
16,0.025,1172.349
17,0.026667,1169.592
18,0.028317,1171.827
19,0.030017,1174.733
20,0.03165,1174.733
21,0.033317,1174.733
22,0.034983,1176
23,0.03665,1176
24,0.038317,1171.902
25,0.039983,1169.592
26,0.04165,1171.529
27,0.043333,1171.529
28,0.044983,1169.89
29,0.04665,1173.317
30,0.048317,1174.435
31,0.049983,1174.435
32,0.05165,1172.274
33,0.053317,1172.051
34,0.054983,1165.941
35,0.056717,1165.941
36,0.058317,1161.173
37,0.059983,1159.906
38,0.06165,1159.906
39,0.063317,1164.228
40,0.064983,1170.114
41,0.06665,1173.541
42,0.068317,1173.541
43,0.069983,1174.286
44,0.07165000000000001,1169.965
45,0.07331699999999999,1167.133
46,0.07498299999999999,1167.133
47,0.07665,1167.879
48,0.078317,1169.071
49,0.079983,1172.274
50,0.08165,1172.274
51,0.083317,1171.455
52,0.084983,1169.443
53,0.08665,1166.537
54,0.0883,1166.537
55,0.0901,1162.738
56,0.09163300000000001,1165.494
57,0.09329999999999999,1165.494
58,0.094967,1166.239
59,0.096633,1169.294
60,0.0983,1172.051
61,0.099967,1172.051
62,0.101633,1171.902
63,0.1033,1175.255
64,0.104983,1173.392
65,0.106633,1173.392
66,0.1083,1174.882
67,0.109967,1172.423
68,0.111633,1168.698
69,0.1133,1168.698
70,0.114967,1168.251
71,0.116633,1166.612
72,0.1183,1166.612
73,0.119967,1169.443
74,0.121633,1173.094
75,0.1233,1175.106
76,0.124967,1175.106
77,0.126633,1174.36
78,0.1283,1173.913
79,0.129967,1170.114
80,0.13165,1170.114
81,0.1333,1170.933
82,0.134967,1171.827
83,0.136633,1173.466
84,0.1383,1173.466
85,0.139967,1173.392
86,0.141633,1174.807
87,0.1433,1174.063
88,0.144967,1174.063
89,0.146633,1173.317
90,0.148283,1174.137
91,0.14995,1174.137
92,0.151617,1172.87
93,0.153283,1174.137
94,0.15495,1173.466
95,0.156617,1173.466
96,0.158283,1173.988
97,0.15995,1173.541
98,0.161617,1174.137
99,0.163283,1174.137
100,0.16495,1172.945
101,0.166617,1171.306
102,0.168283,1168.922
103,0.16995,1168.922
104,0.17165,1167.059
105,0.173283,1169.22
106,0.175,1172.572
107,0.176617,1172.572
108,0.178283,1173.69
109,0.17995,1173.839
110,0.181617,1173.839
111,0.183283,1172.647
112,0.18495,1171.827
113,0.186617,1172.349
114,0.188283,1172.349
115,0.18995,1173.913
116,0.191617,1172.721
117,0.193283,1173.615
118,0.19495,1173.615
119,0.196617,1172.721
120,0.198283,1167.655
121,0.19995,1168.4
122,0.201617,1168.4
123,0.203283,1169.592
124,0.204933,1169.89
125,0.2066,1169.89
126,0.2084,1172.2
127,0.209933,1170.933
128,0.2116,1167.208
129,0.213267,1167.208
130,0.214933,1170.114
131,0.216617,1172.721
132,0.218267,1177.49
133,0.219933,1177.49
134,0.2216,1179.352
135,0.223267,1178.682
136,0.224917,1179.054
137,0.2266,1179.054
138,0.22825,1177.192
139,0.229917,1175.106
140,0.231583,1175.106
141,0.23325,1173.69
142,0.234917,1174.435
143,0.236583,1172.572
144,0.23825,1172.572
145,0.239917,1175.106
146,0.241583,1173.988
147,0.24325,1171.753
148,0.244917,1171.753
149,0.246583,1173.69
150,0.24825,1174.659
151,0.249917,1175.404
152,0.251583,1175.404
153,0.25325,1173.466
154,0.254917,1171.157
155,0.256583,1171.157
156,0.25825,1169.667
157,0.259917,1172.498
158,0.261583,1172.796
159,0.26325,1172.796
160,0.264917,1172.423
161,0.266567,1172.423
162,0.268233,1170.337
163,0.2699,1170.337
164,0.271567,1171.827
165,0.273233,1174.212
166,0.2749,1171.306
167,0.276567,1171.306
168,0.278233,1168.251
169,0.2799,1167.58
170,0.281567,1165.047
171,0.283233,1165.047
172,0.2849,1165.494
173,0.286567,1165.494
174,0.288233,1165.494
175,0.2899,1164.377
176,0.291567,1166.165
177,0.293267,1166.91
178,0.2949,1166.91
179,0.296567,1169.071
180,0.298233,1173.243
181,0.2999,1174.137
182,0.301567,1174.137
183,0.303233,1175.404
184,0.304933,1176.074
185,0.306567,1172.498
186,0.308233,1172.498
187,0.309967,1170.561
188,0.311567,1171.082
189,0.31325,1171.082
190,0.31495,1168.996
191,0.316567,1171.529
192,0.318233,1174.51
193,0.3199,1174.51
194,0.321567,1176.372
195,0.323233,1179.65
196,0.3249,1178.16
197,0.326683,1178.16
198,0.328217,1175.851
199,0.329883,1173.317
200,0.33155,1173.615
201,0.333217,1173.615
202,0.334883,1174.733
203,0.33655,1179.278
204,0.338217,1184.046
205,0.339883,1184.046
206,0.34155,1188.293
207,0.343217,1195.148
208,0.344883,1195.148
209,0.34655,1200.438
210,0.348217,1203.418
211,0.349883,1208.708
212,0.35155,1208.708
213,0.353217,1216.233
214,0.354883,1227.111
215,0.35655,1242.98
216,0.358217,1242.98
217,0.359883,1260.34
218,0.36155,1280.308
219,0.363217,1301.169
220,0.364883,1301.169
221,0.36655,1329.109
222,0.368217,1360.774
223,0.369883,1360.774
224,0.37155,1394.898
225,0.373217,1438.111
226,0.374883,1482.219
227,0.37655,1482.219
228,0.378217,1530.722
229,0.379883,1589.581
230,0.38155,1651.421
231,0.383217,1651.421
232,0.384883,1723.468
233,0.38655,1805.723
234,0.3882,1891.926
235,0.3899,1891.926
236,0.3916,1990.944
237,0.3932,2101.734
238,0.394867,2227.351
239,0.396533,2227.351
240,0.3982,2371.818
241,0.399867,2530.292
242,0.401533,2530.292
243,0.4032,2707.839
244,0.404867,2912.059
245,0.406533,3148.243
246,0.4082,3148.243
247,0.409867,3432.557
248,0.41155,3776.252
249,0.4132,4197.21
250,0.414867,4197.21
251,0.416533,4715.845
252,0.4182,5354.285
253,0.419867,6141.812
254,0.421533,6141.812
255,0.4232,7100.403
256,0.424867,8261.65
257,0.426533,8261.65
258,0.428283,9647.012000000001
259,0.429867,11278.838
260,0.431533,13172.328
261,0.4332,13172.328
262,0.434867,15330.017
263,0.436533,17752.723
264,0.4382,20421.668
265,0.439867,20421.668
266,0.441533,23303.777
267,0.4432,26358.143
268,0.44495,29512.645
269,0.446517,29512.645
270,0.448183,32689.496
271,0.44985,35804.66
272,0.451517,35804.66
273,0.453183,38769.766
274,0.45485,41499.883
275,0.456517,43919.98
276,0.458183,43919.98
277,0.45985,45967.324
278,0.461517,47594.012
279,0.463183,48779.621
280,0.46485,48779.621
281,0.466533,49508.883
282,0.4682,49795.063
283,0.46985,49662.07
284,0.471517,49662.07
285,0.473183,49143.957
286,0.47485,48288.926
287,0.476517,47144.367
288,0.478183,47144.367
289,0.47985,45754.461
290,0.481517,44173.82
291,0.483183,44173.82
292,0.48485,42455.344
293,0.486517,40640.457
294,0.488183,38779.75
295,0.48985,38779.75
296,0.491517,36898.852
297,0.493183,35032.109
298,0.49485,33204.184
299,0.496517,33204.184
300,0.498183,31426.996
301,0.49985,29719.621
302,0.501517,28088.465
303,0.503183,28088.465
304,0.50485,26539.043
305,0.506517,25073.887
306,0.508167,25073.887
307,0.509833,23694.262
308,0.5115,22397.861
309,0.513167,21185.279
310,0.514833,21185.279
311,0.516483,20051.971
312,0.51815,18996.82
313,0.519817,18009.693
314,0.521483,18009.693
315,0.52315,17090.439
316,0.524817,16229.973
317,0.526483,15426.353
318,0.5281670000000001,15426.353
319,0.529817,14677.793
320,0.531483,13977.215
321,0.53315,13324.842
322,0.534817,13324.842
323,0.536483,12710.467
324,0.53815,12135.878
325,0.539817,12135.878
326,0.541483,11593.997
327,0.54315,11081.621
328,0.544817,10607.242
329,0.546567,10607.242
330,0.54815,10159.09
331,0.549817,9738.355
332,0.5514829999999999,9349.286
333,0.55315,9349.286
334,0.554817,8976.311
335,0.5564829999999999,8625.09
336,0.55815,8293.092000000001
337,0.559817,8293.092000000001
338,0.561483,7977.039
339,0.563233,7680.356
340,0.564817,7680.356
341,0.566483,7398.203
342,0.568133,7130.206
343,0.5698,6876.066
344,0.5714669999999999,6876.066
345,0.573133,6634.593
346,0.5748,6406.605
347,0.576467,6189.495
348,0.578133,6189.495
349,0.579933,5982.369
350,0.581467,5786.792
351,0.583133,5601.942
352,0.5848,5601.942
353,0.586467,5427.078
354,0.588133,5260.11
355,0.5898,5097.687
356,0.591467,5097.687
357,0.593133,4942.715
358,0.5948,4793.406
359,0.596467,4793.406
360,0.598133,4651.621
361,0.5998,4519.299
362,0.601467,4390.925
363,0.603133,4390.925
364,0.6048,4269.48
365,0.606467,4155.487
366,0.608133,4043.579
367,0.6098,4043.579
368,0.611467,3936.365
369,0.613133,3833.1
370,0.6148,3733.784
371,0.616467,3733.784
372,0.618133,3640.726
373,0.6198,3549.531
374,0.621467,3549.531
375,0.623133,3461.614
376,0.6248,3378.987
377,0.626467,3298.595
378,0.6281330000000001,3298.595
379,0.629783,3223.941
380,0.63145,3154.278
381,0.633117,3083.944
382,0.634783,3083.944
383,0.63645,3017.56
384,0.638117,2954.528
385,0.639783,2895.37
386,0.64145,2895.37
387,0.643117,2838.299
388,0.644783,2782.866
389,0.64645,2782.866
390,0.6481170000000001,2732.128
391,0.649783,2680.495
392,0.65145,2628.863
393,0.6531169999999999,2628.863
394,0.654783,2582.818
395,0.65645,2534.688
396,0.658117,2492.219
397,0.659783,2492.219
398,0.66145,2451.762
399,0.663117,2409.071
400,0.6647999999999999,2367.497
401,0.66645,2367.497
402,0.668117,2324.581
403,0.669783,2287.924
404,0.67145,2251.938
405,0.673117,2251.938
406,0.674783,2217.814
407,0.67645,2184.734
408,0.678117,2184.734
409,0.679783,2154.559
410,0.681467,2126.768
411,0.683117,2099.126
412,0.684783,2099.126
413,0.686433,2072.528
414,0.6881,2041.236
415,0.689767,2011.433
416,0.691433,2011.433
417,0.6931,1988.411
418,0.694767,1966.506
419,0.696433,1944.453
420,0.698217,1944.453
421,0.699767,1923.442
422,0.701433,1899.6
423,0.7030999999999999,1899.6
424,0.704767,1878.738
425,0.706433,1858.845
426,0.7081,1839.101
427,0.709767,1839.101
428,0.711433,1818.687
429,0.7131,1798.645
430,0.714767,1781.21
431,0.716433,1781.21
432,0.7181,1763.18
433,0.7198,1748.577
434,0.721433,1733.154
435,0.7231,1733.154
436,0.7247670000000001,1716.763
437,0.726433,1702.905
438,0.7281,1688.525
439,0.7297670000000001,1688.525
440,0.731433,1676.679
441,0.7331,1666.173
442,0.7347669999999999,1666.173
443,0.736433,1651.57
444,0.7381,1638.01
445,0.739767,1621.544
446,0.741433,1621.544
447,0.7431,1605.526
448,0.744783,1594.201
449,0.746433,1585.782
450,0.7480830000000001,1585.782
451,0.74975,1576.468
452,0.751417,1568.422
453,0.7530829999999999,1560.375
454,0.75475,1560.375
455,0.756417,1550.093
456,0.758083,1542.419
457,0.75975,1542.419
458,0.761417,1532.659
459,0.763083,1524.016
460,0.76475,1511.052
461,0.766417,1511.052
462,0.768083,1500.025
463,0.76975,1490.34
464,0.771417,1482.591
465,0.773083,1482.591
466,0.77475,1480.281
467,0.776417,1475.215
468,0.778083,1468.733
469,0.7797500000000001,1468.733
470,0.781417,1460.537
471,0.7831,1452.342
472,0.7847499999999999,1441.985
473,0.786417,1441.985
474,0.788083,1436.472
475,0.78975,1431.704
476,0.791417,1431.704
477,0.793083,1421.869
478,0.79475,1416.653
479,0.796417,1412.854
480,0.798083,1412.854
481,0.799767,1407.415
482,0.801417,1407.117
483,0.803083,1403.615
484,0.80475,1403.615
485,0.8064,1397.952
486,0.80805,1392.067
487,0.809717,1383.722
488,0.811383,1383.722
489,0.8130500000000001,1378.655
490,0.814717,1373.589
491,0.8165,1368.299
492,0.8180500000000001,1368.299
493,0.819733,1367.331
494,0.821383,1364.052
495,0.8230499999999999,1364.052
496,0.824717,1361.817
497,0.826383,1356.676
498,0.82805,1353.1
499,0.829717,1353.1
500,0.831383,1350.418
501,0.83305,1343.787
502,0.834717,1341.626
503,0.836383,1341.626
504,0.83805,1339.018
505,0.839717,1337.007
506,0.841383,1337.007
507,0.84305,1335.591
508,0.8447170000000001,1334.324
509,0.846383,1328.811
510,0.84805,1328.811
511,0.8497169999999999,1321.211
512,0.851383,1317.784
513,0.85305,1315.027
514,0.8547169999999999,1315.027
515,0.856383,1311.004
516,0.85805,1311.526
517,0.859717,1307.353
518,0.861383,1307.353
519,0.86305,1305.64
520,0.864717,1305.267
521,0.866383,1301.393
522,0.8680330000000001,1301.393
523,0.8697,1301.84
524,0.871367,1298.413
525,0.8730329999999999,1298.413
526,0.8747,1295.656
527,0.876367,1294.538
528,0.878033,1292.303
529,0.8797,1292.303
530,0.881367,1288.578
531,0.883033,1287.237
532,0.8847,1282.096
533,0.886367,1282.096
534,0.888033,1278.222
535,0.8897,1277.998
536,0.891367,1275.092
537,0.893033,1275.092
538,0.8947000000000001,1275.465
539,0.896367,1274.422
540,0.898033,1274.422
541,0.8997000000000001,1272.038
542,0.901417,1268.759
543,0.903033,1268.089
544,0.9046999999999999,1268.089
545,0.906367,1267.046
546,0.908033,1266.971
547,0.9097,1266.003
548,0.911367,1266.003
549,0.913033,1263.618
550,0.9147,1260.415
551,0.916367,1257.807
552,0.918033,1257.807
553,0.9197,1257.658
554,0.921367,1257.136
555,0.923033,1258.105
556,0.9247,1258.105
557,0.92635,1255.572
558,0.928017,1254.007
559,0.929683,1254.007
560,0.93135,1250.282
561,0.933017,1244.694
562,0.9348,1243.427
563,0.93635,1243.427
564,0.938017,1240.298
565,0.939683,1240.373
566,0.94135,1240.075
567,0.943017,1240.075
568,0.9446830000000001,1236.498
569,0.94635,1233.891
570,0.948017,1231.656
571,0.9496830000000001,1231.656
572,0.95135,1231.581
573,0.953017,1233.667
574,0.9546829999999999,1233.667
575,0.95635,1235.977
576,0.958017,1231.804
577,0.959683,1228.973
578,0.961367,1228.973
579,0.963017,1227.111
580,0.964733,1227.558
581,0.96635,1230.389
582,0.968017,1230.389
583,0.969683,1230.612
584,0.97135,1231.432
585,0.973017,1228.452
586,0.974683,1228.452
587,0.9763500000000001,1229.048
588,0.978017,1228.824
589,0.979683,1229.048
590,0.9813499999999999,1229.048
591,0.983017,1229.942
592,0.984667,1229.718
593,0.986333,1229.718
594,0.988,1229.644
595,0.989667,1226.515
596,0.991333,1224.354
597,0.993,1224.354
598,0.994667,1224.279
599,0.996333,1223.609
600,0.998,1222.193
601,0.999667,1222.193
602,1.001333,1222.342
603,1.003,1220.033
604,1.004667,1222.64
605,1.006333,1222.64
606,1.008,1220.48
607,1.009667,1220.256
608,1.011333,1220.256
609,1.013,1220.107
610,1.014667,1218.542
611,1.016333,1224.354
612,1.018,1224.354
613,1.019733,1222.938
614,1.021333,1221.895
615,1.023017,1219.734
616,1.024667,1219.734
617,1.026333,1218.244
618,1.028,1219.139
619,1.029667,1216.531
620,1.03135,1216.531
621,1.033,1216.233
622,1.034667,1214.445
623,1.036333,1214.445
624,1.038,1214.743
625,1.039667,1216.382
626,1.041333,1218.17
627,1.043,1218.17
628,1.044667,1215.488
629,1.046317,1211.166
630,1.047983,1209.825
631,1.04965,1209.825
632,1.051317,1209.229
633,1.05305,1209.304
634,1.05465,1210.272
635,1.056317,1210.272
636,1.057983,1210.57
637,1.05965,1207.963
638,1.061317,1208.931
639,1.062983,1208.931
640,1.06465,1208.782
641,1.066317,1205.951
642,1.067983,1205.951
643,1.06965,1203.641
644,1.071317,1202.896
645,1.072983,1204.014
646,1.07465,1204.014
647,1.076317,1207.814
648,1.077983,1210.049
649,1.07965,1207.739
650,1.081317,1207.739
651,1.082983,1204.312
652,1.08465,1202.375
653,1.086317,1201.481
654,1.087983,1201.481
655,1.08965,1201.779
656,1.091317,1201.853
657,1.092983,1201.853
658,1.09465,1201.034
659,1.096317,1198.5
660,1.097983,1197.83
661,1.09965,1197.83
662,1.1013,1198.649
663,1.102967,1198.947
664,1.104617,1200.587
665,1.106283,1200.587
666,1.10795,1201.257
667,1.109617,1200.512
668,1.111283,1200.14
669,1.11295,1200.14
670,1.114617,1199.693
671,1.116283,1199.543
672,1.117967,1198.947
673,1.119617,1198.947
674,1.121283,1199.245
675,1.12295,1198.873
676,1.124617,1198.873
677,1.126283,1198.351
678,1.12795,1196.787
679,1.129617,1195.669
680,1.131283,1195.669
681,1.13295,1196.191
682,1.134617,1195.595
683,1.136283,1198.426
684,1.138,1198.426
685,1.139617,1194.999
686,1.141283,1191.497
687,1.14295,1191.199
688,1.144617,1191.199
689,1.146283,1191.646
690,1.14795,1193.807
691,1.149617,1193.807
692,1.151283,1198.351
693,1.15295,1198.798
694,1.154617,1199.916
695,1.156283,1199.916
696,1.15795,1202.524
697,1.159617,1202.002
698,1.161283,1202.673
699,1.16295,1202.673
700,1.1646,1199.245
701,1.166267,1195.818
702,1.167933,1194.85
703,1.1696,1194.85
704,1.171333,1193.062
705,1.172933,1191.571
706,1.1746,1191.571
707,1.176267,1191.571
708,1.177933,1190.454
709,1.1796,1189.262
710,1.181267,1189.262
711,1.182933,1191.72
712,1.1846,1192.763
713,1.186267,1191.869
714,1.187933,1191.869
715,1.1896,1194.179
716,1.191267,1194.924
717,1.192933,1196.414
718,1.1946,1196.414
719,1.196267,1197.383
720,1.19795,1197.01
721,1.1996,1194.104
722,1.201267,1194.104
723,1.202933,1194.552
724,1.2046,1197.085
725,1.206283,1197.085
726,1.207933,1195.669
727,1.2096,1196.712
728,1.211267,1194.104
729,1.212933,1194.104
730,1.2146,1191.422
731,1.216267,1192.763
732,1.217933,1192.614
733,1.2196,1192.614
734,1.221267,1193.359
735,1.222933,1195.446
736,1.2246,1194.85
737,1.226267,1194.85
738,1.227917,1197.159
739,1.229583,1194.999
740,1.23125,1194.999
741,1.232917,1192.763
742,1.234583,1191.422
743,1.23625,1190.007
744,1.237917,1190.007
745,1.239583,1190.156
746,1.24125,1187.399
747,1.242917,1187.399
748,1.244583,1187.399
749,1.24625,1187.772
750,1.247917,1185.536
751,1.249583,1183.897
752,1.25125,1183.897
753,1.252917,1183.897
754,1.254583,1180.097
755,1.25625,1183.823
756,1.257917,1183.823
757,1.259583,1186.803
758,1.26125,1185.387
759,1.262917,1185.387
760,1.264583,1185.164
761,1.26625,1182.78
762,1.267917,1182.035
763,1.269583,1182.035
764,1.27125,1182.482
765,1.272917,1184.94
766,1.274583,1185.536
767,1.27625,1185.536
768,1.277917,1186.952
769,1.279583,1187.548
770,1.28125,1185.983
771,1.282917,1185.983
772,1.284583,1185.983
773,1.286233,1186.505
774,1.2879,1186.505
775,1.289567,1186.579
776,1.29125,1186.132
777,1.2929,1185.909
778,1.294567,1185.909
779,1.296233,1186.132
780,1.2979,1185.164
781,1.299567,1186.058
782,1.301233,1186.058
783,1.3029,1184.344
784,1.304567,1184.344
785,1.30635,1184.046
786,1.3079,1184.046
787,1.309567,1183.525
788,1.311233,1185.238
789,1.3129,1185.611
790,1.314583,1185.611
791,1.316233,1189.634
792,1.3179,1188.815
793,1.319567,1188.815
794,1.321233,1191.273
795,1.3229,1188.07
796,1.324567,1184.791
797,1.326233,1184.791
798,1.3279,1185.462
799,1.329567,1183.674
800,1.331233,1184.642
801,1.3329,1184.642
802,1.334567,1185.164
803,1.336233,1186.803
804,1.3379,1187.548
805,1.339567,1187.548
806,1.341233,1187.921
807,1.3429,1187.846
808,1.344567,1187.846
809,1.346217,1185.76
810,1.347883,1185.238
811,1.34955,1183.525
812,1.351217,1183.525
813,1.352883,1183.078
814,1.35455,1182.929
815,1.356217,1183.972
816,1.357883,1183.972
817,1.35955,1186.877
818,1.361217,1185.76
819,1.362883,1186.505
820,1.36455,1186.505
821,1.366217,1181.811
822,1.367883,1179.352
823,1.36955,1180.246
824,1.371217,1180.246
825,1.372917,1179.427
826,1.37455,1182.184
827,1.376217,1182.184
828,1.377883,1182.929
829,1.37955,1185.462
830,1.381217,1188.591
831,1.382883,1188.591
832,1.38455,1190.007
833,1.386217,1189.262
834,1.387883,1187.101
835,1.38955,1187.101
836,1.391267,1183.45
837,1.392867,1182.407
838,1.394533,1180.992
839,1.3962,1180.992
840,1.397867,1180.693
841,1.399533,1182.482
842,1.4012,1182.482
843,1.402867,1182.109
844,1.404517,1182.482
845,1.406183,1184.493
846,1.407933,1184.493
847,1.409517,1183.078
848,1.411183,1182.258
849,1.41285,1182.705
850,1.414517,1182.705
851,1.416183,1180.545
852,1.41785,1180.47
853,1.419517,1179.203
854,1.421183,1179.203
855,1.42285,1180.023
856,1.42465,1180.172
857,1.426183,1180.172
858,1.42785,1180.023
859,1.429517,1179.948
860,1.431183,1178.607
861,1.43285,1178.607
862,1.434517,1179.576
863,1.436183,1182.035
864,1.43785,1184.419
865,1.439517,1184.419
866,1.441183,1188.144
867,1.44285,1186.952
868,1.444517,1184.046
869,1.446183,1184.046
870,1.44785,1182.854
871,1.449517,1177.341
872,1.451183,1176.894
873,1.45285,1176.894
874,1.454533,1176.745
875,1.456183,1177.639
876,1.457883,1177.639
877,1.459517,1176.894
878,1.461183,1176.745
879,1.46285,1176.223
880,1.464517,1176.223
881,1.466167,1175.255
882,1.467833,1179.352
883,1.4695,1179.948
884,1.471167,1179.948
885,1.472833,1182.854
886,1.4745,1185.238
887,1.476167,1184.493
888,1.477833,1184.493
889,1.4795,1184.493
890,1.481167,1181.141
891,1.482833,1181.141
892,1.4845,1176.298
893,1.486167,1174.733
894,1.487833,1175.106
895,1.4895,1175.106
896,1.491167,1177.043
897,1.492833,1179.278
898,1.4945,1184.568
899,1.496167,1184.568
900,1.497833,1182.631
901,1.4995,1180.321
902,1.501167,1180.396
903,1.502833,1180.396
904,1.5045,1173.988
905,1.506167,1174.286
906,1.507833,1177.639
907,1.509567,1177.639
908,1.511167,1181.141
909,1.512833,1182.035
910,1.5145,1182.035
911,1.516167,1182.929
912,1.517833,1182.258
913,1.5195,1181.662
914,1.521167,1181.662
915,1.522833,1184.121
916,1.5245,1182.705
