"ID","sea_time","fid_signal"
1,0,145.979
2,0.001667,146.076
3,0.003333,146.076
4,0.00505,146.3
5,0.006667,146.329
6,0.008333,146.329
7,0.01,145.771
8,0.011667,145.07
9,0.013333,144.43
10,0.015017,144.43
11,0.016667,143.893
12,0.018333,144.266
13,0.02,144.742
14,0.021667,144.742
15,0.023333,144.891
16,0.025,145.301
17,0.026667,145.13
18,0.028333,145.13
19,0.03,145.13
20,0.03165,145.16
21,0.033317,145.16
22,0.034983,145.264
23,0.03665,145.413
24,0.038417,145.51
25,0.039983,145.51
26,0.04165,145.525
27,0.043317,145.271
28,0.044983,145.137
29,0.04665,145.137
30,0.048317,145.502
31,0.049983,145.89
32,0.05165,146.203
33,0.053317,146.203
34,0.054983,146.478
35,0.05665,146.247
36,0.058317,146.031
37,0.059983,146.031
38,0.06165,146.136
39,0.063317,146.21
40,0.064983,146.21
41,0.06665,146.307
42,0.068317,146.449
43,0.069983,146.3
44,0.07165000000000001,146.3
45,0.07331699999999999,146.352
46,0.07498299999999999,146.061
47,0.07665,145.987
48,0.078317,145.987
49,0.079983,145.942
50,0.08165,145.711
51,0.083317,146.143
52,0.08500000000000001,146.143
53,0.08665,145.83
54,0.08831700000000001,145.763
55,0.08996700000000001,145.763
56,0.09163300000000001,145.778
57,0.09329999999999999,145.517
58,0.094967,145.696
59,0.096633,145.696
60,0.0983,145.905
61,0.099967,145.748
62,0.101633,145.689
63,0.1033,145.689
64,0.104967,145.733
65,0.106633,145.54
66,0.1083,145.778
67,0.109967,145.778
68,0.111633,146.158
69,0.113317,146.3
70,0.114967,146.247
71,0.116633,146.247
72,0.1183,146.016
73,0.119967,145.622
74,0.121633,145.622
75,0.123317,145.309
76,0.124967,145.309
77,0.126633,145.51
78,0.1283,145.51
79,0.129967,145.42
80,0.131633,145.458
81,0.1333,145.458
82,0.134967,145.458
83,0.136633,145.45
84,0.1383,145.562
85,0.139967,145.666
86,0.141633,145.666
87,0.1433,145.599
88,0.144967,145.398
89,0.146633,145.398
90,0.1483,145.756
91,0.14995,145.972
92,0.151617,146.024
93,0.153283,146.024
94,0.15495,146.106
95,0.15675,145.681
96,0.1583,145.279
97,0.15995,145.279
98,0.161617,145.16
99,0.163283,145.264
100,0.164983,145.257
101,0.166617,145.257
102,0.168283,145.219
103,0.16995,145.338
104,0.171617,145.145
105,0.173283,145.145
106,0.17495,145.316
107,0.176617,145.786
108,0.178283,145.786
109,0.17995,146.039
110,0.181617,146.121
111,0.183283,146.098
112,0.18495,146.098
113,0.1866,145.778
114,0.188267,145.681
115,0.189933,145.718
116,0.1916,145.718
117,0.193267,145.607
118,0.194933,145.443
119,0.1966,145.428
120,0.198267,145.428
121,0.199933,145.428
122,0.201617,145.413
123,0.203267,145.413
124,0.204933,145.614
125,0.2066,145.383
126,0.208267,145.152
127,0.209933,145.152
128,0.211583,145.331
129,0.21325,145.48
130,0.214917,145.808
131,0.216583,145.808
132,0.21825,146.024
133,0.219917,145.793
134,0.221583,145.644
135,0.22325,145.644
136,0.224933,145.316
137,0.226583,145.331
138,0.22825,145.331
139,0.229917,145.368
140,0.231583,145.398
141,0.23325,145.696
142,0.234917,145.696
143,0.236583,145.48
144,0.23825,145.644
145,0.239917,145.592
146,0.241633,145.592
147,0.24325,145.175
148,0.244917,145.249
149,0.246583,145.145
150,0.24825,145.145
151,0.249917,145.018
152,0.251583,145.458
153,0.25325,145.525
154,0.254917,145.525
155,0.256583,145.487
156,0.25825,145.8
157,0.259917,145.8
158,0.261583,145.674
159,0.26325,145.584
160,0.264917,145.473
161,0.266583,145.473
162,0.26825,145.45
163,0.2699,145.257
164,0.271567,145.055
165,0.273233,145.055
166,0.275017,145.331
167,0.276567,145.301
168,0.278233,145.718
169,0.2799,145.718
170,0.281567,146.031
171,0.283233,145.651
172,0.2849,145.651
173,0.286567,145.413
174,0.288233,144.921
175,0.2899,144.817
176,0.291567,144.817
177,0.293233,144.936
178,0.2949,144.884
179,0.296583,145.406
180,0.29825,145.406
181,0.2999,145.875
182,0.301567,146.501
183,0.303233,147.268
184,0.3049,147.268
185,0.306567,147.462
186,0.308233,148.11
187,0.3099,149.086
188,0.311567,149.086
189,0.313233,150.241
190,0.3149,152.163
191,0.316567,152.163
192,0.318233,154.436
193,0.3199,157.58
194,0.321567,161.782
195,0.323233,161.782
196,0.3249,166.781
197,0.326567,172.69
198,0.328233,180.2
199,0.329883,180.2
200,0.33155,189.297
201,0.333233,200.748
202,0.334883,214.51
203,0.33655,214.51
204,0.338217,230.201
205,0.339883,248.805
206,0.34155,248.805
207,0.343217,270.106
208,0.344883,294.872
209,0.34655,323.363
210,0.348217,323.363
211,0.349883,355.542
212,0.35155,392.355
213,0.353217,433.698
214,0.354883,433.698
215,0.35655,479.676
216,0.358217,531.346
217,0.35995,588.335
218,0.36155,588.335
219,0.363217,651.628
220,0.364883,721.909
221,0.36655,799.38
222,0.36825,799.38
223,0.369883,885.352
224,0.37155,981.2190000000001
225,0.373217,981.2190000000001
226,0.374883,1088.56
227,0.3766,1209.416
228,0.378217,1346.022
229,0.379883,1346.022
230,0.38155,1501.135
231,0.383217,1678.504
232,0.384883,1882.464
233,0.38655,1882.464
234,0.388217,2117.738
235,0.389867,2389.282
236,0.391533,2702.251
237,0.3933,2702.251
238,0.394867,3061.988
239,0.396533,3472.827
240,0.3982,3472.827
241,0.399867,3938.667
242,0.401533,4462.146
243,0.4032,5043.879
244,0.404867,5043.879
245,0.406533,5684.055
246,0.4082,6380.327
247,0.409983,7128.85
248,0.411533,7128.85
249,0.4132,7924.102
250,0.414867,8758.933000000001
251,0.416533,9625.599
252,0.4182,9625.599
253,0.419867,10513.529
254,0.421533,11409.327
255,0.4232,11409.327
256,0.424867,12299.411
257,0.426533,13168.335
258,0.4282,14000.542
259,0.429867,14000.542
260,0.431533,14781.006
261,0.4332,15493.833
262,0.434867,16123.042
263,0.436533,16123.042
264,0.4382,16655.229
265,0.439867,17078.787
266,0.441533,17384.537
267,0.4432,17384.537
268,0.444867,17568.238
269,0.446533,17628.037
270,0.4482,17567.023
271,0.44985,17567.023
272,0.451517,17391.025
273,0.453183,17108.828
274,0.454867,17108.828
275,0.456517,16731.68
276,0.458183,16271.517
277,0.45985,15741.55
278,0.461517,15741.55
279,0.463183,15155.174
280,0.46485,14525.086
281,0.466517,13862.975
282,0.468183,13862.975
283,0.46985,13180.644
284,0.471517,12487.791
285,0.473183,11792.757
286,0.47485,11792.757
287,0.476517,11103.317
288,0.4782,10425.225
289,0.479833,10425.225
290,0.4815,9763.151
291,0.483167,9121.380999999999
292,0.484833,8503.393
293,0.4865,8503.393
294,0.488167,7910.729
295,0.489833,7345.147
296,0.4915,6808.02
297,0.493167,6808.02
298,0.4949,6299.451
299,0.4965,5820.319
300,0.498167,5370.527
301,0.499833,5370.527
302,0.5014999999999999,4949.682
303,0.503167,4557.468
304,0.504833,4193.09
305,0.5065,4193.09
306,0.508167,3854.528
307,0.509833,3541.946
308,0.511533,3541.946
309,0.51315,3254.019
310,0.514817,2989.516
311,0.516483,2747.864
312,0.51815,2747.864
313,0.519817,2526.246
314,0.521483,2323.575
315,0.52315,2138.741
316,0.524817,2138.741
317,0.526483,1970.44
318,0.5282829999999999,1817.495
319,0.529817,1678.683
320,0.531483,1678.683
321,0.53315,1552.947
322,0.534817,1438.774
323,0.536483,1438.774
324,0.53815,1335.144
325,0.539817,1240.797
326,0.541483,1154.654
327,0.54315,1154.654
328,0.544833,1076.572
329,0.5464830000000001,1006.007
330,0.54815,941.91
331,0.549817,941.91
332,0.5514829999999999,884.101
333,0.55315,831.768
334,0.554817,784.047
335,0.5564829999999999,784.047
336,0.55815,740.826
337,0.559817,701.167
338,0.5615,664.845
339,0.56315,664.845
340,0.564817,631.511
341,0.566483,601.217
342,0.56815,601.217
343,0.569817,573.583
344,0.5714669999999999,548.326
345,0.573133,525.199
346,0.5748,525.199
347,0.576467,504.002
348,0.578133,484.921
349,0.5798,467.524
350,0.581467,467.524
351,0.583133,451.565
352,0.5848,436.47
353,0.586467,422.269
354,0.588133,422.269
355,0.5898,409.164
356,0.591467,396.766
357,0.593133,396.766
358,0.5948,385.903
359,0.596467,375.487
360,0.598133,365.593
361,0.5998,365.593
362,0.601467,356.704
363,0.603133,348.002
364,0.6048,339.881
365,0.606467,339.881
366,0.608133,332.296
367,0.6098,325.099
368,0.611467,318.393
369,0.613167,318.393
370,0.6148,312.425
371,0.616467,306.867
372,0.618133,306.867
373,0.6198,301.801
374,0.621467,296.772
375,0.623133,291.802
376,0.6248,291.802
377,0.626467,287.414
378,0.6281330000000001,282.973
379,0.629833,279.032
380,0.631467,279.032
381,0.633117,275.552
382,0.634783,271.574
383,0.63645,268.206
384,0.638117,268.206
385,0.639783,264.898
386,0.64145,261.351
387,0.643117,258.282
388,0.644783,258.282
389,0.64655,255.056
390,0.6481170000000001,252.217
391,0.649783,252.217
392,0.651467,249.714
393,0.6531169999999999,247.329
394,0.654783,245.348
395,0.65645,245.348
396,0.658117,243.254
397,0.659783,241.011
398,0.66145,238.784
399,0.663117,238.784
400,0.664783,236.213
401,0.66645,233.822
402,0.668117,231.758
403,0.669783,231.758
404,0.67145,230.245
405,0.673117,228.941
406,0.674783,228.941
407,0.67645,227.466
408,0.678117,226.051
409,0.679783,224.397
410,0.68145,224.397
411,0.683117,222.579
412,0.684783,221.185
413,0.68645,219.725
414,0.688117,219.725
415,0.689767,218.131
416,0.691433,216.939
417,0.6931,215.553
418,0.694767,215.553
419,0.696433,214.383
420,0.6981000000000001,213.355
421,0.699767,212.185
422,0.701433,212.185
423,0.7030999999999999,211.246
424,0.704767,210.069
425,0.706433,210.069
426,0.7081,209.324
427,0.709767,208.348
428,0.711433,207.096
429,0.713117,207.096
430,0.714767,206.299
431,0.716433,205.211
432,0.7181,204.355
433,0.719767,204.355
434,0.721433,203.826
435,0.7231,202.723
436,0.7247670000000001,201.62
437,0.726433,201.62
438,0.7281,200.637
439,0.7297670000000001,199.713
440,0.731433,199.713
441,0.7331,199.117
442,0.7347669999999999,198.595
443,0.736433,198.126
444,0.7381,198.126
445,0.739767,197.425
446,0.741433,196.509
447,0.7431,195.377
448,0.744767,195.377
449,0.746433,194.594
450,0.7480830000000001,193.782
451,0.74975,192.933
452,0.751417,192.933
453,0.7530829999999999,192.367
454,0.75475,191.554
455,0.756417,190.839
456,0.758083,190.839
457,0.75975,190.467
458,0.761417,189.893
459,0.763083,189.893
460,0.764867,189.409
461,0.766417,189.014
462,0.768083,188.485
463,0.769733,188.485
464,0.7714,188.276
465,0.7730669999999999,187.822
466,0.774733,187.315
467,0.7764,187.315
468,0.778067,187.017
469,0.779733,186.257
470,0.7814,185.706
471,0.783067,185.706
472,0.784733,185.43
473,0.7864,185.08
474,0.788067,185.08
475,0.789733,184.938
476,0.791417,184.61
477,0.793067,184.208
478,0.794733,184.208
479,0.7964,183.553
480,0.798067,183.083
481,0.799733,182.614
482,0.8014,182.614
483,0.803067,181.831
484,0.804733,181.496
485,0.8064,181.071
486,0.808067,181.071
487,0.809733,180.811
488,0.811383,180.461
489,0.8130500000000001,180.461
490,0.814717,179.961
491,0.816383,179.537
492,0.8180500000000001,179.045
493,0.819717,179.045
494,0.821383,179.008
495,0.8230499999999999,179.127
496,0.824717,178.896
497,0.826383,178.896
498,0.82805,178.434
499,0.829717,177.95
500,0.831383,177.257
501,0.83305,177.257
502,0.834717,176.676
503,0.836383,176.37
504,0.83805,175.923
505,0.839717,175.923
506,0.841383,175.864
507,0.84305,175.67
508,0.8447170000000001,175.67
509,0.846383,175.469
510,0.84805,175.461
511,0.8497169999999999,174.984
512,0.851383,174.984
513,0.85305,174.917
514,0.8547169999999999,174.895
515,0.856383,174.373
516,0.85805,174.373
517,0.859717,173.889
518,0.861383,173.517
519,0.863067,172.943
520,0.864717,172.943
521,0.866417,172.749
522,0.86805,172.667
523,0.8697,172.667
524,0.871367,172.302
525,0.8730329999999999,172.123
526,0.8747,172.004
527,0.876367,172.004
528,0.878033,171.892
529,0.8797,171.624
530,0.881367,171.363
531,0.883167,171.363
532,0.8847,170.968
533,0.886367,170.529
534,0.888033,170.223
535,0.8897,170.223
536,0.891367,169.806
537,0.893033,169.553
538,0.8947000000000001,169.687
539,0.896367,169.687
540,0.898033,169.903
541,0.8997000000000001,170.186
542,0.901367,170.186
543,0.903033,170.246
544,0.9046999999999999,169.873
545,0.906367,169.426
546,0.908033,169.426
547,0.9097,169.151
548,0.911367,168.957
549,0.913033,168.808
550,0.9147,168.808
551,0.916367,168.592
552,0.918033,168.301
553,0.9197,167.839
554,0.921367,167.839
555,0.923033,167.482
556,0.9247,167.206
557,0.9263670000000001,167.206
558,0.928033,167.012
559,0.929683,167.042
560,0.93135,167.094
561,0.933017,167.094
562,0.934683,167.131
563,0.93635,166.848
564,0.938017,166.729
565,0.9397,166.729
566,0.9414,166.394
567,0.943017,166.222
568,0.9446830000000001,166.118
569,0.94635,166.118
570,0.948017,165.746
571,0.9496830000000001,165.559
572,0.95135,165.552
573,0.953017,165.552
574,0.9546829999999999,165.544
575,0.95635,165.671
576,0.958017,165.671
577,0.9597,165.567
578,0.96135,165.373
579,0.963017,165.112
580,0.9647,165.112
581,0.96635,164.74
582,0.968083,164.68
583,0.969683,164.226
584,0.97135,164.226
585,0.973017,163.95
586,0.974683,164.047
587,0.9763500000000001,164.039
588,0.978017,164.039
589,0.979683,164.01
590,0.9813499999999999,163.95
591,0.983017,163.95
592,0.984683,163.607
593,0.9863499999999999,163.369
594,0.988017,163.54
595,0.989667,163.54
596,0.991333,163.63
597,0.993,163.637
598,0.994667,163.481
599,0.996333,163.481
600,0.998,163.041
601,0.999667,162.765
602,1.00145,162.601
603,1.003,162.601
604,1.004667,162.438
605,1.006333,162.452
606,1.008,162.452
607,1.009667,162.43
608,1.011333,162.564
609,1.013017,162.475
610,1.014733,162.475
611,1.016333,162.169
612,1.018,162.095
613,1.019667,161.67
614,1.021333,161.67
615,1.023,161.596
616,1.024667,161.871
617,1.026333,161.745
618,1.028,161.745
619,1.029667,161.745
620,1.031333,161.715
621,1.033,161.29
622,1.034667,161.29
623,1.036333,161.014
624,1.038,160.642
625,1.039667,160.642
626,1.041333,160.284
627,1.043,160.299
628,1.044667,160.314
629,1.046333,160.314
630,1.048,160.463
631,1.049667,160.56
632,1.051317,160.381
633,1.052983,160.381
634,1.05465,160.433
635,1.056317,160.314
636,1.057983,160.195
637,1.05965,160.195
638,1.0613,160.374
639,1.062967,160.396
640,1.064633,160.396
641,1.0663,160.359
642,1.067967,160.538
643,1.069633,160.217
644,1.0713,160.217
645,1.072967,159.979
646,1.074633,159.919
647,1.0763,159.48
648,1.077967,159.48
649,1.079633,159.204
650,1.081317,158.884
651,1.082967,158.533
652,1.08465,158.533
653,1.086417,158.407
654,1.087967,158.496
655,1.089633,158.496
656,1.0913,158.496
657,1.092967,158.541
658,1.094633,158.682
659,1.0963,158.682
660,1.097967,158.966
661,1.099633,159.07
662,1.1013,159.182
663,1.102967,159.182
664,1.104633,159.003
665,1.1063,158.481
666,1.107967,158.161
667,1.109633,158.161
668,1.111283,158.057
669,1.11295,158.027
670,1.114617,158.295
671,1.116283,158.295
672,1.11795,158.042
673,1.119733,157.639
674,1.121283,157.639
675,1.12295,157.595
676,1.124617,157.364
677,1.126283,157.557
678,1.12795,157.557
679,1.129617,157.617
680,1.131283,157.751
681,1.13295,157.692
682,1.134617,157.692
683,1.136283,157.468
684,1.13795,157.669
685,1.139633,157.52
686,1.141283,157.52
687,1.14295,157.386
688,1.144617,157.639
689,1.146283,157.297
690,1.14795,157.297
691,1.149617,157.148
692,1.151283,156.969
693,1.15295,156.969
694,1.154617,156.634
695,1.156283,156.872
696,1.157967,156.678
697,1.159683,156.678
698,1.161283,156.753
699,1.16295,157.006
700,1.164617,156.939
701,1.166283,156.939
702,1.16795,156.902
703,1.169617,156.984
704,1.171267,156.805
705,1.172933,156.805
706,1.1746,156.596
707,1.176267,156.596
708,1.177933,156.596
709,1.1796,156.157
710,1.181267,155.903
711,1.182933,155.799
712,1.1846,155.799
713,1.186267,155.777
714,1.187933,156.142
715,1.1896,156.291
716,1.191267,156.291
717,1.192933,156.105
718,1.1946,156.038
719,1.196267,156.127
720,1.197933,156.127
721,1.1996,156.224
722,1.201267,156.447
723,1.202933,156.447
724,1.204617,156.261
725,1.206267,155.792
726,1.207933,155.345
727,1.2096,155.345
728,1.211267,155.129
729,1.212933,155.285
730,1.2146,155.188
731,1.216267,155.188
732,1.217933,155.292
733,1.2196,155.136
734,1.221267,155.076
735,1.222933,155.076
736,1.2246,155.307
737,1.226267,155.531
738,1.227933,155.65
739,1.229617,155.65
740,1.23125,155.576
741,1.23295,155.635
742,1.234583,155.635
743,1.23625,155.233
744,1.238033,154.987
745,1.239583,154.667
746,1.24125,154.667
747,1.242917,154.413
748,1.244583,154.629
749,1.24625,154.659
750,1.247917,154.659
751,1.249583,154.711
752,1.25125,154.577
753,1.252917,154.234
754,1.254683,154.234
755,1.25625,154.041
756,1.257917,154.033
757,1.259583,154.033
758,1.26125,154.197
759,1.262917,154.488
760,1.264583,154.801
761,1.26625,154.801
762,1.267917,155.032
763,1.269583,154.942
764,1.27125,154.57
765,1.272917,154.57
766,1.274583,154.428
767,1.27625,154.212
768,1.277917,153.966
769,1.279583,153.966
770,1.28125,153.81
771,1.282917,153.78
772,1.284583,153.676
773,1.28625,153.676
774,1.287917,153.802
775,1.289567,154.071
776,1.291233,154.071
777,1.2929,153.899
778,1.294567,153.81
779,1.296233,153.787
780,1.2979,153.787
781,1.299567,153.84
782,1.301233,153.728
783,1.302917,153.698
784,1.304567,153.698
785,1.306233,153.504
786,1.3079,153.221
787,1.309567,153.139
788,1.311233,153.139
789,1.3129,153.065
790,1.314567,153.214
791,1.316233,153.214
792,1.3179,153.407
793,1.319567,153.787
794,1.321233,153.78
795,1.3229,153.78
796,1.324567,153.847
797,1.326233,153.951
798,1.3279,153.556
799,1.329567,153.556
800,1.331233,153.728
801,1.3329,153.288
802,1.334567,153.154
803,1.336233,153.154
804,1.3379,153.236
805,1.339633,153.05
806,1.341233,153.296
807,1.3429,153.296
808,1.344567,152.953
809,1.346233,152.983
810,1.3479,152.983
811,1.349567,152.923
812,1.351217,152.759
813,1.352867,153.087
814,1.354533,153.087
815,1.356283,152.923
816,1.357867,153.117
817,1.359533,153.244
818,1.3612,153.244
819,1.362867,152.99
820,1.364533,153.057
821,1.3662,152.811
822,1.367867,152.811
823,1.369533,152.58
824,1.3712,152.566
825,1.372983,152.372
826,1.374533,152.372
827,1.376217,152.327
828,1.377867,152.104
829,1.379533,152.104
830,1.3812,152.111
831,1.382867,152.074
832,1.384533,151.984
833,1.3862,151.984
834,1.387867,152.178
835,1.389533,151.88
836,1.3912,151.984
837,1.392867,151.984
838,1.394533,152.126
839,1.3962,152.059
840,1.397867,152.059
841,1.399533,152.171
842,1.4012,152.111
843,1.402867,151.977
844,1.404533,151.977
845,1.4062,152.118
846,1.407867,152.111
847,1.409533,152.156
848,1.411183,152.156
849,1.41285,152.118
850,1.414517,151.917
851,1.416183,151.858
852,1.41785,151.858
853,1.419517,152.051
854,1.421183,152.253
855,1.42285,152.297
856,1.424517,152.297
857,1.426183,152.253
858,1.42785,151.932
859,1.429517,151.932
860,1.431183,151.508
861,1.43285,151.291
862,1.434517,151.172
863,1.436183,151.172
864,1.43785,151.083
865,1.439517,151.195
866,1.441217,151.247
867,1.44285,151.247
868,1.444517,151.537
869,1.446183,151.813
870,1.44785,151.806
871,1.449517,151.806
872,1.451183,151.873
873,1.45285,151.619
874,1.454517,151.619
875,1.456183,151.53
876,1.457917,151.746
877,1.459517,151.999
878,1.461183,151.999
879,1.46285,152.141
880,1.464517,152.029
881,1.466183,152.007
882,1.46785,152.007
883,1.4695,151.873
884,1.471167,151.731
885,1.472833,151.537
886,1.474567,151.537
887,1.476167,151.433
888,1.477833,151.142
889,1.4795,151.075
890,1.481167,151.075
891,1.482833,151.061
892,1.4845,150.748
893,1.486167,150.748
894,1.487833,150.733
895,1.4895,150.889
896,1.491183,151.157
897,1.492833,151.157
898,1.4945,151.232
899,1.496167,151.321
900,1.497833,151.277
901,1.4995,151.277
902,1.501167,151.023
903,1.502833,151.142
904,1.5045,151.046
905,1.506167,151.046
906,1.507833,151.008
907,1.5095,151.083
908,1.511167,151.083
909,1.512833,150.815
910,1.5145,150.755
911,1.516167,150.561
912,1.517833,150.561
913,1.5195,150.606
914,1.521167,150.912
915,1.522833,151.18
916,1.5245,151.18
917,1.526167,151.157
918,1.527833,150.8
919,1.529483,150.368
920,1.53115,150.368
921,1.532817,149.988
922,1.534483,150.003
923,1.53615,150.129
924,1.537817,150.129
925,1.539483,150.33
926,1.54115,150.427
927,1.542833,150.427
928,1.544483,150.673
929,1.54615,150.844
930,1.547817,150.77
931,1.549483,150.77
932,1.55115,150.785
933,1.552817,150.621
934,1.554483,150.532
935,1.55615,150.532
936,1.557817,150.397
937,1.559483,150.085
938,1.56115,149.906
939,1.562817,149.906
940,1.564483,149.563
941,1.56615,149.384
942,1.567817,149.384
943,1.569483,149.511
944,1.57115,149.593
945,1.572817,149.928
946,1.574483,149.928
947,1.5762,150.301
948,1.577817,150.293
949,1.579483,150.263
950,1.58115,150.263
951,1.582817,150.129
952,1.5845,149.921
953,1.58615,150.256
954,1.587817,150.256
