"ID","sea_time","fid_signal"
1,0,1204.163
2,0.001667,1201.555
3,0.003333,1200.587
4,0.005,1200.587
5,0.006667,1198.798
6,0.008333,1194.626
7,0.010067,1195.371
8,0.011667,1195.371
9,0.013333,1191.72
10,0.015,1187.846
11,0.016667,1187.846
12,0.018333,1189.56
13,0.02,1186.952
14,0.021667,1187.772
15,0.023333,1187.772
16,0.025,1187.474
17,0.026767,1188.293
18,0.028333,1192.093
19,0.03,1192.093
20,0.031667,1195.446
21,0.033333,1199.022
22,0.035,1201.183
23,0.036667,1201.183
24,0.038333,1201.779
25,0.04,1204.163
26,0.041667,1204.163
27,0.04345,1203.418
28,0.045,1203.641
29,0.046667,1204.535
30,0.048333,1204.535
31,0.049983,1204.61
32,0.05165,1207.441
33,0.053317,1207.143
34,0.054983,1207.143
35,0.05665,1206.174
36,0.058317,1204.833
37,0.059983,1203.641
38,0.06165,1203.641
39,0.063317,1202.747
40,0.064983,1205.355
41,0.06665,1204.535
42,0.068317,1204.535
43,0.069983,1202.077
44,0.07165000000000001,1202.822
45,0.07331699999999999,1202.822
46,0.07498299999999999,1199.543
47,0.07665,1198.277
48,0.078317,1200.736
49,0.079983,1200.736
50,0.08165,1200.065
51,0.083317,1200.363
52,0.084983,1200.81
53,0.08665,1200.81
54,0.08831700000000001,1201.779
55,0.08998299999999999,1202.375
56,0.09165,1200.363
57,0.093317,1200.363
58,0.094983,1199.394
59,0.09665,1197.159
60,0.098317,1197.159
61,0.1,1196.116
62,0.10165,1197.979
63,0.103317,1199.32
64,0.104983,1199.32
65,0.106667,1200.289
66,0.108333,1200.14
67,0.109967,1199.096
68,0.111633,1199.096
69,0.1133,1199.022
70,0.114967,1195.148
71,0.116633,1193.956
72,0.1183,1193.956
73,0.119967,1196.265
74,0.121633,1199.469
75,0.1233,1199.469
76,0.124967,1202.896
77,0.126633,1204.759
78,0.1283,1205.504
79,0.129967,1205.504
80,0.131633,1204.386
81,0.1333,1206.771
82,0.134967,1206.622
83,0.136633,1206.622
84,0.1383,1205.355
85,0.139967,1204.237
86,0.141633,1202.747
87,0.1433,1202.747
88,0.145017,1203.045
89,0.146633,1204.088
90,0.1483,1203.939
91,0.149967,1203.939
92,0.151633,1202.673
93,0.1533,1202.822
94,0.154967,1202.822
95,0.156633,1200.289
96,0.1583,1199.394
97,0.159967,1199.171
98,0.161717,1199.171
99,0.1633,1201.183
100,0.164967,1205.057
101,0.166633,1207.292
102,0.1683,1207.292
103,0.16995,1209.378
104,0.171617,1209.378
105,0.173283,1206.994
106,0.17495,1206.994
107,0.176617,1204.982
108,0.1784,1204.833
109,0.17995,1204.833
110,0.181617,1203.641
111,0.1833,1206.249
112,0.185017,1206.174
113,0.186617,1206.174
114,0.188283,1205.206
115,0.18995,1204.535
116,0.191617,1201.704
117,0.193283,1201.704
118,0.19495,1201.481
119,0.196617,1200.885
120,0.198283,1197.159
121,0.19995,1197.159
122,0.201617,1195.446
123,0.203283,1195.893
124,0.20495,1198.649
125,0.206617,1198.649
126,0.208283,1203.567
127,0.20995,1206.1
128,0.211617,1206.1
129,0.213283,1207.963
130,0.21495,1205.504
131,0.216617,1203.045
132,0.218283,1203.045
133,0.21995,1201.481
134,0.221617,1201.779
135,0.223283,1204.461
136,0.22495,1204.461
137,0.226617,1205.355
138,0.228283,1206.1
139,0.229933,1202.524
140,0.2316,1202.524
141,0.233267,1200.587
142,0.234933,1199.99
143,0.2366,1199.99
144,0.238267,1198.873
145,0.239933,1199.99
146,0.2416,1198.5
147,0.243267,1198.5
148,0.244933,1201.555
149,0.246633,1203.865
150,0.2483,1206.398
151,0.249933,1206.398
152,0.2516,1206.1
153,0.253267,1203.939
154,0.254933,1201.481
155,0.2566,1201.481
156,0.258267,1197.755
157,0.259933,1198.128
158,0.2616,1197.085
159,0.2633,1197.085
160,0.264917,1198.277
161,0.266583,1199.245
162,0.26825,1199.245
163,0.269917,1199.469
164,0.271583,1199.394
165,0.27325,1198.351
166,0.274933,1198.351
167,0.276583,1200.959
168,0.27825,1205.28
169,0.279917,1206.398
170,0.281583,1206.398
171,0.28325,1207.441
172,0.284917,1205.206
173,0.286583,1202.151
174,0.28825,1202.151
175,0.2899,1202.3
176,0.291567,1205.057
177,0.293233,1205.057
178,0.2949,1206.026
179,0.296683,1202.449
180,0.298233,1201.555
181,0.2999,1201.555
182,0.301567,1198.053
183,0.303233,1193.732
184,0.3049,1195.148
185,0.306567,1195.148
186,0.308233,1197.681
187,0.3099,1196.414
188,0.311567,1202.747
189,0.313233,1202.747
190,0.3149,1205.131
191,0.316567,1202.971
192,0.318233,1202.971
193,0.3199,1200.661
194,0.321567,1196.787
195,0.323267,1193.359
196,0.3249,1193.359
197,0.326567,1191.199
198,0.328233,1194.403
199,0.3299,1197.532
200,0.331567,1197.532
201,0.333233,1200.065
202,0.3349,1200.959
203,0.336567,1201.704
204,0.338233,1201.704
205,0.3399,1199.245
206,0.341567,1199.469
207,0.343233,1201.034
208,0.3449,1201.034
209,0.346567,1200.81
210,0.348217,1200.661
211,0.349883,1200.661
212,0.35155,1202.971
213,0.353217,1202.002
214,0.354883,1201.555
215,0.35655,1201.555
216,0.358217,1202.747
217,0.359883,1199.842
218,0.36155,1200.587
219,0.363217,1200.587
220,0.364883,1200.736
221,0.36655,1199.32
222,0.368217,1198.649
223,0.369883,1198.649
224,0.37155,1198.649
225,0.373217,1199.618
226,0.374883,1199.618
227,0.37655,1197.979
228,0.378217,1200.736
229,0.379883,1200.959
230,0.3816,1200.959
231,0.383217,1202.375
232,0.384883,1209.006
233,0.38655,1207.665
234,0.388217,1207.665
235,0.389883,1211.315
236,0.39155,1212.06
237,0.393233,1208.484
238,0.394933,1208.484
239,0.39655,1211.539
240,0.398217,1211.762
241,0.399883,1212.954
242,0.40155,1212.954
243,0.403217,1215.786
244,0.404883,1217.425
245,0.40655,1217.425
246,0.408217,1218.915
247,0.409867,1222.64
248,0.411533,1223.832
249,0.4132,1223.832
250,0.414983,1224.726
251,0.416533,1225.695
252,0.4182,1225.695
253,0.419867,1225.695
254,0.421533,1228.154
255,0.4232,1228.377
256,0.424867,1227.483
257,0.426533,1227.483
258,0.4282,1225.397
259,0.429867,1223.683
260,0.431533,1223.683
261,0.4332,1223.832
262,0.434867,1225.546
263,0.436533,1226.217
264,0.4382,1226.217
265,0.439867,1227.185
266,0.441533,1227.93
267,0.4432,1231.283
268,0.444867,1231.283
269,0.446533,1232.326
270,0.4482,1232.326
271,0.449867,1229.122
272,0.451533,1229.122
273,0.4532,1224.875
274,0.454867,1223.758
275,0.456533,1222.044
276,0.4582,1222.044
277,0.459867,1226.44
278,0.461533,1227.781
279,0.4632,1227.781
280,0.464867,1227.483
281,0.466533,1227.856
282,0.4682,1221.001
283,0.469917,1221.001
284,0.471517,1217.499
285,0.473183,1217.723
286,0.47485,1218.99
287,0.476517,1218.99
288,0.478183,1224.577
289,0.47985,1227.111
290,0.481517,1226.366
291,0.483183,1226.366
292,0.48485,1225.248
293,0.486517,1224.577
294,0.488183,1224.577
295,0.48985,1222.566
296,0.491517,1222.044
297,0.493183,1221.374
298,0.49485,1221.374
299,0.496517,1222.193
300,0.498183,1224.726
301,0.499917,1227.26
302,0.501517,1227.26
303,0.5032,1227.632
304,0.50485,1221.597
305,0.506517,1218.84
306,0.5081830000000001,1218.84
307,0.50985,1217.723
308,0.511517,1216.68
309,0.5131829999999999,1220.033
310,0.51485,1220.033
311,0.516517,1219.884
312,0.5181829999999999,1217.872
313,0.51985,1217.872
314,0.521517,1216.009
315,0.523183,1214.966
316,0.52485,1211.986
317,0.526517,1211.986
318,0.5281670000000001,1208.112
319,0.529833,1207.888
320,0.5315,1206.323
321,0.5333,1206.323
322,0.534833,1206.1
323,0.5365,1207.441
324,0.538167,1210.123
325,0.539833,1210.123
326,0.5415,1212.433
327,0.543167,1214.37
328,0.544833,1214.37
329,0.546583,1215.413
330,0.548167,1215.041
331,0.549833,1214.445
332,0.5515,1214.445
333,0.553167,1211.986
334,0.554817,1210.943
335,0.5564829999999999,1210.496
336,0.55815,1210.496
337,0.559817,1207.739
338,0.561483,1207.739
339,0.56315,1208.484
340,0.564817,1208.484
341,0.566483,1208.261
342,0.56815,1208.931
343,0.569817,1208.931
344,0.571483,1209.304
345,0.57315,1211.241
346,0.574817,1211.39
347,0.576483,1211.39
348,0.5781500000000001,1214.594
349,0.579817,1213.923
350,0.581483,1212.507
351,0.5831499999999999,1212.507
352,0.584817,1213.104
353,0.586483,1209.08
354,0.58815,1211.241
355,0.5898,1211.241
356,0.591467,1210.496
357,0.593133,1206.622
358,0.5948,1208.112
359,0.596467,1208.112
360,0.598133,1208.931
361,0.5998,1210.198
362,0.601467,1210.198
363,0.603133,1211.166
364,0.6048,1210.719
365,0.606467,1209.602
366,0.608133,1209.602
367,0.6098170000000001,1206.994
368,0.611467,1205.951
369,0.613133,1207.441
370,0.6148,1207.441
371,0.616467,1209.155
372,0.618183,1211.166
373,0.6198,1215.339
374,0.621467,1215.339
375,0.623133,1214.221
376,0.6248,1213.327
377,0.626467,1213.327
378,0.6281330000000001,1212.954
379,0.6298,1213.402
380,0.631467,1213.849
381,0.6331329999999999,1213.849
382,0.6348,1212.656
383,0.636467,1211.613
384,0.638133,1206.845
385,0.6398,1206.845
386,0.641467,1206.174
387,0.643133,1207.814
388,0.6448,1208.857
389,0.646467,1208.857
390,0.648133,1209.751
391,0.649783,1208.931
392,0.651583,1204.982
393,0.6531169999999999,1204.982
394,0.654783,1204.163
395,0.65645,1207.888
396,0.658117,1207.888
397,0.659783,1206.994
398,0.66145,1209.304
399,0.663117,1210.123
400,0.664783,1210.123
401,0.66645,1205.727
402,0.668117,1206.249
403,0.669783,1204.386
404,0.67145,1204.386
405,0.673117,1204.982
406,0.674783,1206.771
407,0.67645,1208.857
408,0.678133,1208.857
409,0.679783,1211.613
410,0.68145,1211.315
411,0.683117,1211.315
412,0.684783,1208.633
413,0.68645,1207.963
414,0.688117,1206.323
415,0.689783,1206.323
416,0.69145,1204.61
417,0.693117,1204.908
418,0.694783,1202.375
419,0.69645,1202.375
420,0.698117,1202.3
421,0.699783,1205.28
422,0.70145,1209.378
423,0.703117,1209.378
424,0.704783,1210.868
425,0.70645,1215.488
426,0.708117,1215.488
427,0.709767,1215.562
428,0.711433,1216.084
429,0.7131,1223.087
430,0.714767,1223.087
431,0.716433,1222.789
432,0.7181,1226.291
433,0.719767,1231.804
434,0.721433,1231.804
435,0.7231,1237.989
436,0.7247670000000001,1249.313
437,0.726433,1259.819
438,0.7281,1259.819
439,0.7297670000000001,1271.442
440,0.731433,1283.139
441,0.7331,1297.221
442,0.7347669999999999,1297.221
443,0.7365,1314.208
444,0.7381,1333.579
445,0.739767,1333.579
446,0.741433,1356.08
447,0.7431,1380.667
448,0.744767,1406.446
449,0.746433,1406.446
450,0.7481,1437.441
451,0.749767,1469.627
452,0.751433,1504.347
453,0.7531,1504.347
454,0.754783,1548.901
455,0.756433,1592.04
456,0.7581,1641.065
457,0.759767,1641.065
458,0.761433,1697.466
459,0.7631,1754.016
460,0.764767,1754.016
461,0.766433,1821.816
462,0.7681,1892.149
463,0.7699,1965.687
464,0.771417,1965.687
465,0.773083,2044.29
466,0.77475,2121.18
467,0.776417,2204.105
468,0.778083,2204.105
469,0.7797500000000001,2291.948
470,0.781417,2385.825
471,0.783083,2485.067
472,0.7847499999999999,2485.067
473,0.786417,2589.375
474,0.788083,2695.024
475,0.78975,2807.155
476,0.791417,2807.155
477,0.793083,2922.863
478,0.79475,3040.805
479,0.796417,3040.805
480,0.7981,3164.56
481,0.79975,3286.004
482,0.801417,3413.781
483,0.803083,3413.781
484,0.80475,3546.849
485,0.8064170000000001,3680.363
486,0.808083,3817.007
487,0.80975,3817.007
488,0.8114170000000001,3955.662
489,0.813083,4093.424
490,0.81475,4236.177
491,0.8164169999999999,4236.177
492,0.818083,4380.345
493,0.81975,4526.228
494,0.821417,4526.228
495,0.823083,4674.867
496,0.82475,4827.231
497,0.826417,4981.682
498,0.8280999999999999,4981.682
499,0.8297330000000001,5133.972
500,0.8314,5289.763
501,0.833067,5444.139
502,0.8347329999999999,5444.139
503,0.8364,5597.621
504,0.838067,5754.53
505,0.839733,5906.895
506,0.8414,5906.895
507,0.843067,6060.451
508,0.8447170000000001,6214.827
509,0.846383,6371.886
510,0.84805,6371.886
511,0.8497169999999999,6530.359
512,0.851383,6684.81
513,0.853067,6684.81
514,0.854733,6841.198
515,0.856383,6993.637
516,0.85805,7147.863
517,0.859717,7147.863
518,0.861383,7304.549
519,0.86305,7461.905
520,0.864717,7616.282
521,0.866383,7616.282
522,0.86805,7768.87
523,0.869717,7920.563
524,0.871383,8069.873
525,0.87305,8069.873
526,0.874717,8224.547
527,0.876383,8379.593999999999
528,0.87805,8379.593999999999
529,0.879717,8535.087
530,0.881383,8690.134
531,0.88305,8843.169
532,0.884717,8843.169
533,0.886383,8993.894
534,0.88815,9142.16
535,0.8897,9291.022999999999
536,0.891367,9291.022999999999
537,0.893033,9439.438
538,0.8947000000000001,9584.427
539,0.896367,9727.031000000001
540,0.898033,9727.031000000001
541,0.8997000000000001,9866.058999999999
542,0.901367,10006.278
543,0.90305,10151.64
544,0.9046999999999999,10151.64
545,0.906367,10296.106
546,0.908033,10438.412
547,0.9097,10438.412
548,0.911367,10576.919
549,0.913033,10709.763
550,0.9147,10841.19
551,0.916367,10841.19
552,0.918033,10976.567
553,0.9197,11109.635
554,0.921367,11241.063
555,0.923033,11241.063
556,0.9247,11371.226
557,0.9263670000000001,11497.438
558,0.928033,11619.553
559,0.9297,11619.553
560,0.9313669999999999,11742.563
561,0.933033,11865.869
562,0.9347,11865.869
563,0.9363669999999999,11988.059
564,0.938033,12108.162
565,0.9397,12222.38
566,0.941367,12222.38
567,0.943033,12334.511
568,0.9447,12442.618
569,0.946367,12549.981
570,0.948033,12549.981
571,0.9496830000000001,12660.623
572,0.95135,12767.762
573,0.953017,12873.188
574,0.9546829999999999,12873.188
575,0.95635,12974.366
576,0.958017,13069.361
577,0.959683,13069.361
578,0.96135,13162.121
579,0.963017,13252.497
580,0.964683,13340.115
581,0.96635,13340.115
582,0.968017,13425.275
583,0.969683,13507.009
584,0.97135,13582.706
585,0.973017,13582.706
586,0.974683,13654.754
587,0.9763500000000001,13724.938
588,0.978017,13788.864
589,0.979683,13788.864
590,0.9813499999999999,13846.979
591,0.983017,13902.485
592,0.984683,13953.224
593,0.9863499999999999,13953.224
594,0.988017,13999.269
595,0.989733,14041.438
596,0.99135,14041.438
597,0.993017,14073.625
598,0.994683,14097.467
599,0.99635,14113.263
600,0.998017,14113.263
601,0.999683,14121.309
602,1.00135,14122.203
603,1.003017,14109.016
604,1.004683,14109.016
605,1.00645,14086.067
606,1.008017,14052.466
607,1.009667,14011.413
608,1.011333,14011.413
609,1.013,13959.109
610,1.014667,13895.035
611,1.016333,13895.035
612,1.018,13821.646
613,1.019667,13734.4
614,1.021333,13635.382
615,1.023083,13635.382
616,1.024667,13523.772
617,1.026333,13392.567
618,1.028,13246.686
619,1.029667,13246.686
620,1.031333,13091.415
621,1.033,12922.883
622,1.034667,12740.418
623,1.036333,12740.418
624,1.038,12544.543
625,1.039667,12335.182
626,1.041333,12116.134
627,1.043,12116.134
628,1.0447,11892.766
629,1.046333,11666.269
630,1.048,11666.269
631,1.049667,11433.661
632,1.051333,11197.18
633,1.053,10960.549
634,1.054667,10960.549
635,1.056333,10723.099
636,1.058,10493.397
637,1.059667,10268.092
638,1.061333,10268.092
639,1.063,10045.767
640,1.064667,9826.348
641,1.066333,9615.123
642,1.068,9615.123
643,1.06965,9410.232
644,1.071333,9213.164000000001
645,1.072983,9213.164000000001
646,1.07465,9028.241
647,1.076317,8844.882
648,1.077983,8673.519
649,1.07965,8673.519
650,1.081333,8511.691999999999
651,1.082983,8352.25
652,1.08465,8200.109
653,1.086317,8200.109
654,1.087983,8053.929
655,1.08965,7918.999
656,1.091333,7790.252
657,1.092983,7790.252
658,1.09465,7667.094
659,1.096317,7549.971
660,1.097983,7434.785
661,1.09965,7434.785
662,1.101317,7326.603
663,1.102983,7222.742
664,1.10465,7222.742
665,1.106317,7120.594
666,1.108083,7022.619
667,1.10965,6933.138
668,1.111317,6933.138
669,1.112983,6846.115
670,1.11465,6761.327
671,1.116317,6676.614
672,1.117983,6676.614
673,1.11965,6591.23
674,1.121317,6512.925
675,1.122983,6437.972
676,1.1247,6437.972
677,1.126317,6366.819
678,1.127967,6295.815
679,1.129633,6295.815
680,1.1313,6228.834
681,1.132967,6165.728
682,1.134633,6102.622
683,1.136283,6102.622
684,1.13795,6041.974
685,1.139617,5981.028
686,1.141417,5922.168
687,1.14295,5922.168
688,1.144617,5864.426
689,1.146283,5810.782
690,1.14795,5755.648
691,1.149617,5755.648
692,1.151283,5703.047
693,1.15295,5650.371
694,1.154617,5650.371
695,1.156283,5600.378
696,1.15795,5548.671
697,1.159617,5494.803
698,1.161283,5494.803
699,1.16295,5445.927
700,1.164617,5397.722
701,1.166283,5354.732
702,1.16795,5354.732
703,1.169617,5313.232
704,1.171283,5273.521
705,1.17295,5233.437
706,1.174617,5233.437
707,1.176283,5191.49
708,1.17795,5150.512
709,1.179617,5109.31
710,1.181283,5109.31
711,1.18295,5071.014
712,1.184633,5034.73
713,1.1863,5034.73
714,1.18795,4997.03
715,1.1896,4962.608
716,1.191267,4924.61
717,1.192933,4924.61
718,1.1946,4887.655
719,1.196267,4856.065
720,1.197933,4819.333
721,1.1996,4819.333
722,1.201267,4783.422
723,1.202933,4749.521
724,1.2046,4716.813
725,1.206267,4716.813
726,1.207933,4684.851
727,1.2096,4655.048
728,1.211267,4655.048
729,1.212933,4625.469
730,1.2146,4592.016
731,1.216267,4562.735
732,1.217933,4562.735
733,1.2196,4534.498
734,1.221267,4505.292
735,1.222933,4481.748
736,1.2246,4481.748
737,1.226283,4457.459
738,1.227933,4433.319
739,1.2296,4409.701
740,1.231267,4409.701
741,1.232933,4379.228
742,1.2346,4347.414
743,1.236267,4316.941
744,1.237933,4316.941
745,1.2396,4291.534
746,1.241267,4266.873
747,1.242933,4266.873
748,1.2446,4244.447
749,1.246267,4220.605
750,1.247933,4193.559
751,1.249583,4193.559
752,1.25125,4170.91
753,1.252917,4148.632
754,1.254583,4128.59
755,1.256267,4128.59
756,1.257917,4108.697
757,1.259717,4085.451
758,1.26125,4065.037
759,1.262933,4065.037
760,1.26465,4042.611
761,1.26625,4018.247
762,1.267917,4018.247
763,1.269583,3999.099
764,1.27125,3977.939
765,1.272917,3957.897
766,1.274583,3957.897
767,1.27625,3937.185
768,1.277917,3916.994
769,1.279583,3897.324
770,1.28125,3897.324
771,1.282917,3876.239
772,1.284583,3860.444
773,1.28625,3838.763
774,1.287917,3838.763
775,1.289583,3817.826
776,1.29125,3800.765
777,1.292917,3784.075
778,1.294583,3784.075
779,1.29625,3770.143
780,1.297917,3756.955
781,1.299583,3756.955
782,1.30125,3740.49
783,1.302917,3723.353
784,1.304583,3706.738
785,1.30625,3706.738
786,1.307917,3689.378
787,1.309567,3675.595
788,1.311233,3657.937
789,1.3129,3657.937
790,1.314567,3641.844
791,1.316233,3627.539
792,1.3179,3608.167
793,1.319567,3608.167
794,1.321233,3594.309
795,1.3229,3577.471
796,1.324567,3577.471
797,1.326233,3558.844
798,1.327917,3543.347
799,1.329567,3525.242
800,1.331233,3525.242
801,1.3329,3509.745
802,1.334567,3494.471
803,1.336233,3481.88
804,1.3379,3481.88
805,1.339567,3469.81
806,1.341233,3459.007
807,1.3429,3446.49
808,1.344617,3446.49
809,1.346233,3432.557
810,1.3479,3418.922
811,1.349567,3418.922
812,1.351233,3404.021
813,1.3529,3392.026
814,1.354567,3379.136
815,1.356233,3379.136
816,1.3579,3365.8
817,1.359567,3350.824
818,1.361233,3335.625
819,1.3629,3335.625
820,1.364567,3321.32
821,1.366233,3307.611
822,1.3679,3297.776
823,1.36955,3297.776
824,1.371217,3286.6
825,1.372883,3274.456
826,1.37455,3265.962
827,1.376217,3265.962
828,1.378,3255.68
829,1.37955,3244.43
830,1.381217,3244.43
831,1.382883,3231.764
832,1.38455,3216.937
833,1.386217,3202.558
834,1.387883,3202.558
835,1.38955,3189.594
836,1.391217,3181.249
837,1.392883,3171.638
838,1.39455,3171.638
839,1.396217,3162.548
840,1.397883,3152.564
841,1.39955,3142.357
842,1.401217,3142.357
843,1.402883,3132.448
844,1.40455,3121.272
845,1.406217,3121.272
846,1.407883,3110.394
847,1.40955,3098.697
848,1.411217,3087.595
849,1.412883,3087.595
850,1.41455,3078.356
851,1.416217,3071.129
852,1.417883,3060.55
853,1.419567,3060.55
854,1.421217,3050.566
855,1.422883,3039.39
856,1.42455,3028.512
857,1.426217,3028.512
858,1.427867,3018.379
859,1.429517,3009.438
860,1.4312,3000.2
861,1.43285,3000.2
862,1.434517,2988.949
863,1.436183,2980.53
864,1.43785,2980.53
865,1.439517,2972.186
866,1.441183,2962.5
867,1.44285,2955.347
868,1.444517,2955.347
869,1.446183,2947.971
870,1.44785,2939.701
871,1.449517,2930.388
872,1.451183,2930.388
873,1.45285,2918.542
874,1.454517,2906.918
875,1.456183,2895.743
876,1.45785,2895.743
877,1.459517,2889.186
878,1.461183,2883.226
879,1.462917,2876.148
880,1.464517,2876.148
881,1.466183,2868.771
882,1.46785,2859.905
883,1.469517,2859.905
884,1.471183,2856.478
885,1.47285,2852.678
886,1.474533,2847.463
887,1.476183,2847.463
888,1.47785,2839.416
889,1.479517,2827.942
890,1.481183,2816.767
891,1.48285,2816.767
892,1.484517,2806.783
893,1.486183,2797.395
894,1.48785,2797.395
895,1.4895,2789.199
896,1.491167,2784.208
897,1.492833,2775.416
898,1.4945,2775.416
899,1.496283,2770.573
900,1.497833,2765.656
901,1.4995,2754.182
902,1.501167,2754.182
903,1.502833,2747.178
904,1.5045,2741.292
905,1.506167,2730.861
906,1.507833,2730.861
907,1.5095,2725.869
908,1.511167,2717.823
909,1.512833,2708.659
910,1.5145,2708.659
911,1.516167,2703.443
912,1.517833,2696.514
