"ID","sea_time","fid_signal"
1,0,1202.226
2,0.00165,1202.822
3,0.003317,1202.971
4,0.004983,1202.822
5,0.00665,1202.822
6,0.008449999999999999,1200.363
7,0.009983000000000001,1195.148
8,0.01165,1190.379
9,0.013317,1190.379
10,0.014983,1187.772
11,0.01665,1190.007
12,0.018317,1193.285
13,0.019983,1193.285
14,0.02165,1195.222
15,0.023317,1196.489
16,0.024983,1194.179
17,0.02665,1194.179
18,0.028317,1196.861
19,0.029983,1195.52
20,0.03165,1195.52
21,0.033317,1197.681
22,0.034983,1199.543
23,0.03665,1196.787
24,0.038317,1196.787
25,0.039983,1197.159
26,0.04165,1194.403
27,0.043317,1192.465
28,0.045,1192.465
29,0.04665,1193.21
30,0.048317,1197.755
31,0.049983,1202.598
32,0.05165,1202.598
33,0.053317,1205.578
34,0.054983,1204.833
35,0.05665,1204.833
36,0.058317,1203.12
37,0.059967,1199.469
38,0.061633,1197.979
39,0.0633,1197.979
40,0.064967,1199.394
41,0.06665,1199.767
42,0.0683,1201.704
43,0.069967,1201.704
44,0.071633,1200.438
45,0.0733,1199.096
46,0.07496700000000001,1198.724
47,0.07663300000000001,1198.724
48,0.07829999999999999,1197.159
49,0.079967,1197.979
50,0.081633,1200.587
51,0.0833,1200.587
52,0.084967,1201.779
53,0.086633,1202.077
54,0.0883,1202.077
55,0.08996700000000001,1202.747
56,0.09163300000000001,1200.81
57,0.093317,1199.394
58,0.094967,1199.394
59,0.096633,1197.979
60,0.0983,1197.383
61,0.099967,1197.457
62,0.101633,1197.457
63,0.1033,1196.414
64,0.104967,1197.01
65,0.106633,1195.371
66,0.1083,1195.371
67,0.11,1194.924
68,0.111633,1193.285
69,0.1133,1193.285
70,0.114967,1190.975
71,0.116633,1191.72
72,0.1183,1194.626
73,0.11995,1194.626
74,0.121617,1195.818
75,0.123283,1195.744
76,0.12495,1196.265
77,0.126717,1196.265
78,0.128283,1195.073
79,0.12995,1194.775
80,0.131617,1197.83
81,0.133283,1197.83
82,0.13495,1198.351
83,0.136617,1197.904
84,0.138283,1197.755
85,0.13995,1197.755
86,0.141617,1197.83
87,0.143283,1197.085
88,0.14495,1197.085
89,0.146617,1196.042
90,0.148283,1195.595
91,0.14995,1196.191
92,0.151617,1196.191
93,0.153283,1199.022
94,0.15495,1198.351
95,0.156617,1200.736
96,0.158283,1200.736
97,0.15995,1200.214
98,0.161633,1194.626
99,0.163283,1191.571
100,0.16495,1191.571
101,0.166617,1188.964
102,0.168283,1186.654
103,0.16995,1186.654
104,0.171617,1188.666
105,0.173283,1191.05
106,0.17495,1191.571
107,0.176617,1191.571
108,0.178283,1194.328
109,0.17995,1191.869
110,0.181617,1191.497
111,0.183267,1191.497
112,0.184933,1190.081
113,0.1866,1185.089
114,0.1883,1185.536
115,0.189933,1185.536
116,0.1916,1186.729
117,0.193267,1190.156
118,0.194933,1190.156
119,0.1966,1193.956
120,0.198267,1195.297
121,0.199933,1197.159
122,0.2016,1197.159
123,0.203267,1198.649
124,0.204933,1196.34
125,0.2066,1197.83
126,0.208267,1197.83
127,0.209933,1195.595
128,0.211667,1193.062
129,0.213267,1193.881
130,0.214933,1193.881
131,0.2166,1191.05
132,0.218267,1189.336
133,0.219933,1186.058
134,0.2216,1186.058
135,0.223267,1185.536
136,0.224933,1187.324
137,0.2266,1187.324
138,0.228267,1187.324
139,0.229933,1187.324
140,0.2316,1189.262
141,0.233267,1189.262
142,0.234933,1190.752
143,0.2366,1191.869
144,0.238267,1194.477
145,0.239917,1194.477
146,0.241583,1193.062
147,0.24325,1193.285
148,0.244967,1192.838
149,0.246583,1192.838
150,0.24825,1193.732
151,0.249917,1194.254
152,0.251583,1194.254
153,0.25325,1194.328
154,0.254917,1195.073
155,0.256583,1194.85
156,0.25825,1194.85
157,0.259917,1195.52
158,0.261583,1192.912
159,0.26325,1194.552
160,0.264917,1194.552
161,0.266583,1190.901
162,0.26825,1190.007
163,0.269917,1191.944
164,0.271583,1191.944
165,0.27325,1189.262
166,0.274917,1189.932
167,0.276583,1190.528
168,0.27825,1190.528
169,0.279917,1190.379
170,0.281567,1191.646
171,0.283233,1191.646
172,0.2849,1191.795
173,0.286567,1190.603
174,0.288233,1187.995
175,0.2899,1187.995
176,0.291567,1189.187
177,0.293233,1191.124
178,0.2949,1192.838
179,0.296567,1192.838
180,0.298233,1192.987
181,0.299883,1192.093
182,0.30155,1192.316
183,0.303217,1192.316
184,0.304883,1188.442
185,0.30655,1187.623
186,0.308217,1187.623
187,0.309883,1188.144
188,0.31155,1188.219
189,0.313217,1188.964
190,0.314883,1188.964
191,0.31655,1188.293
192,0.318217,1187.026
193,0.319883,1186.281
194,0.32155,1186.281
195,0.323267,1185.685
196,0.324883,1188.889
197,0.32655,1189.187
198,0.328217,1189.187
199,0.329933,1187.846
200,0.33155,1191.05
201,0.333217,1191.72
202,0.334883,1191.72
203,0.336567,1190.603
204,0.338217,1193.732
205,0.339883,1193.732
206,0.34155,1192.018
207,0.343217,1187.995
208,0.344883,1186.803
209,0.34655,1186.803
210,0.348217,1184.121
211,0.349883,1185.536
212,0.35155,1189.932
213,0.353217,1189.932
214,0.354883,1193.359
215,0.35655,1192.391
216,0.358217,1190.305
217,0.359883,1190.305
218,0.361533,1186.058
219,0.363333,1184.046
220,0.364867,1184.046
221,0.366533,1184.866
222,0.3682,1185.238
223,0.369867,1186.952
224,0.371533,1186.952
225,0.3732,1184.568
226,0.374867,1184.046
227,0.376533,1184.121
228,0.3782,1184.121
229,0.379867,1185.164
230,0.381533,1189.932
231,0.3832,1191.869
232,0.384867,1191.869
233,0.386533,1192.763
234,0.3882,1190.379
235,0.389867,1190.379
236,0.391533,1188.517
237,0.3932,1186.43
238,0.394867,1184.568
239,0.396533,1184.568
240,0.3982,1184.717
241,0.3999,1185.164
242,0.401533,1186.505
243,0.4032,1186.505
244,0.404867,1188.666
245,0.406533,1190.305
246,0.4082,1187.176
247,0.409867,1187.176
248,0.411533,1189.709
249,0.4132,1190.752
250,0.414867,1194.328
251,0.416533,1194.328
252,0.4182,1197.755
253,0.419867,1197.979
254,0.421517,1197.979
255,0.423183,1197.681
256,0.42485,1197.904
257,0.426517,1205.578
258,0.428183,1205.578
259,0.42985,1218.021
260,0.431517,1246.631
261,0.433183,1297.817
262,0.43485,1297.817
263,0.436517,1383.498
264,0.438183,1532.063
265,0.43985,1772.344
266,0.441517,1772.344
267,0.443183,2145.469
268,0.44485,2708.137
269,0.446517,2708.137
270,0.44825,3512.204
271,0.44985,4616.007
272,0.451517,6073.341
273,0.453183,6073.341
274,0.45485,7939.115
275,0.456517,10255.203
276,0.458183,13059.899
277,0.45985,13059.899
278,0.461517,16392.619
279,0.463183,20269.975
280,0.46485,24706.051
281,0.466517,24706.051
282,0.4682,29689.596
283,0.46985,35180.449
284,0.471517,41109.992
285,0.473183,41109.992
286,0.47485,47386.066
287,0.476517,53901.746
288,0.478183,53901.746
289,0.47985,60545.059
290,0.481633,67199.844
291,0.483167,73750.617
292,0.484833,73750.617
293,0.4865,80083.234
294,0.488167,86074.992
295,0.489833,91619.19500000001
296,0.4915,91619.19500000001
297,0.493167,96607.281
298,0.494833,100929.734
299,0.4965,104482.992
300,0.498167,104482.992
301,0.499833,107167.141
302,0.5014999999999999,108904.32
303,0.503167,108904.32
304,0.504833,109644.461
305,0.5065,109354.852
306,0.508167,108039.68
307,0.509833,108039.68
308,0.5115,105745.492
309,0.513167,102570.656
310,0.514833,98659.914
311,0.5165,98659.914
312,0.518167,94178.914
313,0.519833,89303.031
314,0.5215,84191.484
315,0.523167,84191.484
316,0.524833,79000.367
317,0.5265,73860.961
318,0.5281670000000001,68878.45299999999
319,0.529833,68878.45299999999
320,0.5315,64126.922
321,0.5331669999999999,59653.148
322,0.534833,59653.148
323,0.5365,55483.504
324,0.538167,51625.297
325,0.539833,48078.375
326,0.541517,48078.375
327,0.543167,44829.027
328,0.544867,41861.086
329,0.5464830000000001,39156.898
330,0.54815,39156.898
331,0.549817,36695.598
332,0.5514829999999999,34455.73
333,0.55315,32418.146
334,0.554817,32418.146
335,0.5564829999999999,30560.42
336,0.55815,28863.475
337,0.559817,28863.475
338,0.561483,27310.922
339,0.56315,25888.16
340,0.564833,24581.254
341,0.566483,24581.254
342,0.56815,23380.518
343,0.569817,22274.33
344,0.571483,21251.365
345,0.573133,21251.365
346,0.5748,20304.322
347,0.576467,19427.166
348,0.578133,18612.146
349,0.5798,18612.146
350,0.581467,17855.764
351,0.583233,17152.131
352,0.5848,17152.131
353,0.586467,16490.967
354,0.588133,15874.281
355,0.5898,15300.14
356,0.591467,15300.14
357,0.593133,14754.98
358,0.5948,14248.267
359,0.596467,13770.313
360,0.598133,13770.313
361,0.5999,13314.337
362,0.60145,12888.461
363,0.603117,12483.895
364,0.604783,12483.895
365,0.60645,12101.233
366,0.608117,11739.88
367,0.609783,11399.612
368,0.61145,11399.612
369,0.613117,11076.555
370,0.614783,10768.101
371,0.616583,10472.015
372,0.618117,10472.015
373,0.619783,10191.426
374,0.6215000000000001,9923.503000000001
375,0.623117,9923.503000000001
376,0.624783,9670.183000000001
377,0.62645,9431.02
378,0.628117,9198.562
379,0.629783,9198.562
380,0.63145,8976.087
381,0.633117,8763.82
382,0.634783,8561.237999999999
383,0.63645,8561.237999999999
384,0.638117,8367.821
385,0.639783,8185.208
386,0.64145,8185.208
387,0.643117,8006.767
388,0.644783,7834.658
389,0.64645,7673.204
390,0.6481170000000001,7673.204
391,0.649783,7516.518
392,0.65145,7365.942
393,0.6531169999999999,7222.742
394,0.654783,7222.742
395,0.65645,7083.192
396,0.658117,6947.518
397,0.659783,6818.623
398,0.661433,6818.623
399,0.6631,6696.731
400,0.664767,6576.479
401,0.6664330000000001,6460.995
402,0.6681,6460.995
403,0.669767,6348.565
404,0.6714329999999999,6237.701
405,0.6731,6237.701
406,0.674767,6133.467
407,0.676433,6032.139
408,0.6781,5934.611
409,0.679783,5934.611
410,0.681433,5840.584
411,0.6831,5750.805
412,0.6848,5663.857
413,0.686433,5663.857
414,0.6881,5579.144
415,0.689767,5496.145
416,0.691433,5414.635
417,0.6931,5414.635
418,0.694767,5335.212
419,0.696433,5256.832
420,0.6981000000000001,5256.832
421,0.699767,5182.028
422,0.7015,5109.31
423,0.7031500000000001,5035.773
424,0.704767,5035.773
425,0.706433,4968.196
426,0.7081,4904.047
427,0.709767,4840.27
428,0.711433,4840.27
429,0.7131,4781.484
430,0.714767,4723.445
431,0.716433,4661.307
432,0.71815,4661.307
433,0.719767,4602.447
434,0.721417,4545.823
435,0.723083,4491.135
436,0.72475,4491.135
437,0.726417,4441.664
438,0.728083,4389.51
439,0.72975,4389.51
440,0.731417,4337.653
441,0.733083,4288.852
442,0.734867,4239.529
443,0.736417,4239.529
444,0.738083,4195.348
445,0.739767,4150.868
446,0.741417,4106.76
447,0.743083,4106.76
448,0.74475,4062.802
449,0.746417,4018.769
450,0.7480830000000001,3978.536
451,0.74975,3978.536
452,0.751417,3937.557
453,0.7530829999999999,3897.771
454,0.75475,3897.771
455,0.756433,3860.295
456,0.758083,3823.638
457,0.75975,3786.758
458,0.761417,3786.758
459,0.763083,3755.242
460,0.76475,3722.534
461,0.766417,3687.59
462,0.768083,3687.59
463,0.76975,3654.882
464,0.771417,3620.014
465,0.773083,3584.176
466,0.774767,3584.176
467,0.776417,3551.915
468,0.778083,3520.548
469,0.7797500000000001,3520.548
470,0.7814,3489.032
471,0.783067,3463.03
472,0.784733,3435.91
473,0.7864,3435.91
474,0.788067,3406.927
475,0.789733,3378.615
476,0.7914,3350.973
477,0.793067,3350.973
478,0.794733,3320.426
479,0.7964,3292.412
480,0.798067,3266.781
481,0.799733,3266.781
482,0.8014,3239.438
483,0.803067,3217.012
484,0.804733,3192.872
485,0.8064,3192.872
486,0.808067,3167.316
487,0.809733,3143.624
488,0.8114,3143.624
489,0.813067,3120.303
490,0.814733,3099.516
491,0.8164,3080.443
492,0.818067,3080.443
493,0.81975,3056.899
494,0.8214,3034.845
495,0.823067,3011.45
496,0.824733,3011.45
497,0.8264,2991.259
498,0.828067,2972.782
499,0.8297330000000001,2952.516
500,0.8314,2952.516
501,0.833067,2933.964
502,0.8347329999999999,2911.091
503,0.836417,2890.378
504,0.838067,2890.378
505,0.839733,2870.262
506,0.8414,2851.71
507,0.84305,2851.71
508,0.8447170000000001,2833.605
509,0.846383,2813.712
510,0.84805,2796.501
511,0.8497169999999999,2796.501
512,0.851383,2777.949
513,0.853167,2761.632
514,0.8547169999999999,2746.508
515,0.856383,2746.508
516,0.85805,2730.414
517,0.859717,2716.035
518,0.861383,2697.706
519,0.86305,2697.706
520,0.8647,2682.582
521,0.866367,2667.606
522,0.8680330000000001,2667.606
523,0.8697,2650.693
524,0.871367,2637.356
525,0.8730329999999999,2621.636
526,0.8747,2621.636
527,0.876367,2606.809
528,0.878033,2592.876
529,0.8797,2578.869
530,0.881367,2578.869
531,0.883033,2562.404
532,0.8847,2546.758
533,0.886367,2533.719
534,0.888033,2533.719
535,0.8897,2517.626
536,0.891367,2506.003
537,0.893033,2506.003
538,0.8947000000000001,2492.07
539,0.896367,2477.989
540,0.898033,2465.248
541,0.8997000000000001,2465.248
542,0.90135,2452.284
543,0.903017,2439.022
544,0.904683,2424.493
545,0.90635,2424.493
546,0.908017,2413.467
547,0.909683,2400.055
548,0.91135,2388.358
549,0.913017,2388.358
550,0.9147,2377.927
551,0.91635,2364.442
552,0.918017,2355.427
553,0.919683,2355.427
554,0.92135,2344.474
555,0.923017,2331.808
556,0.924683,2331.808
557,0.92635,2321.377
558,0.928017,2309.605
559,0.929683,2299.398
560,0.93135,2299.398
561,0.933017,2290.756
562,0.934683,2281.368
563,0.93635,2270.937
564,0.9380500000000001,2270.937
565,0.939683,2260.059
566,0.94135,2249.256
567,0.943017,2239.421
568,0.9446830000000001,2239.421
569,0.94635,2229.437
570,0.948017,2219.379
571,0.9496830000000001,2219.379
572,0.95135,2207.905
573,0.953017,2196.208
574,0.9546829999999999,2186.895
575,0.95635,2186.895
576,0.958017,2180.04
577,0.959683,2173.334
578,0.961333,2165.362
579,0.963,2165.362
580,0.9646670000000001,2155.229
581,0.966333,2145.022
582,0.968,2137.497
583,0.9696669999999999,2137.497
584,0.97145,2128.705
585,0.973,2123.49
586,0.974667,2123.49
587,0.9763500000000001,2115.592
588,0.978,2103.597
589,0.979667,2097.86
590,0.981333,2097.86
591,0.983,2087.206
592,0.984667,2078.19
593,0.986333,2072.006
594,0.988,2072.006
595,0.989667,2062.097
596,0.991333,2055.839
597,0.993,2046.898
598,0.994667,2046.898
599,0.996333,2036.989
600,0.998,2027.526
601,0.999667,2018.139
602,1.001333,2018.139
603,1.003,2013.743
604,1.004667,2009.347
605,1.006333,2009.347
606,1.008,2003.238
607,1.009667,1997.426
608,1.011333,1989.305
609,1.013,1989.305
610,1.014667,1982.525
611,1.016333,1976.341
612,1.018,1969.337
613,1.01965,1969.337
614,1.021317,1961.514
615,1.022983,1951.68
616,1.02465,1945.868
617,1.026317,1945.868
618,1.027983,1938.79
619,1.02965,1935.139
620,1.031317,1935.139
621,1.032983,1931.414
622,1.034667,1925.379
623,1.036317,1919.27
624,1.037983,1919.27
625,1.03965,1910.329
626,1.041317,1902.655
627,1.043,1890.659
628,1.04465,1890.659
629,1.046317,1884.922
630,1.047983,1880.079
631,1.04965,1874.492
632,1.051317,1874.492
633,1.052983,1872.405
634,1.05465,1870.096
635,1.056367,1865.029
636,1.057983,1865.029
637,1.05965,1857.504
638,1.061317,1853.332
639,1.062983,1853.332
640,1.06465,1843.274
641,1.066317,1837.835
642,1.067983,1835.078
643,1.06965,1835.078
644,1.071317,1828.894
645,1.072983,1823.902
646,1.07465,1813.769
647,1.076317,1813.769
648,1.077983,1806.691
649,1.07965,1802.594
650,1.081317,1797.9
651,1.082967,1797.9
652,1.084633,1795.739
653,1.0863,1792.833
654,1.087967,1792.833
655,1.089767,1787.022
656,1.0913,1783.892
657,1.092967,1777.336
658,1.094633,1777.336
659,1.0963,1768.842
660,1.097967,1762.733
661,1.099633,1752.228
662,1.1013,1752.228
663,1.102967,1748.204
664,1.104633,1744.33
665,1.1063,1741.871
666,1.107967,1741.871
667,1.109633,1740.53
668,1.1113,1738.22
669,1.112967,1736.283
670,1.114633,1736.283
671,1.1163,1729.652
672,1.117967,1726.672
673,1.119667,1726.672
674,1.1213,1722.127
675,1.122967,1715.422
676,1.124633,1715.72
677,1.1263,1715.72
678,1.127967,1710.281
679,1.129633,1706.034
680,1.1313,1703.426
681,1.132967,1703.426
682,1.134633,1697.317
683,1.1363,1692.474
684,1.137967,1686.737
685,1.139633,1686.737
686,1.141283,1683.161
687,1.142967,1676.083
688,1.144617,1676.083
689,1.146283,1673.177
690,1.14795,1672.357
691,1.149617,1668.185
692,1.151283,1668.185
693,1.15295,1667.813
694,1.154617,1666.844
695,1.156267,1661.629
696,1.157933,1661.629
697,1.1596,1659.021
698,1.161267,1654.327
699,1.162933,1647.025
700,1.1646,1647.025
701,1.166267,1642.63
702,1.167933,1637.787
703,1.1696,1637.787
704,1.171267,1632.795
705,1.172933,1628.995
706,1.17465,1625.046
707,1.176267,1625.046
708,1.177933,1620.576
709,1.1796,1618.415
710,1.181267,1617
711,1.182933,1617
712,1.1846,1614.392
713,1.186267,1611.561
714,1.187933,1606.792
715,1.1896,1606.792
716,1.191333,1603.439
717,1.192933,1599.714
718,1.1946,1597.33
719,1.196267,1597.33
720,1.197933,1594.573
721,1.1996,1589.358
722,1.20125,1589.358
723,1.202917,1587.942
724,1.204583,1587.048
725,1.20625,1585.335
726,1.208033,1585.335
727,1.209583,1581.758
728,1.21125,1578.778
729,1.212917,1573.265
730,1.214583,1573.265
731,1.21625,1570.433
732,1.217917,1568.496
733,1.219583,1563.355
734,1.22125,1563.355
735,1.222917,1559.406
736,1.224583,1555.011
737,1.22625,1555.011
738,1.227917,1553.744
739,1.229583,1553.223
740,1.23125,1551.434
741,1.232917,1551.434
742,1.234583,1551.36
743,1.23625,1548.007
744,1.237917,1541.227
745,1.239583,1541.227
746,1.24125,1539.886
747,1.242917,1536.682
748,1.244583,1534.075
749,1.24625,1534.075
750,1.247917,1537.651
751,1.249583,1533.851
752,1.25125,1529.232
753,1.252917,1529.232
754,1.254583,1526.102
755,1.25625,1520.738
756,1.257917,1520.738
757,1.259583,1521.185
758,1.26125,1522.303
759,1.2629,1523.048
760,1.2646,1523.048
761,1.266267,1519.993
762,1.2679,1514.703
763,1.269567,1508.072
764,1.271233,1508.072
765,1.2729,1501.888
766,1.274567,1498.014
767,1.276233,1493.245
768,1.2779,1493.245
769,1.279567,1491.979
770,1.281233,1492.426
771,1.2829,1492.426
772,1.284567,1493.469
773,1.286233,1494.885
774,1.2879,1492.798
775,1.289567,1492.798
776,1.291233,1487.434
777,1.29295,1483.113
778,1.294567,1478.791
779,1.296233,1478.791
780,1.2979,1476.407
781,1.299567,1475.662
782,1.301233,1472.756
783,1.3029,1472.756
784,1.304567,1474.47
785,1.306233,1472.533
786,1.3079,1467.615
787,1.309567,1467.615
788,1.311233,1466.572
789,1.3129,1463.071
790,1.314567,1463.071
791,1.316233,1459.941
792,1.3179,1459.345
793,1.319567,1456.216
794,1.321217,1456.216
795,1.322883,1453.161
796,1.32455,1453.683
797,1.32635,1452.044
798,1.327883,1452.044
799,1.32955,1450.106
800,1.331217,1450.106
801,1.332883,1445.785
802,1.33455,1445.785
803,1.336217,1446.232
804,1.337883,1445.636
805,1.339567,1445.636
806,1.3413,1441.091
807,1.342883,1442.581
808,1.34455,1437.515
809,1.346217,1437.515
810,1.347883,1432.225
811,1.34955,1429.394
812,1.351217,1426.712
813,1.352883,1426.712
814,1.35455,1428.351
815,1.356217,1431.331
816,1.357883,1432.896
817,1.35955,1432.896
818,1.361217,1430.958
819,1.362883,1427.606
820,1.36455,1423.806
821,1.366217,1423.806
822,1.367883,1422.167
823,1.36955,1418.442
824,1.371233,1418.442
825,1.372883,1417.175
826,1.37455,1417.398
827,1.376217,1413.748
828,1.377883,1413.748
829,1.37955,1415.536
830,1.3812,1416.951
831,1.382867,1415.387
832,1.384533,1415.387
833,1.3862,1417.398
834,1.387867,1415.834
835,1.389533,1411.214
836,1.3912,1411.214
837,1.392867,1407.638
838,1.394533,1401.603
839,1.3962,1401.603
840,1.397867,1396.76
841,1.399533,1397.207
842,1.401233,1398.698
843,1.402867,1398.698
844,1.404533,1400.262
845,1.4062,1398.847
846,1.407867,1395.345
847,1.409533,1395.345
848,1.411217,1392.737
849,1.412867,1388.714
850,1.414533,1384.914
851,1.4162,1384.914
852,1.417867,1384.318
853,1.419533,1381.785
854,1.4212,1381.785
855,1.422867,1378.655
856,1.424533,1380.146
857,1.4262,1378.059
858,1.42795,1378.059
859,1.429533,1376.644
860,1.4312,1376.644
861,1.432867,1377.091
862,1.434533,1377.091
863,1.4362,1373.664
864,1.437867,1371.279
865,1.439533,1370.162
866,1.441183,1370.162
867,1.44285,1367.927
868,1.444633,1371.428
869,1.446183,1373.142
870,1.447833,1373.142
871,1.4495,1375.079
872,1.451167,1371.503
873,1.452833,1371.503
874,1.4545,1365.17
875,1.456167,1363.009
876,1.457833,1357.943
877,1.4595,1357.943
878,1.4613,1357.794
879,1.462833,1358.762
880,1.4645,1356.9
881,1.466167,1356.9
882,1.467833,1359.731
883,1.4695,1361.817
884,1.471167,1359.06
885,1.47285,1359.06
886,1.4745,1357.123
887,1.4762,1351.461
888,1.477833,1351.461
889,1.4795,1348.257
890,1.481167,1349.3
891,1.482833,1350.194
892,1.4845,1350.194
893,1.486167,1351.833
894,1.487833,1350.716
895,1.4895,1352.355
896,1.491167,1352.355
897,1.492833,1352.802
898,1.4945,1355.559
899,1.496167,1356.006
900,1.497833,1356.006
901,1.4995,1351.908
902,1.50115,1345.575
903,1.502817,1341.552
904,1.504483,1341.552
905,1.50615,1341.254
906,1.507817,1342.148
907,1.509483,1342.148
908,1.51115,1343.34
909,1.512817,1341.403
910,1.514483,1336.932
911,1.51615,1336.932
912,1.517817,1332.462
