"ID","sea_time","fid_signal"
1,0,143.468
2,0.001667,143.491
3,0.003333,143.491
4,0.005,143.364
5,0.006667,143.193
6,0.008333,142.82
7,0.01,142.82
8,0.01165,142.157
9,0.01335,141.807
10,0.014983,141.807
11,0.01665,141.755
12,0.018317,141.785
13,0.019983,141.837
14,0.02165,141.837
15,0.023317,142.097
16,0.024983,142.06
17,0.02665,142.485
18,0.028317,142.485
19,0.029983,142.656
20,0.03165,142.694
21,0.033317,142.768
22,0.034983,142.768
23,0.03665,142.872
24,0.0384,142.939
25,0.039983,143.141
26,0.04165,143.141
27,0.043317,143.178
28,0.044983,142.969
29,0.04665,142.969
30,0.048317,143.155
31,0.05,143.006
32,0.05165,142.992
33,0.053317,142.992
34,0.055083,143.014
35,0.05665,142.79
36,0.058317,142.716
37,0.059983,142.716
38,0.06165,142.679
39,0.063317,142.768
40,0.064983,142.969
41,0.06665,142.969
42,0.068317,142.813
43,0.069983,142.79
44,0.071767,142.656
45,0.0733,142.656
46,0.07496700000000001,142.664
47,0.07663300000000001,142.887
48,0.07829999999999999,142.887
49,0.079967,142.924
50,0.081633,143.2
51,0.0833,143.543
52,0.084967,143.543
53,0.086633,143.364
54,0.0883,143.364
55,0.08996700000000001,142.82
56,0.09163300000000001,142.82
57,0.09329999999999999,142.455
58,0.094967,142.574
59,0.096633,142.559
60,0.0983,142.559
61,0.099967,142.843
62,0.101633,142.835
63,0.1033,142.835
64,0.104967,142.589
65,0.10665,142.53
66,0.108283,142.448
67,0.10995,142.448
68,0.111617,142.477
69,0.113283,142.671
70,0.11495,142.746
71,0.116617,142.746
72,0.118283,142.731
73,0.11995,142.723
74,0.121617,142.984
75,0.123283,142.984
76,0.12495,143.163
77,0.126617,143.55
78,0.128283,143.55
79,0.129933,143.617
80,0.1316,143.513
81,0.133267,143.476
82,0.134933,143.476
83,0.1366,143.513
84,0.138267,143.453
85,0.139967,143.617
86,0.1416,143.617
87,0.143267,143.647
88,0.144933,143.625
89,0.1466,143.863
90,0.148267,143.863
91,0.149933,143.513
92,0.1516,143.014
93,0.153267,142.433
94,0.154933,142.433
95,0.156683,142.053
96,0.158267,142.023
97,0.159933,142.023
98,0.1616,142.083
99,0.163267,142.44
100,0.164933,142.515
101,0.1666,142.515
102,0.168267,142.582
103,0.169933,142.88
104,0.1716,142.999
105,0.17335,142.999
106,0.174933,143.237
107,0.1766,143.2
108,0.178267,143.006
109,0.179933,143.006
110,0.1816,142.79
111,0.183267,142.589
112,0.184933,142.589
113,0.1866,142.619
114,0.188267,142.835
115,0.190033,142.932
116,0.191617,142.932
117,0.193283,142.947
118,0.194917,143.036
119,0.196583,143.044
120,0.19825,143.044
121,0.199917,142.805
122,0.201583,142.813
123,0.20325,142.567
124,0.204917,142.567
125,0.206583,142.53
126,0.20825,142.746
127,0.209917,142.746
128,0.211583,142.507
129,0.21325,142.418
130,0.214917,142.202
131,0.216583,142.202
132,0.21825,142.105
133,0.219917,142.366
134,0.221583,142.708
135,0.22325,142.708
136,0.224917,142.91
137,0.226583,142.761
138,0.22825,142.701
139,0.229917,142.701
140,0.231583,142.358
141,0.23325,142.343
142,0.234917,142.433
143,0.236583,142.433
144,0.23825,142.723
145,0.239917,143.111
146,0.241583,143.111
147,0.24325,143.096
148,0.244917,143.379
149,0.246583,142.999
150,0.24825,142.999
151,0.249917,142.604
152,0.251567,142.418
153,0.253233,142.217
154,0.2549,142.217
155,0.256567,142.336
156,0.258283,142.41
157,0.2599,142.567
158,0.261567,142.567
159,0.263233,142.813
160,0.2649,143.155
161,0.266567,143.155
162,0.268233,143.573
163,0.2699,143.841
164,0.271567,143.468
165,0.273233,143.468
166,0.274933,142.954
167,0.276567,142.448
168,0.278233,142.112
169,0.2799,142.112
170,0.281567,142.187
171,0.283233,142.194
172,0.2849,142.589
173,0.286567,142.589
174,0.288233,142.85
175,0.2899,143.163
176,0.291617,143.468
177,0.293233,143.468
178,0.2949,143.595
179,0.296567,143.781
180,0.298233,143.781
181,0.2999,143.647
182,0.301567,143.893
183,0.303233,143.565
184,0.3049,143.565
185,0.306567,143.237
186,0.308333,143.051
187,0.3099,142.626
188,0.31155,142.626
189,0.313217,142.738
190,0.314883,142.403
191,0.31655,142.254
192,0.318217,142.254
193,0.319883,141.963
194,0.32155,142.045
195,0.323217,142.045
196,0.324883,142.433
197,0.32655,142.492
198,0.328217,142.917
199,0.329883,142.917
200,0.33155,143.021
201,0.333233,143.29
202,0.334883,144.236
203,0.33655,144.236
204,0.338217,144.772
205,0.339883,145.607
206,0.34155,146.262
207,0.343217,146.262
208,0.344883,146.732
209,0.34655,148.021
210,0.348217,149.362
211,0.349883,149.362
212,0.35155,151.426
213,0.353217,153.705
214,0.354883,153.705
215,0.35655,155.963
216,0.358217,159.033
217,0.359883,162.393
218,0.36155,162.393
219,0.363217,166.409
220,0.364883,171.691
221,0.36655,177.518
222,0.368217,177.518
223,0.369883,184.245
224,0.371533,192.441
225,0.3732,200.979
226,0.374867,200.979
227,0.376533,211.053
228,0.3782,222.653
229,0.379867,222.653
230,0.381533,235.401
231,0.3832,250.034
232,0.384883,265.837
233,0.386533,265.837
234,0.3882,283.271
235,0.389867,302.784
236,0.391533,324.376
237,0.39325,324.376
238,0.394867,347.964
239,0.396533,373.982
240,0.3982,402.331
241,0.39985,402.331
242,0.401517,433.251
243,0.403183,467.375
244,0.40485,467.375
245,0.406533,504.307
246,0.408183,544.436
247,0.409917,587.65
248,0.411517,587.65
249,0.413183,634.231
250,0.41485,684.947
251,0.416517,739.627
252,0.418183,739.627
253,0.41985,798.71
254,0.421517,862.4640000000001
255,0.423183,930.622
256,0.42485,930.622
257,0.426633,1003.876
258,0.428183,1082.607
259,0.429833,1166.679
260,0.4315,1166.679
261,0.433167,1256.511
262,0.434833,1351.446
263,0.4365,1351.446
264,0.438167,1451.999
265,0.439833,1557.983
266,0.4415,1669.139
267,0.443167,1669.139
268,0.444833,1785.062
269,0.4465,1904.964
270,0.448167,2028.234
271,0.449833,2028.234
272,0.4515,2153.449
273,0.453167,2280.675
274,0.454833,2408.311
275,0.4565,2408.311
276,0.458167,2535.299
277,0.459833,2661.02
278,0.4615,2661.02
279,0.463167,2783.172
280,0.464833,2901.092
281,0.4665,3013.573
282,0.468167,3013.573
283,0.469833,3119.528
284,0.4715,3218.465
285,0.473167,3309.384
286,0.474833,3309.384
287,0.4765,3391.378
288,0.478167,3464.043
289,0.479833,3526.762
290,0.4815,3526.762
291,0.483183,3578.864
292,0.48485,3620.55
293,0.4865,3651.835
294,0.488167,3651.835
295,0.489833,3672.801
296,0.491483,3684.267
297,0.49315,3684.267
298,0.494817,3686.227
299,0.496483,3679.141
300,0.49815,3664.151
301,0.499817,3664.151
302,0.501483,3641.151
303,0.50315,3610.745
304,0.504817,3573.835
305,0.506483,3573.835
306,0.50815,3530.577
307,0.509817,3482.021
308,0.511483,3429.018
309,0.51315,3429.018
310,0.514817,3371.745
311,0.516483,3311.157
312,0.51815,3311.157
313,0.519817,3247.634
314,0.521483,3182.128
315,0.52315,3114.41
316,0.524817,3114.41
317,0.526483,3044.702
318,0.52815,2974.1
319,0.529817,2902.582
320,0.531483,2902.582
321,0.53315,2831.079
322,0.534817,2760.068
323,0.536483,2688.967
324,0.53815,2688.967
325,0.539817,2617.709
326,0.541483,2547.443
327,0.54315,2477.601
328,0.544917,2477.601
329,0.5464830000000001,2408.75
330,0.54815,2341.531
331,0.549817,2341.531
332,0.551467,2275.519
333,0.553133,2210.557
334,0.5548,2147.228
335,0.556467,2147.228
336,0.558133,2085.172
337,0.559817,2024.122
338,0.561467,1965.001
339,0.56315,1965.001
340,0.564833,1907.326
341,0.5664670000000001,1851.179
342,0.568133,1796.827
343,0.5698,1796.827
344,0.5714669999999999,1743.987
345,0.573133,1692.452
346,0.5748,1692.452
347,0.576467,1642.719
348,0.578133,1594.223
349,0.5798,1547.359
350,0.581467,1547.359
351,0.583133,1502.156
352,0.5848,1458.146
353,0.586467,1415.513
354,0.588133,1415.513
355,0.5898,1374.133
356,0.591467,1334.213
357,0.593133,1295.835
358,0.5948,1295.835
359,0.596467,1258.463
360,0.598133,1222.588
361,0.5998,1187.645
362,0.601467,1187.645
363,0.603133,1153.789
364,0.6048,1121.417
365,0.606467,1121.417
366,0.608133,1089.811
367,0.6098,1059.279
368,0.611467,1029.76
369,0.613117,1029.76
370,0.614783,1001.425
371,0.6164500000000001,974.394
372,0.618117,948.556
373,0.619783,948.556
374,0.6214499999999999,923.492
375,0.623117,899.114
376,0.624783,875.264
377,0.62645,875.264
378,0.628117,852.25
379,0.62985,829.801
380,0.631483,829.801
381,0.633117,808.686
382,0.634783,788.413
383,0.63645,768.475
384,0.638117,768.475
385,0.639783,749.476
386,0.64145,730.902
387,0.643117,712.827
388,0.644783,712.827
389,0.64645,695.4299999999999
390,0.6481170000000001,678.852
391,0.649783,662.7140000000001
392,0.65145,662.7140000000001
393,0.6531169999999999,647.5599999999999
394,0.654783,632.942
395,0.65645,632.942
396,0.658117,618.503
397,0.659783,604.54
398,0.66145,590.965
399,0.663117,590.965
400,0.664783,578.098
401,0.66645,565.626
402,0.668117,553.66
403,0.669767,553.66
404,0.6714329999999999,541.717
405,0.6731,530.0940000000001
406,0.674767,519.0890000000001
407,0.676433,519.0890000000001
408,0.6781,508.122
409,0.679767,497.796
410,0.681433,487.819
411,0.6831,487.819
412,0.684767,478.208
413,0.686433,468.925
414,0.6881,468.925
415,0.689767,459.909
416,0.6914169999999999,451.207
417,0.693083,442.81
418,0.69475,442.81
419,0.696417,434.756
420,0.698083,426.963
421,0.69975,419.252
422,0.701417,419.252
423,0.703083,411.689
424,0.70475,404.432
425,0.70645,397.407
426,0.7081,397.407
427,0.70975,390.716
428,0.711417,384.122
429,0.713083,384.122
430,0.71475,377.499
431,0.716417,371.24
432,0.718083,365.332
433,0.71975,365.332
434,0.721417,359.394
435,0.723083,353.992
436,0.72475,348.62
437,0.726417,348.62
438,0.728083,343.353
439,0.72975,338.621
440,0.7314000000000001,333.831
441,0.733067,333.831
442,0.73475,329.04
443,0.7364000000000001,324.726
444,0.738067,320.248
445,0.739733,320.248
446,0.7413999999999999,315.785
447,0.743067,311.546
448,0.744733,311.546
449,0.7464,307.053
450,0.7481,302.948
451,0.749733,299.528
452,0.7514,299.528
453,0.753067,295.81
454,0.754733,292.316
455,0.7564,288.852
456,0.758067,288.852
457,0.759733,285.186
458,0.7614,281.744
459,0.7630670000000001,278.592
460,0.764733,278.592
461,0.7664,275.575
462,0.7680670000000001,272.483
463,0.769733,272.483
464,0.7714,269.435
465,0.7730669999999999,266.328
466,0.774733,263.199
467,0.7764,263.199
468,0.778067,260.249
469,0.779733,257.984
470,0.781433,255.473
471,0.783067,255.473
472,0.784733,253.037
473,0.7864,250.988
474,0.788067,248.775
475,0.789733,248.775
476,0.7913829999999999,246.726
477,0.79305,244.513
478,0.794717,244.513
479,0.796383,241.943
480,0.79805,239.633
481,0.799717,237.733
482,0.801383,237.733
483,0.80305,235.99
484,0.804717,234.604
485,0.806383,232.756
486,0.80805,232.756
487,0.809717,230.476
488,0.811383,228.591
489,0.8130500000000001,226.311
490,0.814717,226.311
491,0.816383,224.359
492,0.8180500000000001,222.452
493,0.819717,220.723
494,0.821383,220.723
495,0.8230499999999999,219.025
496,0.824717,217.438
497,0.826383,217.438
498,0.82805,216.387
499,0.829717,214.875
500,0.831383,213.832
501,0.83305,213.832
502,0.834717,212.468
503,0.836383,210.792
504,0.83805,209.57
505,0.839717,209.57
506,0.841383,208.303
507,0.84305,207.499
508,0.8447170000000001,206.307
509,0.846383,206.307
510,0.84805,205.316
511,0.8497169999999999,204.392
512,0.85145,203.229
513,0.853033,203.229
514,0.8547,202.291
515,0.856367,200.965
516,0.858033,200.965
517,0.8597,199.527
518,0.861367,198.357
519,0.8630330000000001,197.284
520,0.8647,197.284
521,0.866383,196.598
522,0.8680330000000001,195.689
523,0.8697,194.661
524,0.871367,194.661
525,0.8730329999999999,193.685
526,0.8747,192.434
527,0.876367,191.465
528,0.878033,191.465
529,0.8797,190.504
530,0.881367,189.573
531,0.8831329999999999,188.842
532,0.8847,188.842
533,0.886367,188.023
534,0.888033,187.367
535,0.8897,187.367
536,0.891367,186.54
537,0.893033,185.668
538,0.8947000000000001,185.154
539,0.896367,185.154
540,0.898033,184.29
541,0.899767,183.56
542,0.901367,182.942
543,0.903033,182.942
544,0.9046999999999999,182.122
545,0.906367,181.429
546,0.908033,181.429
547,0.9097,180.833
548,0.91135,180.416
549,0.913017,179.969
550,0.914683,179.969
551,0.916483,179.678
552,0.918017,179.268
553,0.919683,178.464
554,0.92135,178.464
555,0.923017,177.503
556,0.9247,176.817
557,0.926383,176.623
558,0.928017,176.623
559,0.929683,176.258
560,0.93135,176.035
561,0.933017,175.424
562,0.934683,175.424
563,0.93635,174.589
564,0.938017,173.993
565,0.939683,173.993
566,0.94135,173.546
567,0.943017,172.973
568,0.9446830000000001,172.704
569,0.94635,172.704
570,0.948017,172.183
571,0.9496830000000001,171.721
572,0.95135,171.296
573,0.953017,171.296
574,0.9546829999999999,170.693
575,0.95635,170.38
576,0.958017,170.134
577,0.959683,170.134
578,0.96135,170.052
579,0.963017,169.829
580,0.964683,169.829
581,0.96635,169.449
582,0.968,168.771
583,0.9696669999999999,168.331
584,0.971333,168.331
585,0.973,168.115
586,0.974667,167.802
587,0.976333,167.392
588,0.978,167.392
589,0.979667,167.02
590,0.981333,166.23
591,0.9829830000000001,165.887
592,0.9847,165.887
593,0.986317,165.515
594,0.9879829999999999,164.941
595,0.98965,164.941
596,0.991317,164.941
597,0.9929829999999999,164.71
598,0.99465,164.516
599,0.996317,164.516
600,0.997983,164.293
601,0.99965,163.883
602,1.001417,163.585
603,1.002983,163.585
604,1.00465,163.607
605,1.006317,163.436
606,1.007983,163.22
607,1.00965,163.22
608,1.011317,162.81
609,1.012983,162.348
610,1.01465,162.05
611,1.016317,162.05
612,1.018033,161.722
613,1.01965,161.566
614,1.021317,161.566
615,1.022983,161.253
616,1.02465,161.119
617,1.026317,160.612
618,1.027983,160.612
619,1.02965,160.255
620,1.0313,160.247
621,1.032967,160.15
622,1.034767,160.15
623,1.0363,160.456
624,1.037967,160.553
625,1.039633,160.433
626,1.0413,160.433
627,1.042967,160.307
628,1.044633,160.158
629,1.0463,160.158
630,1.047967,159.755
631,1.049633,159.383
632,1.0513,158.98
633,1.052967,158.98
634,1.054633,158.742
635,1.0563,158.556
636,1.057967,158.265
637,1.059633,158.265
638,1.0613,158.019
639,1.062967,157.624
640,1.06465,157.49
641,1.0663,157.49
642,1.067967,157.401
643,1.069633,157.155
644,1.0713,156.753
645,1.072967,156.753
646,1.074633,156.581
647,1.0763,156.425
648,1.077967,156.425
649,1.079633,156.254
650,1.0813,156.283
651,1.082967,156.09
652,1.084633,156.09
653,1.0863,155.933
654,1.087967,156.023
655,1.089633,155.948
656,1.091283,155.948
657,1.09295,155.814
658,1.094617,155.471
659,1.096283,155.143
660,1.09795,155.143
661,1.099617,154.845
662,1.101283,154.912
663,1.10295,154.912
664,1.104617,155.218
665,1.106283,155.248
666,1.10795,155.151
667,1.109617,155.151
668,1.111283,154.696
669,1.11295,154.287
670,1.114617,154.085
671,1.116283,154.085
672,1.11795,154.138
673,1.119667,154.279
674,1.121283,154.391
675,1.12295,154.391
676,1.124617,154.562
677,1.126283,154.532
678,1.12795,154.57
679,1.129617,154.57
680,1.131283,154.331
681,1.13295,154.048
682,1.134617,154.048
683,1.136383,153.929
684,1.13795,153.683
685,1.139617,153.787
686,1.141317,153.787
687,1.14295,153.653
688,1.144617,153.549
689,1.146283,153.311
690,1.14795,153.311
691,1.149617,153.057
692,1.151267,152.759
693,1.153,152.692
694,1.1546,152.692
695,1.156267,152.633
696,1.157933,152.759
697,1.1596,152.759
698,1.161267,152.893
699,1.162933,152.662
700,1.1646,152.461
701,1.166267,152.461
702,1.167933,151.761
703,1.1696,151.567
704,1.171267,151.619
705,1.172933,151.619
706,1.1746,151.634
707,1.176267,151.969
708,1.177933,151.82
709,1.1796,151.82
710,1.181267,151.694
711,1.182933,151.768
712,1.1846,151.619
713,1.186267,151.619
714,1.187933,151.545
715,1.1896,151.411
716,1.191283,151.411
717,1.192933,151.515
718,1.1946,151.59
719,1.196267,151.537
720,1.197933,151.537
721,1.1996,151.21
722,1.201267,151.068
723,1.202933,150.83
724,1.2046,150.83
725,1.206267,150.785
726,1.207933,151.023
727,1.209583,150.628
728,1.211283,150.628
729,1.212983,150.479
730,1.214583,150.554
731,1.21625,150.554
732,1.217917,150.301
733,1.219583,150.256
734,1.22125,150.129
735,1.222917,150.129
736,1.224583,150.01
737,1.22625,149.95
738,1.227917,149.749
739,1.229583,149.749
740,1.23125,149.854
741,1.232917,149.623
742,1.234583,149.712
743,1.23625,149.712
744,1.237917,150.129
745,1.239583,150.032
746,1.24125,150.032
747,1.242917,149.921
748,1.244583,149.637
749,1.24625,149.101
750,1.247917,149.101
751,1.249583,148.922
752,1.25125,149.272
753,1.252917,149.563
754,1.2546,149.563
755,1.25625,149.57
756,1.257917,149.548
757,1.259583,149.235
758,1.26125,149.235
759,1.262917,149.123
760,1.264583,149.369
761,1.26625,149.578
762,1.267917,149.578
763,1.269567,149.734
764,1.271367,149.533
765,1.272883,149.533
766,1.27455,149.399
767,1.276217,149.086
768,1.277883,148.825
769,1.27955,148.825
770,1.281217,149.153
771,1.282883,148.922
772,1.28455,148.982
773,1.28625,148.982
774,1.287883,149.086
775,1.28955,148.609
776,1.291217,148.892
777,1.292883,148.892
778,1.29455,148.81
779,1.296217,148.728
780,1.297883,148.728
781,1.29955,148.967
782,1.301217,148.691
783,1.302883,148.758
784,1.304583,148.758
785,1.306217,148.721
786,1.307883,148.594
787,1.30955,148.721
788,1.311217,148.721
789,1.312883,148.49
790,1.31455,148.349
791,1.316217,148.08
792,1.317883,148.08
793,1.31955,148.043
794,1.321217,148.073
795,1.322883,148.237
796,1.32455,148.237
797,1.326217,148.393
798,1.327883,148.229
799,1.329533,148.229
800,1.3312,148.512
801,1.332867,148.274
802,1.334533,148.17
803,1.3362,148.17
804,1.337867,148.05
805,1.339533,147.551
806,1.3412,147.648
807,1.342867,147.648
808,1.344533,147.685
809,1.346217,147.671
810,1.347867,147.618
811,1.349533,147.618
812,1.3512,147.447
813,1.352867,147.358
814,1.354533,147.358
815,1.3562,147.238
816,1.357867,147.201
817,1.359533,147.127
818,1.3612,147.127
819,1.362867,147.134
820,1.364533,147.372
821,1.366217,147.648
822,1.367867,147.648
823,1.369533,147.492
824,1.3712,147.596
825,1.372883,147.723
826,1.374533,147.723
827,1.3762,147.641
828,1.377867,147.79
829,1.379533,147.641
830,1.3812,147.641
831,1.382867,147.454
832,1.384533,147.477
833,1.3862,147.477
834,1.387867,147.596
835,1.3896,147.581
836,1.391183,147.41
837,1.39285,147.41
838,1.394517,147.142
839,1.396183,146.873
840,1.39785,146.739
841,1.399517,146.739
842,1.401183,146.814
843,1.40285,146.806
844,1.404517,146.911
845,1.406183,146.911
846,1.40785,146.873
847,1.409517,146.65
848,1.411183,146.65
849,1.41285,146.747
850,1.414517,146.613
851,1.416183,146.724
852,1.41785,146.724
853,1.419517,146.717
854,1.421183,146.471
855,1.422867,146.65
856,1.424517,146.65
857,1.426183,146.709
858,1.42785,146.911
859,1.429517,147.104
860,1.431183,147.104
861,1.43285,147.142
862,1.434517,147.142
863,1.436183,147.142
864,1.43785,146.94
865,1.439517,146.94
866,1.441183,146.575
867,1.44285,146.575
868,1.444517,146.434
869,1.446183,146.426
870,1.44785,146.128
871,1.4495,146.128
872,1.451167,146.382
873,1.452833,146.426
874,1.4545,146.739
875,1.456167,146.739
876,1.457833,147
877,1.4595,146.903
878,1.461167,146.754
879,1.462833,146.754
880,1.4645,146.382
881,1.466167,146.464
882,1.467833,146.464
883,1.469517,146.24
884,1.471167,146.456
885,1.472833,146.419
886,1.474517,146.419
887,1.476167,146.039
888,1.477833,146.091
889,1.4795,145.741
890,1.481167,145.741
891,1.482833,145.86
892,1.4845,146.016
893,1.486167,146.262
894,1.487833,146.262
895,1.4895,146.382
896,1.491167,146.486
897,1.492833,146.486
898,1.4945,146.747
899,1.496167,146.694
900,1.497833,146.881
901,1.4995,146.881
902,1.501167,146.642
903,1.502833,146.508
904,1.5045,146.471
905,1.506167,146.471
906,1.507933,146.426
907,1.509483,146.389
908,1.51115,146.24
909,1.512817,146.24
910,1.514483,146.188
911,1.51615,145.927
912,1.517817,145.994
913,1.519483,145.994
914,1.52115,145.92
915,1.522817,145.927
916,1.524483,145.927
917,1.52615,145.994
918,1.527817,145.778
919,1.529483,145.957
920,1.53115,145.957
921,1.532817,145.935
922,1.534483,145.681
923,1.53615,145.711
924,1.537817,145.711
925,1.539483,145.361
926,1.54115,145.338
927,1.542817,145.487
928,1.544483,145.487
929,1.54615,145.45
930,1.547817,145.555
931,1.549483,145.555
932,1.55115,145.391
933,1.552817,145.346
934,1.554483,145.51
935,1.55615,145.51
936,1.557817,145.45
937,1.559483,145.473
938,1.56115,145.271
939,1.562817,145.271
940,1.564483,145.167
941,1.566133,145.383
942,1.5678,145.644
943,1.56945,145.644
944,1.571117,145.964
945,1.572783,145.957
946,1.57445,145.957
947,1.576117,145.659
948,1.577783,145.42
949,1.57945,145.175
950,1.581117,145.175
951,1.582783,145.1
952,1.58445,145.078
953,1.586117,145.145
954,1.587783,145.145
