"ID","sea_time","fid_signal"
1,0,144.452
2,0.001667,144.452
3,0.003333,144.362
4,0.005,144.34
5,0.006667,144.266
6,0.008333,144.266
7,0.01,144.05
8,0.011667,143.617
9,0.013333,143.215
10,0.015,143.215
11,0.016667,143.178
12,0.018333,143.379
13,0.02,143.617
14,0.021667,143.617
15,0.0234,143.938
16,0.025,144.385
17,0.026667,144.385
18,0.028333,144.817
19,0.03,144.958
20,0.031667,144.891
21,0.033333,144.891
22,0.035,144.564
23,0.036667,144.385
24,0.038333,144.437
25,0.039983,144.437
26,0.041683,144.824
27,0.043317,144.862
28,0.044983,144.854
29,0.04665,144.854
30,0.048317,144.958
31,0.049983,144.698
32,0.05165,144.698
33,0.053317,144.526
34,0.054983,144.251
35,0.05665,144.02
36,0.058317,144.02
37,0.059983,144.02
38,0.06165,144.176
39,0.063317,144.504
40,0.064983,144.504
41,0.06665,144.847
42,0.068317,144.832
43,0.069983,145.011
44,0.07165000000000001,145.011
45,0.07331699999999999,144.973
46,0.07498299999999999,144.653
47,0.07665,144.653
48,0.078317,144.593
49,0.079983,144.37
50,0.08165,144.333
51,0.083317,144.333
52,0.084983,144.534
53,0.08665,144.444
54,0.08831700000000001,144.638
55,0.08998299999999999,144.638
56,0.09165,144.795
57,0.093317,144.43
58,0.094983,144.593
59,0.09665,144.593
60,0.098317,144.534
61,0.099967,144.243
62,0.101633,144.526
63,0.1033,144.526
64,0.104967,144.638
65,0.106633,144.571
66,0.108383,144.571
67,0.109967,144.713
68,0.111633,144.564
69,0.1133,144.251
70,0.114967,144.251
71,0.116633,144.05
72,0.1183,144.146
73,0.119967,144.355
74,0.121633,144.355
75,0.1233,144.452
76,0.124967,144.765
77,0.126633,144.765
78,0.1283,144.765
79,0.129967,144.653
80,0.131633,144.802
81,0.1333,144.802
82,0.134967,144.549
83,0.136633,144.34
84,0.1383,144.236
85,0.139967,144.236
86,0.14175,144.348
87,0.1433,144.541
88,0.144967,144.921
89,0.146633,144.921
90,0.1483,145.011
91,0.149967,145.122
92,0.151633,145.234
93,0.1533,145.234
94,0.154967,145.018
95,0.156633,145.1
96,0.158283,144.765
97,0.15995,144.765
98,0.161617,144.891
99,0.163283,144.944
100,0.16495,144.944
101,0.166617,145.04
102,0.168283,145.011
103,0.16995,144.735
104,0.171617,144.735
105,0.173283,144.452
106,0.17495,144.4
107,0.176617,144.497
108,0.178283,144.497
109,0.17995,144.586
110,0.181617,144.981
111,0.1833,145.07
112,0.18495,145.07
113,0.186617,145.212
114,0.188283,145.204
115,0.18995,145.204
116,0.191617,144.854
117,0.193283,144.556
118,0.19495,144.459
119,0.196617,144.459
120,0.198283,144.497
121,0.19995,144.713
122,0.201617,144.795
123,0.203283,144.795
124,0.20495,144.765
125,0.206617,144.511
126,0.208283,144.504
127,0.20995,144.504
128,0.211617,144.444
129,0.213283,144.452
130,0.21495,144.817
131,0.216617,144.817
132,0.218283,144.772
133,0.219933,144.631
134,0.221617,144.631
135,0.223267,144.616
136,0.224933,144.616
137,0.226667,144.504
138,0.228267,144.504
139,0.229933,144.616
140,0.231633,144.564
141,0.233267,144.251
142,0.234933,144.251
143,0.2366,144.273
144,0.238267,144.489
145,0.239933,144.519
146,0.2416,144.519
147,0.243267,144.362
148,0.244933,144.325
149,0.2466,144.325
150,0.248267,144.146
151,0.249933,144.154
152,0.2516,144.34
153,0.253267,144.34
154,0.254933,144.251
155,0.2566,144.057
156,0.258267,144.072
157,0.260017,144.072
158,0.2616,144.206
159,0.26325,144.31
160,0.264917,144.601
161,0.266583,144.601
162,0.26825,144.355
163,0.269917,143.923
164,0.271583,143.923
165,0.27325,143.923
166,0.274917,143.833
167,0.276583,144.012
168,0.27825,144.012
169,0.2799,144.556
170,0.281567,144.422
171,0.283233,144.236
172,0.2849,144.236
173,0.286567,144.102
174,0.288233,143.729
175,0.2899,143.997
176,0.291567,143.997
177,0.293233,144.131
178,0.2949,144.415
179,0.296567,144.795
180,0.298233,144.795
181,0.2999,144.787
182,0.301567,145.279
183,0.303233,145.279
184,0.3049,145.771
185,0.306567,146.225
186,0.308233,147.119
187,0.3099,147.119
188,0.311567,147.991
189,0.313233,149.041
190,0.314933,150.77
191,0.316567,150.77
192,0.318233,153.169
193,0.3199,156.179
194,0.321567,159.837
195,0.323233,159.837
196,0.3249,164.703
197,0.326567,170.849
198,0.32825,170.849
199,0.3299,178.099
200,0.331567,187.315
201,0.333233,197.992
202,0.3349,197.992
203,0.336567,210.524
204,0.338217,225.894
205,0.339883,243.857
206,0.34155,243.857
207,0.343217,264.682
208,0.344967,288.539
209,0.34655,315.756
210,0.348217,315.756
211,0.349883,346.445
212,0.35155,381.656
213,0.353217,421.003
214,0.354883,421.003
215,0.35655,464.924
216,0.358217,514.12
217,0.359883,514.12
218,0.36155,568.241
219,0.363217,628.449
220,0.364883,695.3630000000001
221,0.36655,695.3630000000001
222,0.368217,769.436
223,0.369883,851.288
224,0.37155,942.074
225,0.373217,942.074
226,0.374883,1042.672
227,0.37655,1154.87
228,0.378333,1280.755
229,0.379883,1280.755
230,0.38155,1422.711
231,0.383217,1583.219
232,0.384883,1583.219
233,0.38655,1765.259
234,0.388217,1971.871
235,0.389883,2206.497
236,0.39155,2206.497
237,0.393217,2472.848
238,0.394883,2774.395
239,0.39655,3114.924
240,0.398217,3114.924
241,0.399867,3496.55
242,0.401533,3920.265
243,0.403233,4386.253
244,0.404933,4386.253
245,0.406533,4893.355
246,0.4082,5439.021
247,0.409867,6019.727
248,0.411533,6019.727
249,0.4132,6630.167
250,0.414867,7264.093
251,0.416533,7264.093
252,0.4182,7913.448
253,0.419867,8569.821
254,0.421533,9223.625
255,0.4232,9223.625
256,0.424867,9863.950000000001
257,0.426533,10481.082
258,0.4282,11063.837
259,0.429867,11063.837
260,0.431533,11601.694
261,0.4332,12084.723
262,0.434867,12502.894
263,0.436533,12502.894
264,0.4382,12848.504
265,0.439867,13115.115
266,0.441533,13115.115
267,0.4432,13298.861
268,0.444867,13398.313
269,0.446533,13412.773
270,0.4482,13412.773
271,0.449883,13345.159
272,0.451533,13199.277
273,0.4532,12980.849
274,0.454867,12980.849
275,0.456533,12697.995
276,0.458183,12358.032
277,0.45985,11969.269
278,0.461517,11969.269
279,0.463233,11540.51
280,0.46485,11080.086
281,0.466517,11080.086
282,0.468183,10596.029
283,0.46985,10095.693
284,0.471517,9585.127
285,0.473183,9585.127
286,0.474867,9070.701999999999
287,0.476583,8557.684999999999
288,0.478183,8050.576
289,0.47995,8050.576
290,0.481517,7553.607
291,0.483183,7069.558
292,0.48485,6602.63
293,0.486517,6602.63
294,0.488183,6154.44
295,0.48985,5723.871
296,0.491517,5312.651
297,0.493183,5312.651
298,0.49485,4920.877
299,0.496617,4550.338
300,0.498183,4550.338
301,0.49985,4203.982
302,0.501517,3881.201
303,0.503183,3580.503
304,0.50485,3580.503
305,0.506517,3300.905
306,0.5081830000000001,3041.521
307,0.50985,2801.634
308,0.511517,2801.634
309,0.5131829999999999,2580.576
310,0.51485,2377.413
311,0.516517,2191.216
312,0.5181829999999999,2191.216
313,0.519833,2020.665
314,0.5215,1864.895
315,0.523167,1864.895
316,0.524833,1722.805
317,0.5265,1593.366
318,0.5281670000000001,1475.468
319,0.529833,1475.468
320,0.5315,1368.18
321,0.5331669999999999,1270.279
322,0.534833,1181.476
323,0.5365,1181.476
324,0.538167,1100.674
325,0.539833,1027.502
326,0.5415,961.229
327,0.543167,961.229
328,0.544833,900.2910000000001
329,0.5465,845.246
330,0.548183,794.925
331,0.549833,794.925
332,0.5515,749.245
333,0.553167,708.058
334,0.554817,708.058
335,0.5564829999999999,670.3440000000001
336,0.55815,635.698
337,0.559817,603.78
338,0.561483,603.78
339,0.56315,574.76
340,0.564817,548.191
341,0.566483,524.193
342,0.56815,524.193
343,0.569817,502.296
344,0.571483,481.918
345,0.57315,463.009
346,0.574817,463.009
347,0.576483,445.575
348,0.5781500000000001,429.668
349,0.5798,429.668
350,0.581483,415.131
351,0.583133,401.989
352,0.5848,389.39
353,0.586467,389.39
354,0.588133,377.737
355,0.5898,366.889
356,0.591467,356.89
357,0.593133,356.89
358,0.5948,347.741
359,0.596467,339.344
360,0.5982,331.528
361,0.5998,331.528
362,0.601467,323.601
363,0.603133,316.463
364,0.6048,309.579
365,0.606467,309.579
366,0.608133,303.216
367,0.6098,297.531
368,0.611467,297.531
369,0.613133,292.1
370,0.6149,287.034
371,0.616467,282.392
372,0.618133,282.392
373,0.6198,278.13
374,0.621467,273.921
375,0.623133,269.815
376,0.624817,269.815
377,0.626467,265.725
378,0.62815,262.074
379,0.6298,258.513
380,0.631567,258.513
381,0.6331329999999999,255.235
382,0.6348,252.314
383,0.636467,252.314
384,0.638117,249.11
385,0.639783,246.257
386,0.64145,243.753
387,0.643117,243.753
388,0.644783,241.369
389,0.64645,239.015
390,0.6481170000000001,236.951
391,0.649783,236.951
392,0.65145,234.425
393,0.6531169999999999,231.929
394,0.654783,229.716
395,0.65645,229.716
396,0.658117,227.682
397,0.659783,225.991
398,0.66145,225.991
399,0.663117,224.113
400,0.664783,222.698
401,0.66645,221.014
402,0.668117,221.014
403,0.669783,219.338
404,0.67145,217.728
405,0.673117,216.007
406,0.674783,216.007
407,0.67645,214.472
408,0.678117,212.982
409,0.679783,211.544
410,0.68145,211.544
411,0.683117,210.054
412,0.684783,208.959
413,0.68645,207.812
414,0.688117,207.812
415,0.689783,206.642
416,0.69145,205.562
417,0.693117,205.562
418,0.694783,204.191
419,0.69645,202.797
420,0.698117,202
421,0.6998,202
422,0.701433,201.136
423,0.7030999999999999,200.361
424,0.704767,200.056
425,0.706433,200.056
426,0.7081,199.139
427,0.709767,198.171
428,0.711433,197.105
429,0.7131,197.105
430,0.714767,195.749
431,0.716483,194.713
432,0.7181,194.713
433,0.719767,193.842
434,0.721433,193.194
435,0.7231,192.739
436,0.7247670000000001,192.739
437,0.726433,192.083
438,0.7281,191.428
439,0.7297670000000001,190.541
440,0.731433,190.541
441,0.733117,189.692
442,0.7347669999999999,189.021
443,0.736433,188.425
444,0.7381,188.425
445,0.739767,188.164
446,0.741433,187.598
447,0.7431,187.047
448,0.744767,187.047
449,0.746433,186.794
450,0.7481,186.376
451,0.749883,186.153
452,0.751433,186.153
453,0.7531,185.728
454,0.754767,184.909
455,0.756433,184.909
456,0.7581,184.022
457,0.75975,182.986
458,0.761417,182.293
459,0.763083,182.293
460,0.76475,181.891
461,0.766417,181.682
462,0.768083,181.466
463,0.76975,181.466
464,0.771417,180.997
465,0.773083,180.408
466,0.77475,180.408
467,0.776417,179.85
468,0.778083,179.388
469,0.7797500000000001,178.948
470,0.781417,178.948
471,0.783083,178.434
472,0.7847499999999999,177.898
473,0.786417,177.436
474,0.788083,177.436
475,0.78975,177.018
476,0.7914330000000001,176.758
477,0.793083,176.355
478,0.79475,176.355
479,0.796417,176.005
480,0.798083,175.662
481,0.79975,175.521
482,0.801417,175.521
483,0.803083,175.461
484,0.80475,175.267
485,0.8064170000000001,175.267
486,0.808083,175.223
487,0.80975,174.5
488,0.8114170000000001,174.046
489,0.813083,174.046
490,0.81475,173.733
491,0.8164169999999999,173.524
492,0.818067,173.628
493,0.819733,173.628
494,0.8214,173.39
495,0.823067,173.07
496,0.824733,172.466
497,0.8264,172.466
498,0.828067,171.907
499,0.8297330000000001,171.632
500,0.8314,171.632
501,0.833067,171.363
502,0.834833,171.103
503,0.8364,170.894
504,0.838067,170.894
505,0.839733,170.305
506,0.8414,169.851
507,0.843067,169.367
508,0.8447170000000001,169.367
509,0.846383,169.255
510,0.84805,169.195
511,0.8497169999999999,169.21
512,0.851383,169.21
513,0.85305,169.285
514,0.8547169999999999,169.016
515,0.856383,169.016
516,0.85805,168.562
517,0.859717,168.1
518,0.861383,168.055
519,0.86305,168.055
520,0.864717,167.809
521,0.866383,167.802
522,0.86815,167.795
523,0.869717,167.795
524,0.871383,167.355
525,0.87305,167.035
526,0.874717,166.968
527,0.876383,166.968
528,0.878033,166.625
529,0.879733,166.476
530,0.881367,166.558
531,0.883033,166.558
532,0.8847,165.969
533,0.886367,165.887
534,0.888033,165.887
535,0.8897,165.828
536,0.891367,165.366
537,0.893033,165.47
538,0.8947000000000001,165.47
539,0.896367,165.403
540,0.898033,165.164
541,0.8997000000000001,164.941
542,0.901367,164.941
543,0.903033,164.643
544,0.9046999999999999,164.352
545,0.906367,164.293
546,0.908033,164.293
547,0.909717,164.591
548,0.911367,164.844
549,0.913033,164.844
550,0.9147,164.598
551,0.916367,164.434
552,0.918033,164.106
553,0.9197,164.106
554,0.921367,163.734
555,0.923033,163.667
556,0.9247,163.555
557,0.9263670000000001,163.555
558,0.928033,163.108
559,0.9297,163.034
560,0.9313669999999999,163.026
561,0.933033,163.026
562,0.9347,162.646
563,0.9363669999999999,162.639
564,0.938033,162.333
565,0.939683,162.333
566,0.94135,162.162
567,0.943017,161.961
568,0.9446830000000001,161.961
569,0.94635,161.797
570,0.948017,161.842
571,0.9496830000000001,161.454
572,0.95135,161.454
573,0.9530999999999999,161.506
574,0.9546829999999999,161.365
575,0.95635,161.096
576,0.958017,161.096
577,0.959683,160.888
578,0.96135,160.635
579,0.963017,160.515
580,0.9647,160.515
581,0.96635,160.15
582,0.968017,160.158
583,0.969683,160.158
584,0.97135,160.12
585,0.973017,160.128
586,0.974683,160.262
587,0.9763500000000001,160.262
588,0.978017,160.299
589,0.979683,160.106
590,0.9813499999999999,159.934
591,0.983017,159.934
592,0.984683,159.793
593,0.986433,159.688
594,0.988017,159.688
595,0.989683,159.688
596,0.99135,159.942
597,0.993017,159.979
598,0.994683,159.986
599,0.99635,159.986
600,0.998,159.696
601,0.999667,159.301
602,1.001333,159.301
603,1.003,159.1
604,1.004667,158.779
605,1.006333,158.615
606,1.008,158.615
607,1.009667,158.28
608,1.011333,158.243
609,1.013,158.25
610,1.014667,158.25
611,1.016333,158.489
612,1.018,158.831
613,1.019667,158.556
614,1.021333,158.556
615,1.023,158.317
616,1.024667,158.325
617,1.026333,158.325
618,1.028017,157.893
619,1.029667,157.684
620,1.031333,157.662
621,1.033,157.662
622,1.034667,157.364
623,1.036333,157.334
624,1.038,157.58
625,1.039667,157.58
626,1.041333,157.878
627,1.043,157.915
628,1.044667,157.893
629,1.04635,157.893
630,1.048,157.669
631,1.049667,157.163
632,1.051333,157.163
633,1.053,157.11
634,1.054683,156.961
635,1.056333,156.656
636,1.057983,156.656
637,1.05965,156.596
638,1.061317,156.298
639,1.062983,156.552
640,1.06465,156.552
641,1.066317,156.783
642,1.067983,156.723
643,1.06965,156.768
644,1.071383,156.768
645,1.072983,156.663
646,1.07465,156.552
647,1.076317,156.447
648,1.077983,156.447
649,1.07965,156.276
650,1.081317,155.956
651,1.082983,155.956
652,1.08465,156
653,1.086317,156.052
654,1.087983,156.298
655,1.08965,156.298
656,1.091317,156.015
657,1.092983,155.702
658,1.09465,155.546
659,1.096317,155.546
660,1.097983,154.972
661,1.09965,154.957
662,1.101317,154.89
663,1.102983,154.89
664,1.104767,154.965
665,1.106317,155.255
666,1.107983,155.255
667,1.10965,155.158
668,1.111317,155.21
669,1.112983,155.129
670,1.11465,155.129
671,1.116317,155.061
672,1.117983,155.292
673,1.119633,155.307
674,1.1213,155.307
675,1.122967,155.114
676,1.124633,154.912
677,1.1263,154.801
678,1.127967,154.801
679,1.12965,154.577
680,1.13135,154.682
681,1.132967,154.927
682,1.134633,154.927
683,1.136283,154.778
684,1.13795,154.816
685,1.139617,154.816
686,1.141283,154.875
687,1.14295,154.607
688,1.144617,154.51
689,1.146283,154.51
690,1.14795,154.473
691,1.149617,154.011
692,1.151283,154.085
693,1.15295,154.085
694,1.154617,154.056
695,1.156283,154.003
696,1.15795,154.063
697,1.159617,154.063
698,1.161283,153.966
699,1.16295,154.294
700,1.164617,154.294
701,1.166283,154.428
702,1.16795,154.577
703,1.169617,154.167
704,1.171283,154.167
705,1.17295,153.452
706,1.174617,153.05
707,1.176283,152.752
708,1.17795,152.752
709,1.1796,152.744
710,1.181267,152.864
711,1.182933,152.767
712,1.1846,152.767
713,1.186267,152.871
714,1.187933,152.908
715,1.18965,152.923
716,1.191267,152.923
717,1.192933,152.931
718,1.1946,152.789
719,1.1963,152.789
720,1.198,152.826
721,1.1996,152.938
722,1.201267,152.953
723,1.20295,152.953
724,1.2046,152.916
725,1.206267,152.834
726,1.207933,153.065
727,1.2096,153.065
728,1.211267,153.273
729,1.212933,153.251
730,1.2146,153.251
731,1.216267,153.251
732,1.217933,153.206
733,1.2196,152.975
734,1.221267,152.975
735,1.223,152.603
736,1.2246,152.543
737,1.226267,152.402
738,1.227933,152.402
739,1.2296,152.454
740,1.231267,152.67
741,1.232933,152.677
742,1.2346,152.677
743,1.236267,152.387
744,1.237917,152.312
745,1.239583,152.461
746,1.24125,152.461
747,1.242917,152.23
748,1.244583,152.245
749,1.24625,152.245
750,1.247917,152.238
751,1.249583,152.148
752,1.25125,152.238
753,1.252917,152.238
754,1.254583,152.022
755,1.25625,152.111
756,1.257917,151.888
757,1.259583,151.888
758,1.26125,152.23
759,1.262917,152.469
760,1.264583,152.126
761,1.266267,152.126
762,1.267917,152.394
763,1.269583,152.066
764,1.27125,152.007
765,1.272917,152.007
766,1.274583,152.133
767,1.27625,152.007
768,1.277917,152.007
769,1.279583,151.947
770,1.281267,152.007
771,1.282917,151.947
772,1.284583,151.947
773,1.28625,151.828
774,1.287917,151.768
775,1.289583,151.686
776,1.29125,151.686
777,1.292917,151.433
778,1.294583,151.381
779,1.29625,151.508
780,1.2979,151.508
781,1.299567,151.239
782,1.301233,151.21
783,1.3029,151.21
784,1.304567,151.269
785,1.306233,150.971
786,1.307933,150.822
787,1.309567,150.822
788,1.311233,150.979
789,1.3129,150.643
790,1.314567,150.822
791,1.316233,150.822
792,1.3179,151.224
793,1.319567,151.262
794,1.321233,151.254
795,1.3229,151.254
796,1.324617,151.083
797,1.326233,151.061
798,1.3279,151.187
799,1.329567,151.187
800,1.331233,151.336
801,1.3329,151.254
802,1.334567,151.254
803,1.336233,150.971
804,1.3379,150.71
805,1.339567,150.532
806,1.34135,150.532
807,1.3429,150.554
808,1.344567,150.584
809,1.346233,150.628
810,1.3479,150.628
811,1.349567,151.068
812,1.351233,151.12
813,1.3529,151.135
814,1.354567,151.135
815,1.356233,151.321
816,1.357883,151.284
817,1.35955,151.284
818,1.361217,151.508
819,1.362883,151.537
820,1.36455,151.247
821,1.366217,151.247
822,1.367883,150.815
823,1.36955,150.688
824,1.371217,150.36
825,1.372883,150.36
826,1.37455,150.286
827,1.376217,150.636
828,1.377883,150.226
829,1.37955,150.226
830,1.381217,150.36
831,1.382883,150.33
832,1.38455,149.854
833,1.386217,149.854
834,1.387883,150.189
835,1.38955,150.241
836,1.391217,150.241
837,1.392883,150.204
838,1.39455,150.397
839,1.396217,150.129
840,1.397883,150.129
841,1.39955,150.174
842,1.401217,149.958
843,1.402883,149.794
844,1.40455,149.794
845,1.406217,149.63
846,1.407883,149.585
847,1.40955,150.017
848,1.411217,150.017
849,1.412883,150.099
850,1.41455,150.129
851,1.416217,150.129
852,1.417867,150.099
853,1.419533,149.988
854,1.4212,150.174
855,1.422867,150.174
856,1.424533,150.241
857,1.4262,150.07
858,1.42785,149.839
859,1.429517,149.839
860,1.431183,149.749
861,1.43285,149.891
862,1.434517,149.995
863,1.436183,149.995
864,1.43785,150.211
865,1.439517,150.047
866,1.441183,150.047
867,1.442917,149.764
868,1.444517,149.801
869,1.446183,149.921
870,1.44785,149.921
871,1.449517,150.189
872,1.451183,150.338
873,1.45285,150.047
874,1.454517,150.047
875,1.456183,149.57
876,1.45785,149.31
877,1.459617,149.526
878,1.461183,149.526
879,1.46285,149.801
880,1.464517,150.062
881,1.466183,150.07
882,1.46785,150.07
883,1.469517,149.794
884,1.471183,149.347
885,1.47285,149.347
886,1.474517,149.012
887,1.4763,148.907
888,1.477833,149.019
889,1.479517,149.019
890,1.481167,149.086
891,1.482833,149.421
892,1.4845,149.496
893,1.486167,149.496
894,1.487833,149.637
895,1.4895,149.697
896,1.491167,149.392
897,1.492833,149.392
898,1.4945,149.146
899,1.496167,148.758
900,1.497833,148.758
901,1.4995,149.265
902,1.501167,149.66
903,1.502833,149.63
904,1.5045,149.63
905,1.506167,149.518
906,1.507833,149.257
907,1.5095,148.818
908,1.511167,148.818
909,1.512833,148.751
910,1.5145,148.699
911,1.516167,148.818
912,1.517833,148.818
913,1.5195,148.93
914,1.521167,149.108
915,1.522833,149.459
916,1.5245,149.459
917,1.526167,149.041
918,1.52785,148.863
919,1.5295,148.863
920,1.531167,148.788
921,1.532833,148.647
922,1.5345,148.818
923,1.536167,148.818
924,1.537817,148.788
925,1.539483,148.751
926,1.54115,148.773
927,1.542817,148.773
928,1.544533,148.512
929,1.546183,148.773
930,1.547817,149.019
931,1.549483,149.019
932,1.55115,148.87
933,1.552817,149.198
934,1.554483,149.198
935,1.55615,149.012
936,1.557817,148.833
937,1.559483,148.907
938,1.561183,148.907
939,1.562817,148.609
940,1.564483,148.505
941,1.56615,148.565
942,1.567817,148.565
943,1.569483,148.602
944,1.57115,148.632
945,1.572817,148.84
946,1.574483,148.84
947,1.57615,148.565
948,1.577867,148.177
949,1.579483,148.274
950,1.58115,148.274
951,1.582817,148.363
952,1.584483,148.393
953,1.58615,148.393
954,1.587817,148.505
