"ID","sea_time","fid_signal"
1,0,1196.414
2,0.001667,1196.414
3,0.003333,1195.595
4,0.005,1196.265
5,0.00665,1196.191
6,0.008317,1196.191
7,0.009983000000000001,1192.316
8,0.01165,1191.795
9,0.013317,1187.846
10,0.014983,1187.846
11,0.016767,1187.101
12,0.018317,1187.846
13,0.019983,1189.485
14,0.02165,1189.485
15,0.023317,1189.783
16,0.024983,1187.548
17,0.02665,1186.654
18,0.028317,1186.654
19,0.029983,1183.525
20,0.03165,1187.697
21,0.033417,1189.858
22,0.034983,1189.858
23,0.03665,1195.148
24,0.038317,1197.979
25,0.039983,1197.979
26,0.04165,1196.638
27,0.043317,1194.328
28,0.044983,1189.634
29,0.04665,1189.634
30,0.048317,1189.187
31,0.049983,1187.697
32,0.05165,1188.07
33,0.053317,1188.07
34,0.054983,1187.697
35,0.05665,1187.995
36,0.058317,1187.995
37,0.059983,1190.826
38,0.06165,1193.285
39,0.063317,1196.638
40,0.064983,1196.638
41,0.066633,1197.383
42,0.0683,1193.881
43,0.069967,1191.646
44,0.071633,1191.646
45,0.0733,1187.474
46,0.07496700000000001,1184.046
47,0.07663300000000001,1184.791
48,0.07829999999999999,1184.791
49,0.079967,1184.419
50,0.08165,1187.623
51,0.0833,1191.199
52,0.084967,1191.199
53,0.086617,1190.305
54,0.088283,1191.422
55,0.08995,1191.422
56,0.091617,1192.465
57,0.093283,1189.187
58,0.09495000000000001,1189.783
59,0.09661699999999999,1189.783
60,0.098283,1189.187
61,0.09995,1188.219
62,0.101633,1189.56
63,0.103283,1189.56
64,0.10495,1188.591
65,0.106617,1188.368
66,0.1083,1186.729
67,0.10995,1186.729
68,0.111617,1187.25
69,0.113283,1187.846
70,0.11495,1187.846
71,0.116617,1189.336
72,0.1184,1190.528
73,0.11995,1192.018
74,0.121617,1192.018
75,0.123283,1190.975
76,0.12495,1187.846
77,0.1266,1185.387
78,0.128267,1185.387
79,0.12995,1181.588
80,0.1316,1181.364
81,0.133267,1181.886
82,0.13505,1181.886
83,0.1366,1184.344
84,0.138267,1185.685
85,0.139933,1190.23
86,0.1416,1190.23
87,0.143267,1192.54
88,0.144933,1193.21
89,0.1466,1193.21
90,0.148267,1192.391
91,0.149933,1192.242
92,0.1516,1190.677
93,0.153267,1190.677
94,0.154933,1185.611
95,0.1566,1186.132
96,0.158267,1185.089
97,0.159933,1185.089
98,0.1616,1186.43
99,0.163267,1189.932
100,0.164933,1188.666
101,0.1666,1188.666
102,0.168267,1188.815
103,0.169933,1186.43
104,0.1716,1186.43
105,0.173267,1184.717
106,0.174933,1186.43
107,0.1766,1182.78
108,0.178267,1182.78
109,0.179933,1184.27
110,0.1816,1184.94
111,0.183267,1187.176
112,0.184933,1187.176
113,0.186583,1190.677
114,0.18825,1191.199
115,0.189917,1190.752
116,0.191583,1190.752
117,0.19325,1186.43
118,0.194917,1183.748
119,0.196583,1183.748
120,0.19825,1182.631
121,0.19995,1183.972
122,0.201583,1187.25
123,0.20325,1187.25
124,0.204917,1187.623
125,0.206583,1186.877
126,0.20825,1187.921
127,0.209917,1187.921
128,0.211583,1186.356
129,0.21325,1186.058
130,0.214917,1186.058
131,0.216583,1186.058
132,0.21825,1185.313
133,0.219967,1183.823
134,0.221583,1181.886
135,0.22325,1181.886
136,0.224917,1182.556
137,0.226583,1179.352
138,0.22825,1179.352
139,0.229917,1179.203
140,0.231583,1182.407
141,0.23325,1181.513
142,0.234917,1181.513
143,0.236683,1182.631
144,0.23825,1181.886
145,0.239917,1179.278
146,0.241583,1179.278
147,0.24325,1182.407
148,0.2449,1183.376
149,0.246567,1185.238
150,0.248233,1185.238
151,0.2499,1185.834
152,0.251567,1183.376
153,0.253333,1182.333
154,0.2549,1182.333
155,0.256567,1184.046
156,0.258233,1185.164
157,0.2599,1185.164
158,0.261567,1185.536
159,0.263233,1185.164
160,0.2649,1182.035
161,0.266567,1182.035
162,0.268233,1179.203
163,0.270017,1180.545
164,0.271567,1183.227
165,0.273233,1183.227
166,0.2749,1185.387
167,0.276567,1188.591
168,0.278233,1189.56
169,0.2799,1189.56
170,0.281567,1187.846
171,0.283233,1186.132
172,0.2849,1186.132
173,0.286567,1185.387
174,0.28825,1183.227
175,0.2899,1184.27
176,0.291567,1184.27
177,0.293233,1187.101
178,0.294917,1186.877
179,0.296567,1183.748
180,0.298233,1183.748
181,0.2999,1180.768
182,0.301567,1177.117
183,0.303233,1175.851
184,0.3049,1175.851
185,0.30655,1177.415
186,0.308217,1179.948
187,0.309883,1179.948
188,0.31155,1179.352
189,0.313217,1179.799
190,0.314883,1180.172
191,0.31655,1180.172
192,0.318217,1178.682
193,0.319883,1180.246
194,0.32155,1179.278
195,0.323217,1179.278
196,0.324883,1181.364
197,0.32655,1183.972
198,0.328217,1187.772
199,0.329883,1187.772
200,0.33155,1190.305
201,0.333217,1192.093
202,0.334883,1193.509
203,0.33655,1193.509
204,0.338233,1192.689
205,0.339883,1196.563
206,0.34155,1196.563
207,0.343217,1198.5
208,0.344883,1204.163
209,0.34655,1212.507
210,0.348217,1212.507
211,0.349883,1218.692
212,0.35155,1228.452
213,0.353217,1236.573
214,0.354933,1236.573
215,0.35655,1247.153
216,0.358217,1263.693
217,0.359883,1282.319
218,0.36155,1282.319
219,0.363217,1305.267
220,0.364883,1334.175
221,0.366533,1334.175
222,0.3682,1365.691
223,0.369867,1403.391
224,0.371583,1444.072
225,0.3732,1444.072
226,0.374867,1487.136
227,0.376533,1539.066
228,0.378183,1594.797
229,0.37985,1594.797
230,0.381517,1662.746
231,0.383183,1738.071
232,0.38485,1821.816
233,0.386517,1821.816
234,0.388267,1914.576
235,0.38985,2015.307
236,0.391517,2015.307
237,0.393183,2132.282
238,0.39485,2263.337
239,0.396517,2419.651
240,0.398183,2419.651
241,0.39985,2603.829
242,0.401517,2823.249
243,0.403183,3093.928
244,0.40485,3093.928
245,0.406517,3430.694
246,0.408183,3869.161
247,0.40985,4446.954
248,0.411517,4446.954
249,0.413183,5209.521
250,0.41485,6215.2
251,0.416517,7525.012
252,0.418183,7525.012
253,0.41985,9210.333000000001
254,0.421517,11353.194
255,0.423183,11353.194
256,0.42485,14034.51
257,0.4265,17335.043
258,0.428167,21329
259,0.429833,21329
260,0.4315,26065.41
261,0.433183,31561.553
262,0.434833,37783.012
263,0.4365,37783.012
264,0.438167,44626.297
265,0.439833,51947.906
266,0.4415,59545.563
267,0.443167,59545.563
268,0.44485,67188.219
269,0.4465,74648.711
270,0.448167,74648.711
271,0.449833,81681.234
272,0.4515,88071.156
273,0.453167,93636.586
274,0.454833,93636.586
275,0.4565,98230.766
276,0.458167,101756.898
277,0.459833,104159.344
278,0.4615,104159.344
279,0.463167,105431.602
280,0.464833,105606.539
281,0.4665,104751.516
282,0.468167,104751.516
283,0.469833,102967.766
284,0.4715,100377.422
285,0.473167,97110.79700000001
286,0.474833,97110.79700000001
287,0.4765,93305.781
288,0.478167,89106.414
289,0.479833,89106.414
290,0.4815,84631.07000000001
291,0.483167,79990.25
292,0.484833,75291.992
293,0.4865,75291.992
294,0.48815,70613.023
295,0.48985,66022.79700000001
296,0.491483,61580.688
297,0.49315,61580.688
298,0.494817,57326.109
299,0.496483,53288.563
300,0.49815,49493.836
301,0.499817,49493.836
302,0.501483,45949.297
303,0.50315,42656.66
304,0.504817,42656.66
305,0.506583,39612.055
306,0.50815,36810.637
307,0.509817,34239.145
308,0.511483,34239.145
309,0.51315,31881.406
310,0.514817,29727.221
311,0.516483,27751.922
312,0.51815,27751.922
313,0.519817,25949.627
314,0.521483,24300.814
315,0.52315,22789.463
316,0.524817,22789.463
317,0.526483,21410.957
318,0.52815,20145.4
319,0.529817,18987.805
320,0.531483,18987.805
321,0.53315,17925.576
322,0.534817,16946.346
323,0.536483,16946.346
324,0.53815,16041.845
325,0.539817,15206.635
326,0.541483,14432.967
327,0.54315,14432.967
328,0.5448,13715.923
329,0.546467,13053.566
330,0.548133,12434.497
331,0.5498,12434.497
332,0.551467,11856.705
333,0.553133,11314.452
334,0.5548,10806.173
335,0.556467,10806.173
336,0.558133,10334.179
337,0.5598,9896.084999999999
338,0.561467,9896.084999999999
339,0.563133,9484.440000000001
340,0.5648,9098.351000000001
341,0.5664670000000001,8733.646000000001
342,0.568133,8733.646000000001
343,0.569833,8386.745999999999
344,0.5714669999999999,8065.402
345,0.573133,7758.811
346,0.5748,7758.811
347,0.576467,7468.686
348,0.578133,7197.335
349,0.5798,6941.408
350,0.581467,6941.408
351,0.583133,6701.276
352,0.5848,6470.904
353,0.586483,6249.547
354,0.588133,6249.547
355,0.5898,6038.919
356,0.59155,5837.679
357,0.593133,5837.679
358,0.5948,5651.563
359,0.596467,5476.028
360,0.598133,5302.354
361,0.5998,5302.354
362,0.601467,5139.038
363,0.603133,4980.415
364,0.6048,4831.329
365,0.60645,4831.329
366,0.60815,4693.27
367,0.609783,4558.34
368,0.61145,4431.084
369,0.613117,4431.084
370,0.614783,4306.287
371,0.6164500000000001,4190.207
372,0.618117,4190.207
373,0.619783,4079.491
374,0.6214499999999999,3974.661
375,0.623117,3872.737
376,0.6249169999999999,3872.737
377,0.62645,3773.198
378,0.628117,3678.352
379,0.6298,3588.274
380,0.63145,3588.274
381,0.633117,3503.71
382,0.634783,3421.158
383,0.63645,3347.173
384,0.638117,3347.173
385,0.639783,3272.891
386,0.64145,3202.036
387,0.643117,3202.036
388,0.644783,3132.895
389,0.64645,3066.51
390,0.6481170000000001,3002.063
391,0.6498,3002.063
392,0.65145,2940.893
393,0.6531169999999999,2885.61
394,0.654783,2827.793
395,0.65645,2827.793
396,0.658117,2772.436
397,0.659783,2720.505
398,0.66145,2666.861
399,0.663117,2666.861
400,0.664783,2616.048
401,0.6664330000000001,2571.717
402,0.6681,2525.896
403,0.66975,2525.896
404,0.671417,2486.11
405,0.673083,2444.908
406,0.67475,2444.908
407,0.676417,2403.259
408,0.678083,2366.9
409,0.67975,2327.04
410,0.6814170000000001,2327.04
411,0.683083,2293.661
412,0.68475,2258.644
413,0.6864170000000001,2224.743
414,0.688083,2224.743
415,0.68975,2193.823
416,0.6914169999999999,2163.723
417,0.693083,2138.391
418,0.69475,2138.391
419,0.696417,2111.122
420,0.698083,2083.033
421,0.699767,2083.033
422,0.701417,2055.839
423,0.703083,2029.091
424,0.70475,2006.441
425,0.706417,2006.441
426,0.708083,1986.325
427,0.7098,1963.6
428,0.711417,1941.845
429,0.713083,1941.845
430,0.71475,1917.854
431,0.716417,1894.608
432,0.718083,1876.801
433,0.71975,1876.801
434,0.72145,1858.771
435,0.723083,1844.168
436,0.72475,1828.671
437,0.7264,1828.671
438,0.728067,1809.448
439,0.729733,1789.853
440,0.7314000000000001,1789.853
441,0.733067,1769.587
442,0.734733,1752.078
443,0.7364000000000001,1736.432
444,0.738067,1736.432
445,0.739733,1722.574
446,0.7413999999999999,1709.163
447,0.7432,1694.113
448,0.744733,1694.113
449,0.7464,1681.671
450,0.748067,1670.346
451,0.749733,1658.35
452,0.7514,1658.35
453,0.753067,1648.59
454,0.754733,1636.446
455,0.7564,1636.446
456,0.758067,1624.897
457,0.759733,1613.349
458,0.761417,1600.236
459,0.7630670000000001,1600.236
460,0.764733,1592.934
461,0.7664,1581.982
462,0.7680670000000001,1573.563
463,0.769733,1573.563
464,0.7714,1564.995
465,0.7730669999999999,1554.191
466,0.774733,1547.337
467,0.7764,1547.337
468,0.778067,1538.023
469,0.779733,1530.722
470,0.7814,1530.722
471,0.783067,1522.154
472,0.784717,1512.244
473,0.7863830000000001,1503.229
474,0.788083,1503.229
475,0.789717,1494.139
476,0.7913829999999999,1485.124
477,0.7931,1475.215
478,0.794717,1475.215
479,0.796383,1470.447
480,0.79805,1463.219
481,0.799717,1456.439
482,0.801383,1456.439
483,0.80305,1452.863
484,0.804717,1444.444
485,0.806383,1439.08
486,0.80805,1439.08
487,0.809717,1434.758
488,0.811383,1429.021
489,0.8130500000000001,1429.021
490,0.814717,1424.328
491,0.816383,1419.932
492,0.8180500000000001,1413.673
493,0.819717,1413.673
494,0.821383,1409.277
495,0.8230499999999999,1402.274
496,0.824717,1396.09
497,0.826383,1396.09
498,0.8280999999999999,1392.514
499,0.829717,1387.745
500,0.831383,1386.255
501,0.83305,1386.255
502,0.834717,1385.137
503,0.836383,1379.773
504,0.83805,1379.773
505,0.839717,1373.217
506,0.841383,1370.236
507,0.84305,1364.276
508,0.8447,1364.276
509,0.846367,1362.115
510,0.848033,1360.476
511,0.8497,1356.751
512,0.851367,1356.751
513,0.853033,1353.174
514,0.8547,1351.461
515,0.856367,1350.194
516,0.858033,1350.194
517,0.8597,1344.532
518,0.861483,1340.881
519,0.8630330000000001,1338.273
520,0.8647,1338.273
521,0.866367,1334.697
522,0.868083,1332.313
523,0.8697,1332.313
524,0.871367,1330.152
525,0.8730329999999999,1323.819
526,0.8747,1321.36
527,0.876367,1321.36
528,0.878033,1318.902
529,0.8797,1316.294
530,0.881367,1315.027
531,0.883033,1315.027
532,0.8847,1310.036
533,0.886367,1309.663
534,0.888033,1307.949
535,0.8897,1307.949
536,0.891367,1304.299
537,0.893033,1302.585
538,0.8947000000000001,1302.585
539,0.896367,1298.487
540,0.898033,1294.613
541,0.8997000000000001,1293.346
542,0.901367,1293.346
543,0.903033,1294.091
544,0.9046999999999999,1292.974
545,0.90635,1293.048
546,0.908017,1293.048
547,0.909683,1291.335
548,0.91135,1288.578
549,0.913017,1285.747
550,0.914683,1285.747
551,0.91635,1285.3
552,0.918017,1284.629
553,0.919683,1281.649
554,0.92135,1281.649
555,0.923017,1280.606
556,0.924683,1276.806
557,0.92635,1276.806
558,0.928017,1274.72
559,0.929683,1273.155
560,0.93135,1271.74
561,0.933033,1271.74
562,0.934683,1270.473
563,0.93635,1267.344
564,0.938017,1263.544
565,0.939683,1263.544
566,0.94135,1263.395
567,0.943017,1265.779
568,0.9446830000000001,1266.226
569,0.946383,1266.226
570,0.948017,1267.493
571,0.9496830000000001,1265.481
572,0.95135,1265.481
573,0.953017,1263.842
574,0.9546829999999999,1262.799
575,0.95635,1260.191
576,0.958017,1260.191
577,0.959683,1257.807
578,0.961333,1252.07
579,0.963083,1250.058
580,0.9646670000000001,1250.058
581,0.966317,1252.517
582,0.967983,1252.815
583,0.96965,1253.635
584,0.971317,1253.635
585,0.972983,1252.368
586,0.97465,1247.525
587,0.976317,1247.525
588,0.977983,1244.769
589,0.979783,1244.023
590,0.981317,1244.098
591,0.9829830000000001,1244.098
592,0.98465,1244.396
593,0.986317,1246.259
594,0.9879829999999999,1247.674
595,0.98965,1247.674
596,0.991317,1245.812
597,0.9929829999999999,1244.843
598,0.99465,1242.459
599,0.996317,1242.459
600,0.997983,1238.734
601,0.99965,1238.808
602,1.001317,1238.659
603,1.002983,1238.659
604,1.00465,1237.914
605,1.006317,1236.871
606,1.007983,1236.871
607,1.00965,1240.149
608,1.011317,1242.086
609,1.012983,1239.255
610,1.01465,1239.255
611,1.016317,1236.722
612,1.017983,1232.103
613,1.01965,1230.687
614,1.021317,1230.687
615,1.022983,1231.059
