"ID","sea_time","fid_signal"
1,0,38.201
2,0.001667,38.212
3,0.003333,38.212
4,0.005,38.233
5,0.00665,38.214
6,0.008366999999999999,38.214
7,0.009983000000000001,38.049
8,0.01165,37.932
9,0.013317,37.827
10,0.014983,37.827
11,0.01665,37.814
12,0.018317,37.95
13,0.019983,38.075
14,0.02165,38.075
15,0.023317,38.166
16,0.024983,38.219
17,0.02665,38.221
18,0.028317,38.221
19,0.029983,38.228
20,0.03165,38.233
21,0.033317,38.224
22,0.034983,38.224
23,0.03665,38.249
24,0.038317,38.267
25,0.039983,38.267
26,0.04165,38.28
27,0.043317,38.268
28,0.044983,38.245
29,0.046667,38.245
30,0.048317,38.214
31,0.049983,38.233
32,0.05165,38.256
33,0.053317,38.256
34,0.054983,38.281
35,0.05665,38.327
36,0.058317,38.314
37,0.059983,38.314
38,0.06165,38.302
39,0.06336700000000001,38.274
40,0.064983,38.274
41,0.06665,38.223
42,0.068333,38.172
43,0.069967,38.167
44,0.071633,38.167
45,0.0733,38.148
46,0.07496700000000001,38.131
47,0.07663300000000001,38.16
48,0.07829999999999999,38.16
49,0.08005,38.17
50,0.081633,38.193
51,0.0833,38.239
52,0.084967,38.239
53,0.086617,38.245
54,0.088283,38.251
55,0.08995,38.279
56,0.091617,38.279
57,0.093283,38.281
58,0.09495000000000001,38.285
59,0.096733,38.285
60,0.098283,38.283
61,0.099967,38.253
62,0.101617,38.253
63,0.103283,38.253
64,0.10495,38.246
65,0.106617,38.223
66,0.108283,38.233
67,0.10995,38.233
68,0.111617,38.192
69,0.113283,38.193
70,0.11495,38.183
71,0.116617,38.183
72,0.118283,38.177
73,0.11995,38.201
74,0.121617,38.201
75,0.123283,38.22
76,0.12495,38.251
77,0.126617,38.239
78,0.128267,38.239
79,0.129933,38.205
80,0.1316,38.21
81,0.133267,38.207
82,0.134933,38.207
83,0.1366,38.231
84,0.138267,38.228
85,0.13995,38.194
86,0.1416,38.194
87,0.143267,38.196
88,0.144933,38.178
89,0.1466,38.178
90,0.148267,38.231
91,0.149933,38.256
92,0.1516,38.25
93,0.153267,38.25
94,0.154933,38.278
95,0.1566,38.231
96,0.158267,38.23
97,0.159933,38.23
98,0.1616,38.247
99,0.163267,38.221
100,0.164933,38.245
101,0.1666,38.245
102,0.168267,38.213
103,0.169933,38.199
104,0.1716,38.189
105,0.173267,38.189
106,0.17495,38.173
107,0.1766,38.163
108,0.178267,38.163
109,0.179933,38.165
110,0.181667,38.176
111,0.183267,38.186
112,0.184933,38.186
113,0.186583,38.214
114,0.18825,38.204
115,0.189917,38.197
116,0.191583,38.197
117,0.19325,38.192
118,0.194917,38.192
119,0.196583,38.201
120,0.198333,38.201
121,0.199917,38.206
122,0.201583,38.223
123,0.20325,38.223
124,0.204917,38.26
125,0.206583,38.284
126,0.20825,38.294
127,0.209917,38.294
128,0.211583,38.287
129,0.213267,38.245
130,0.215017,38.211
131,0.216583,38.211
132,0.21825,38.198
133,0.219917,38.189
134,0.221583,38.194
135,0.22325,38.194
136,0.224917,38.186
137,0.226583,38.181
138,0.22825,38.198
139,0.229917,38.198
140,0.231583,38.191
141,0.23325,38.199
142,0.234917,38.199
143,0.236583,38.192
144,0.23825,38.187
145,0.239917,38.189
146,0.241583,38.189
147,0.24325,38.183
148,0.244917,38.202
149,0.246583,38.191
150,0.248233,38.191
151,0.2499,38.189
152,0.251567,38.196
153,0.253233,38.183
154,0.2549,38.183
155,0.256567,38.175
156,0.258233,38.16
157,0.2599,38.16
158,0.261567,38.155
159,0.263233,38.138
160,0.2649,38.137
161,0.266567,38.137
162,0.268233,38.138
163,0.2699,38.13
164,0.271567,38.156
165,0.273233,38.156
166,0.2749,38.165
167,0.276583,38.182
168,0.278233,38.175
169,0.2799,38.175
170,0.281567,38.191
171,0.283233,38.205
172,0.2849,38.198
173,0.286567,38.198
174,0.288233,38.213
175,0.2899,38.21
176,0.291567,38.21
177,0.293233,38.221
178,0.2949,38.245
179,0.296567,38.28
180,0.298233,38.28
181,0.299933,38.304
182,0.301567,38.311
183,0.303233,38.306
184,0.3049,38.306
185,0.306567,38.288
186,0.308217,38.263
187,0.309883,38.26
188,0.31155,38.26
189,0.313217,38.285
190,0.314883,38.284
191,0.316583,38.284
192,0.318217,38.275
193,0.319883,38.27
194,0.32155,38.263
195,0.323217,38.263
196,0.324883,38.287
197,0.32655,38.292
198,0.328217,38.314
199,0.329883,38.314
200,0.33155,38.344
201,0.333317,38.356
202,0.334883,38.404
203,0.33655,38.404
204,0.338217,38.422
205,0.339883,38.429
206,0.34155,38.484
207,0.343217,38.484
208,0.344883,38.499
209,0.34655,38.552
210,0.348217,38.552
211,0.349883,38.58
212,0.35155,38.599
213,0.353217,38.673
214,0.3549,38.673
215,0.35655,38.771
216,0.358233,38.902
217,0.359883,39.023
218,0.36155,39.023
219,0.363217,39.212
220,0.364883,39.379
221,0.36655,39.566
222,0.3682,39.566
223,0.369867,39.845
224,0.371533,40.117
225,0.3732,40.117
226,0.374867,40.485
227,0.376517,40.924
228,0.378183,41.397
229,0.37985,41.397
230,0.381517,41.93
231,0.383183,42.535
232,0.38485,43.187
233,0.386517,43.187
234,0.388183,43.925
235,0.38985,44.732
236,0.391517,45.551
237,0.393183,45.551
238,0.39485,46.493
239,0.396517,47.474
240,0.398183,47.474
241,0.39985,48.48
242,0.401517,49.534
243,0.403183,50.587
244,0.40485,50.587
245,0.406517,51.58
246,0.408183,52.608
247,0.40985,53.596
248,0.411517,53.596
249,0.413183,54.544
250,0.41485,55.482
251,0.416517,56.317
252,0.4182,56.317
253,0.41985,57.115
254,0.421517,57.782
255,0.423183,58.356
256,0.42485,58.356
257,0.4265,58.851
258,0.428167,59.161
259,0.429833,59.161
260,0.4315,59.384
261,0.433167,59.512
262,0.434833,59.51
263,0.4365,59.51
264,0.438167,59.449
265,0.439833,59.262
266,0.4415,58.956
267,0.443167,58.956
268,0.444833,58.56
269,0.4465,58.051
270,0.448167,57.504
271,0.449833,57.504
272,0.451617,56.898
273,0.453167,56.219
274,0.454833,56.219
275,0.4565,55.504
276,0.458167,54.733
277,0.459833,53.942
278,0.4615,53.942
279,0.463167,53.147
280,0.464833,52.341
281,0.4665,51.539
282,0.468167,51.539
283,0.469833,50.698
284,0.4715,49.863
285,0.473167,49.078
286,0.474833,49.078
287,0.4765,48.289
288,0.478167,47.533
289,0.479833,46.803
290,0.4815,46.803
291,0.483167,46.092
292,0.484833,45.452
293,0.486483,45.452
294,0.48815,44.85
295,0.489817,44.302
296,0.491517,43.767
297,0.49315,43.767
298,0.494817,43.267
299,0.496483,42.795
300,0.49815,42.354
301,0.499817,42.354
302,0.501483,41.959
303,0.50315,41.603
304,0.504817,41.298
305,0.506483,41.298
306,0.50815,41.022
307,0.509817,40.751
308,0.5115,40.751
309,0.51315,40.478
310,0.514817,40.245
311,0.516483,40.026
312,0.51815,40.026
313,0.519817,39.889
314,0.521483,39.779
315,0.52315,39.662
316,0.524817,39.662
317,0.526483,39.555
318,0.52815,39.393
319,0.529817,39.23
320,0.531483,39.23
321,0.5331669999999999,39.117
322,0.534817,39.044
323,0.536533,38.966
324,0.53815,38.966
325,0.539817,38.94
326,0.541483,38.932
327,0.54315,38.932
328,0.544817,38.872
329,0.5464830000000001,38.861
330,0.548133,38.815
331,0.5498,38.815
332,0.551467,38.739
333,0.553167,38.718
334,0.5548,38.693
335,0.556467,38.693
336,0.558133,38.657
337,0.5598,38.628
338,0.561467,38.578
339,0.563133,38.578
340,0.5648,38.559
341,0.5664670000000001,38.514
342,0.568133,38.514
343,0.569933,38.496
344,0.5714669999999999,38.498
345,0.573133,38.458
346,0.5748,38.458
347,0.576467,38.475
348,0.578133,38.47
349,0.5798,38.464
350,0.581467,38.464
351,0.583133,38.5
352,0.5848,38.492
353,0.586467,38.503
354,0.588133,38.503
355,0.5898,38.505
356,0.591467,38.49
357,0.593133,38.49
358,0.5948,38.498
359,0.596467,38.497
360,0.598133,38.5
361,0.5998,38.5
362,0.601467,38.487
363,0.603133,38.493
364,0.6048,38.487
365,0.606467,38.487
366,0.608133,38.45
367,0.609783,38.476
368,0.61145,38.474
369,0.613117,38.474
370,0.614783,38.484
371,0.6164500000000001,38.504
372,0.618117,38.438
373,0.619783,38.438
374,0.6214499999999999,38.401
375,0.623117,38.369
376,0.624783,38.369
377,0.62645,38.37
378,0.628117,38.417
379,0.62985,38.438
380,0.63145,38.438
381,0.633117,38.431
382,0.634783,38.446
383,0.63645,38.43
384,0.638117,38.43
385,0.639783,38.443
386,0.64145,38.46
387,0.643117,38.438
388,0.644783,38.438
389,0.64645,38.434
390,0.6481170000000001,38.411
391,0.649783,38.411
392,0.65145,38.427
393,0.6531169999999999,38.408
394,0.654833,38.407
395,0.65645,38.407
396,0.658117,38.426
397,0.659783,38.398
398,0.66145,38.413
399,0.663117,38.413
400,0.664783,38.389
401,0.66645,38.358
402,0.668083,38.371
403,0.66975,38.371
404,0.671417,38.34
405,0.673083,38.35
406,0.67475,38.347
407,0.676417,38.347
408,0.678083,38.325
409,0.67975,38.359
410,0.6814170000000001,38.359
411,0.683083,38.401
412,0.68475,38.42
413,0.686433,38.427
414,0.6882,38.427
415,0.68975,38.42
416,0.6914169999999999,38.394
417,0.693083,38.375
418,0.69475,38.375
419,0.696417,38.385
420,0.698083,38.385
421,0.69975,38.385
422,0.701417,38.385
423,0.7030999999999999,38.408
424,0.70475,38.387
425,0.706417,38.387
426,0.7081,38.356
427,0.70975,38.321
428,0.711417,38.3
429,0.713083,38.3
430,0.71475,38.316
431,0.716417,38.341
432,0.718083,38.381
433,0.71975,38.381
434,0.721417,38.368
435,0.723083,38.368
436,0.72475,38.35
437,0.726417,38.35
438,0.728067,38.344
439,0.729733,38.365
440,0.7314000000000001,38.365
441,0.733067,38.353
442,0.734733,38.376
443,0.7364000000000001,38.35
444,0.738067,38.35
445,0.739733,38.341
446,0.7413999999999999,38.324
447,0.743067,38.294
448,0.744733,38.294
449,0.7464,38.303
450,0.748067,38.286
451,0.749733,38.307
452,0.7514,38.307
453,0.753067,38.331
454,0.754733,38.338
455,0.7564,38.379
456,0.758067,38.379
457,0.759733,38.385
458,0.7614,38.389
459,0.7630670000000001,38.389
460,0.764767,38.379
461,0.7664,38.354
462,0.7680670000000001,38.324
463,0.769733,38.324
464,0.7714,38.276
465,0.773133,38.277
466,0.774733,38.27
467,0.7764,38.27
468,0.778067,38.299
469,0.779733,38.333
470,0.7814,38.336
471,0.783067,38.336
472,0.784733,38.312
473,0.7864,38.307
474,0.78805,38.307
475,0.789783,38.324
476,0.7913829999999999,38.344
477,0.79305,38.382
478,0.794717,38.382
479,0.796383,38.382
480,0.79805,38.362
481,0.799717,38.353
482,0.801383,38.353
483,0.80305,38.335
484,0.804717,38.339
485,0.8065,38.35
486,0.80805,38.35
487,0.809717,38.31
488,0.811383,38.296
489,0.8130500000000001,38.269
490,0.814717,38.269
491,0.816383,38.255
492,0.8180500000000001,38.277
493,0.819717,38.277
494,0.821383,38.293
495,0.8230499999999999,38.296
496,0.824717,38.32
497,0.826383,38.32
498,0.82805,38.329
499,0.829717,38.304
500,0.831383,38.328
501,0.83305,38.328
502,0.834717,38.312
503,0.836383,38.283
504,0.83805,38.315
505,0.839717,38.315
506,0.841383,38.302
507,0.84305,38.311
508,0.8447170000000001,38.311
509,0.8464,38.335
510,0.84805,38.341
511,0.8497,38.347
512,0.851367,38.347
513,0.853033,38.327
514,0.8547,38.31
515,0.856367,38.28
516,0.858033,38.28
517,0.8597,38.265
518,0.861367,38.256
519,0.8630330000000001,38.265
520,0.8647,38.265
521,0.866367,38.274
522,0.8680330000000001,38.286
523,0.8697,38.327
524,0.871367,38.327
525,0.8730329999999999,38.354
526,0.8747,38.384
527,0.876367,38.384
528,0.878033,38.383
529,0.8797,38.379
530,0.881367,38.339
531,0.883033,38.339
532,0.8847,38.324
533,0.886367,38.336
534,0.888033,38.344
535,0.8897,38.344
536,0.891383,38.373
537,0.893033,38.385
538,0.8947000000000001,38.379
539,0.896367,38.379
540,0.898033,38.335
541,0.8997000000000001,38.308
542,0.901367,38.308
543,0.903033,38.31
544,0.9046999999999999,38.327
545,0.906367,38.356
546,0.9081,38.356
547,0.909683,38.376
548,0.911367,38.365
549,0.913017,38.345
550,0.914683,38.345
551,0.91635,38.34
552,0.918033,38.309
553,0.919683,38.288
554,0.92135,38.288
555,0.923017,38.286
556,0.924767,38.294
557,0.92635,38.341
558,0.928017,38.341
559,0.929683,38.366
560,0.93135,38.366
561,0.933017,38.366
562,0.934683,38.369
563,0.9363669999999999,38.359
564,0.938017,38.38
565,0.939683,38.38
566,0.9414670000000001,38.37
567,0.943017,38.349
568,0.9446830000000001,38.336
569,0.94635,38.336
570,0.948017,38.33
571,0.9496830000000001,38.317
572,0.95135,38.307
573,0.953017,38.307
574,0.9546829999999999,38.32
575,0.95635,38.283
576,0.958017,38.283
577,0.959667,38.299
578,0.961333,38.297
579,0.963,38.294
580,0.9646670000000001,38.294
581,0.966317,38.307
582,0.967983,38.3
583,0.96965,38.301
584,0.971317,38.301
585,0.972983,38.274
586,0.97465,38.272
587,0.976317,38.294
588,0.977983,38.294
589,0.97965,38.291
590,0.981317,38.32
591,0.9829830000000001,38.32
592,0.98465,38.338
593,0.986317,38.309
594,0.9879829999999999,38.328
595,0.98965,38.328
596,0.991317,38.335
597,0.9929829999999999,38.307
598,0.99465,38.294
599,0.996317,38.294
600,0.997983,38.264
601,0.999667,38.254
602,1.001317,38.256
603,1.002983,38.256
604,1.00465,38.306
605,1.006317,38.341
606,1.007983,38.354
607,1.00965,38.354
608,1.011317,38.382
609,1.012983,38.397
610,1.01465,38.397
611,1.016317,38.406
612,1.017983,38.372
613,1.01965,38.378
614,1.021317,38.378
615,1.022983,38.352
616,1.02465,38.351
617,1.0264,38.402
618,1.027967,38.402
619,1.029633,38.419
620,1.0313,38.455
621,1.032967,38.432
622,1.034633,38.432
623,1.0363,38.401
624,1.037967,38.382
625,1.039633,38.382
626,1.0413,38.333
627,1.043033,38.332
628,1.044633,38.319
629,1.0463,38.319
630,1.047967,38.293
631,1.049633,38.308
632,1.0513,38.332
633,1.052967,38.332
634,1.054633,38.34
635,1.0563,38.336
636,1.057983,38.342
637,1.059733,38.342
638,1.0613,38.344
639,1.062967,38.374
640,1.064633,38.371
641,1.0663,38.371
642,1.067967,38.35
643,1.069633,38.318
644,1.0713,38.318
645,1.072967,38.314
646,1.074633,38.333
647,1.0763,38.326
648,1.077967,38.326
649,1.079633,38.33
650,1.0813,38.313
651,1.082967,38.344
652,1.084633,38.344
653,1.086283,38.386
654,1.08795,38.426
655,1.08965,38.435
656,1.091283,38.435
657,1.09295,38.422
658,1.094617,38.375
659,1.096283,38.375
660,1.09795,38.379
661,1.099617,38.33
662,1.101283,38.351
663,1.10295,38.351
664,1.104617,38.405
665,1.106283,38.38
666,1.10795,38.417
667,1.109617,38.417
668,1.1113,38.396
669,1.11295,38.343
670,1.114617,38.334
671,1.116283,38.334
672,1.11795,38.338
673,1.119617,38.352
674,1.121283,38.349
675,1.12295,38.349
676,1.124617,38.352
677,1.126283,38.356
678,1.12795,38.356
679,1.129617,38.347
680,1.131283,38.391
681,1.13295,38.414
682,1.134617,38.414
683,1.136283,38.414
684,1.13795,38.406
685,1.139617,38.402
686,1.141283,38.402
687,1.14295,38.391
688,1.144633,38.376
689,1.146283,38.385
690,1.147933,38.385
691,1.1496,38.388
692,1.151267,38.419
693,1.152933,38.419
694,1.1546,38.423
695,1.156267,38.429
696,1.157933,38.429
697,1.1596,38.429
698,1.161283,38.408
699,1.162933,38.425
700,1.1646,38.442
701,1.166267,38.442
702,1.167933,38.455
703,1.1696,38.458
704,1.171267,38.424
705,1.172933,38.424
706,1.1746,38.372
707,1.176267,38.347
708,1.17805,38.35
709,1.1796,38.35
710,1.181267,38.414
711,1.182933,38.464
712,1.1846,38.464
713,1.186267,38.475
714,1.187933,38.456
715,1.1896,38.442
716,1.191267,38.442
717,1.192933,38.441
718,1.1946,38.446
719,1.196267,38.476
720,1.197933,38.476
721,1.1996,38.484
722,1.201267,38.501
723,1.202933,38.515
724,1.2046,38.515
725,1.20625,38.528
726,1.207917,38.515
727,1.209583,38.515
728,1.21125,38.499
729,1.212917,38.494
730,1.214583,38.476
731,1.21625,38.476
732,1.217917,38.488
733,1.219583,38.489
734,1.22125,38.466
735,1.222917,38.466
736,1.224583,38.467
737,1.22625,38.482
738,1.227917,38.487
739,1.229583,38.487
740,1.23125,38.511
741,1.232917,38.539
742,1.234583,38.539
743,1.23625,38.525
744,1.237917,38.505
745,1.239583,38.504
746,1.24125,38.504
747,1.242917,38.473
748,1.244583,38.455
749,1.24625,38.493
750,1.247917,38.493
751,1.249583,38.52
752,1.251233,38.56
753,1.2529,38.607
754,1.254567,38.607
755,1.256233,38.609
756,1.2579,38.6
757,1.259567,38.594
758,1.261233,38.594
759,1.2629,38.587
760,1.264567,38.624
761,1.266233,38.624
762,1.267883,38.67
763,1.26955,38.7
764,1.271217,38.725
765,1.272933,38.725
766,1.27455,38.685
767,1.276217,38.637
768,1.277883,38.606
769,1.27955,38.606
770,1.281217,38.601
771,1.282883,38.616
772,1.28455,38.648
773,1.286233,38.648
774,1.287883,38.657
775,1.28955,38.652
776,1.291217,38.652
777,1.292883,38.655
778,1.29455,38.641
779,1.296317,38.613
780,1.297883,38.613
781,1.29955,38.599
782,1.301217,38.611
783,1.302883,38.635
784,1.30455,38.635
785,1.306217,38.695
786,1.307883,38.718
787,1.30955,38.736
788,1.311217,38.736
789,1.312883,38.725
790,1.31455,38.724
791,1.316217,38.727
792,1.317883,38.727
793,1.31955,38.753
794,1.321217,38.762
795,1.322883,38.762
796,1.32455,38.756
797,1.326217,38.764
798,1.327867,38.716
799,1.329533,38.716
800,1.3312,38.75
801,1.332867,38.765
802,1.334533,38.761
803,1.3362,38.761
804,1.337867,38.788
805,1.339533,38.765
806,1.3412,38.76
807,1.342883,38.76
808,1.3446,38.78
809,1.3462,38.791
810,1.347867,38.791
811,1.349533,38.818
812,1.3512,38.826
813,1.352867,38.85
814,1.354533,38.85
815,1.3562,38.879
816,1.357867,38.875
817,1.359533,38.876
818,1.3612,38.876
819,1.362867,38.881
820,1.364533,38.855
821,1.3662,38.871
822,1.367867,38.871
823,1.369533,38.878
824,1.3712,38.845
825,1.372867,38.845
826,1.374533,38.873
827,1.3762,38.896
828,1.377867,38.909
829,1.379533,38.909
830,1.381267,38.923
831,1.382867,38.944
832,1.384533,38.911
833,1.3862,38.911
834,1.38785,38.946
835,1.389517,38.971
836,1.391183,38.948
837,1.39285,38.948
838,1.394517,39.003
839,1.396183,38.999
840,1.39785,39.008
841,1.399517,39.008
842,1.401183,39.023
843,1.40285,39.013
844,1.404517,39.013
845,1.406183,39.021
846,1.40785,39.031
847,1.409517,39.049
848,1.411183,39.049
849,1.41285,39.081
850,1.414617,39.089
851,1.416183,39.11
852,1.41785,39.11
853,1.419517,39.146
854,1.421183,39.148
855,1.42285,39.19
856,1.424517,39.19
857,1.426183,39.197
858,1.42785,39.183
859,1.429517,39.183
860,1.431183,39.154
861,1.43285,39.113
862,1.434517,39.11
863,1.436183,39.11
864,1.43785,39.105
865,1.439517,39.146
866,1.441183,39.152
867,1.44285,39.152
868,1.444517,39.166
869,1.446167,39.197
870,1.447833,39.189
871,1.4495,39.189
872,1.451167,39.238
873,1.452833,39.264
874,1.4545,39.277
875,1.456167,39.277
876,1.457833,39.301
877,1.4595,39.3
878,1.461167,39.3
879,1.462833,39.332
880,1.4645,39.364
881,1.466167,39.376
882,1.467833,39.376
883,1.4695,39.402
884,1.471167,39.394
885,1.472833,39.34
886,1.4745,39.34
887,1.476167,39.338
888,1.477833,39.33
889,1.479517,39.323
890,1.481167,39.323
891,1.482833,39.399
892,1.4845,39.417
893,1.486167,39.417
894,1.487833,39.427
895,1.4895,39.45
896,1.491167,39.432
897,1.492833,39.432
898,1.4945,39.464
899,1.496167,39.458
900,1.497833,39.493
901,1.499567,39.493
902,1.501167,39.544
903,1.502833,39.58
904,1.5045,39.63
905,1.50615,39.63
906,1.507817,39.616
907,1.509483,39.577
908,1.51115,39.557
909,1.512817,39.557
910,1.5145,39.57
911,1.51615,39.58
912,1.517817,39.58
913,1.519483,39.602
914,1.52115,39.605
915,1.522817,39.624
916,1.524483,39.624
917,1.52615,39.675
918,1.527817,39.726
919,1.529483,39.764
920,1.53115,39.764
921,1.532933,39.777
922,1.534483,39.791
923,1.53615,39.778
924,1.537817,39.778
925,1.539483,39.773
926,1.54115,39.765
927,1.5428,39.765
928,1.544467,39.758
929,1.546133,39.786
930,1.5478,39.785
931,1.549467,39.785
932,1.551133,39.791
933,1.5528,39.801
934,1.554467,39.811
935,1.55615,39.811
936,1.5578,39.868
937,1.5595,39.911
938,1.561133,39.934
939,1.5628,39.934
940,1.564467,39.966
941,1.566133,39.978
942,1.567783,39.978
943,1.56945,40.005
944,1.571117,40.061
945,1.572783,40.05
946,1.57445,40.05
947,1.576117,40.07
948,1.577783,40.083
949,1.57945,40.03
950,1.581117,40.03
951,1.582783,40.08
952,1.58445,40.12
953,1.586117,40.142
954,1.587783,40.142
955,1.58945,40.18
956,1.591117,40.173
957,1.592783,40.196
958,1.59445,40.196
959,1.596117,40.212
960,1.597783,40.211
961,1.59945,40.211
962,1.601117,40.229
963,1.602783,40.191
964,1.60445,40.191
965,1.606117,40.191
966,1.607783,40.211
967,1.60945,40.227
968,1.611117,40.272
969,1.612783,40.272
970,1.61445,40.292
971,1.616117,40.343
972,1.617833,40.372
973,1.61945,40.372
974,1.621117,40.367
975,1.622783,40.396
976,1.62445,40.396
977,1.626117,40.402
978,1.627767,40.432
979,1.629467,40.488
980,1.6311,40.488
981,1.632767,40.51
982,1.634433,40.53
983,1.636133,40.518
984,1.637767,40.518
985,1.639433,40.524
986,1.6411,40.541
987,1.642767,40.565
988,1.644433,40.565
989,1.6461,40.599
990,1.647767,40.621
991,1.649433,40.613
992,1.6512,40.613
993,1.652767,40.62
994,1.654433,40.631
995,1.6561,40.631
996,1.657767,40.645
997,1.659433,40.684
998,1.6611,40.714
999,1.662767,40.714
1000,1.664433,40.738
1001,1.6661,40.773
1002,1.667767,40.767
1003,1.669433,40.767
1004,1.6711,40.781
1005,1.672767,40.815
1006,1.674433,40.812
1007,1.6761,40.812
1008,1.677767,40.855
1009,1.679433,40.878
1010,1.6811,40.878
1011,1.682767,40.895
