"ID","sea_time","fid_signal"
1,0,1178.607
2,0.0018,1175.627
3,0.003367,1174.957
4,0.005,1176.074
5,0.006667,1176.074
6,0.008333,1174.063
7,0.01,1178.384
8,0.011667,1177.639
9,0.013333,1177.639
10,0.015,1176.596
11,0.016667,1176.67
12,0.018433,1172.647
13,0.02,1172.647
14,0.021667,1171.306
15,0.023333,1167.58
16,0.025,1167.58
17,0.026667,1165.867
18,0.028333,1164.377
19,0.03,1166.91
20,0.031667,1166.91
21,0.033333,1168.027
22,0.035,1168.251
23,0.036667,1171.082
24,0.038317,1171.082
25,0.039983,1170.188
26,0.04165,1173.019
27,0.0433,1172.796
28,0.044967,1172.796
29,0.046667,1174.286
30,0.0483,1174.063
31,0.049967,1174.063
32,0.051633,1173.765
33,0.0533,1172.498
34,0.054967,1171.455
35,0.056633,1171.455
36,0.0583,1173.541
37,0.059967,1174.584
38,0.061633,1178.309
39,0.0633,1178.309
40,0.064967,1178.384
41,0.066633,1176.67
42,0.0683,1173.988
43,0.069967,1173.988
44,0.07165000000000001,1171.976
45,0.0733,1170.188
46,0.07496700000000001,1169.592
47,0.07663300000000001,1169.592
48,0.07829999999999999,1170.412
49,0.079967,1172.498
50,0.081633,1172.498
51,0.0833,1173.69
52,0.084967,1175.18
53,0.086633,1172.721
54,0.0883,1172.721
55,0.08996700000000001,1170.635
56,0.09165,1170.933
57,0.09329999999999999,1170.784
58,0.094967,1170.784
59,0.096633,1172.2
60,0.0983,1170.486
61,0.099967,1172.2
62,0.101633,1172.2
63,0.103367,1173.615
64,0.10495,1176
65,0.106617,1176
66,0.108283,1179.203
67,0.10995,1175.776
68,0.111617,1175.776
69,0.113283,1175.776
70,0.11495,1172.572
71,0.116617,1172.647
72,0.118283,1178.98
73,0.11995,1178.98
74,0.121617,1178.458
75,0.123283,1182.258
76,0.12495,1180.172
77,0.126617,1180.172
78,0.128283,1178.831
79,0.12995,1179.65
80,0.131617,1179.65
81,0.133283,1177.713
82,0.13495,1178.831
83,0.136717,1174.584
84,0.1383,1174.584
85,0.13995,1171.157
86,0.141617,1172.274
87,0.143283,1172.87
88,0.14495,1172.87
89,0.146617,1175.478
90,0.148283,1177.564
91,0.14995,1177.564
92,0.151617,1177.564
93,0.153283,1174.733
94,0.15495,1172.87
95,0.156617,1174.584
96,0.158283,1174.584
97,0.15995,1171.902
98,0.161617,1174.435
99,0.163267,1174.435
100,0.164933,1175.031
101,0.1666,1174.51
102,0.168267,1176.447
103,0.169933,1176.447
104,0.1716,1176.298
105,0.173267,1178.905
106,0.174933,1178.16
107,0.1766,1178.16
108,0.178267,1176
109,0.179933,1172.647
110,0.1816,1171.753
111,0.183267,1171.753
112,0.184933,1169.071
113,0.1866,1171.157
114,0.188267,1171.157
115,0.189933,1173.243
116,0.1916,1170.561
117,0.193267,1171.306
118,0.194933,1171.306
119,0.1966,1171.082
120,0.198267,1174.063
121,0.199933,1175.553
122,0.2016,1175.553
123,0.203267,1174.957
124,0.204933,1176.074
125,0.2066,1174.882
126,0.208267,1174.882
127,0.209933,1175.925
128,0.211617,1177.862
129,0.213333,1175.776
130,0.214933,1175.776
131,0.2166,1176.447
132,0.218267,1173.466
133,0.219933,1173.466
134,0.221617,1174.063
135,0.22325,1176.521
136,0.224917,1175.255
137,0.226583,1175.255
138,0.22825,1174.212
139,0.229917,1172.125
140,0.231583,1173.317
141,0.23325,1173.317
142,0.234917,1174.36
143,0.236583,1178.98
144,0.238267,1180.172
145,0.239917,1180.172
146,0.241583,1175.702
147,0.24325,1175.702
148,0.244917,1175.702
149,0.246583,1175.031
150,0.24825,1174.957
151,0.249917,1175.106
152,0.251583,1175.106
153,0.25325,1173.317
154,0.255033,1173.168
155,0.256583,1173.913
156,0.25825,1173.913
157,0.259917,1175.478
158,0.261583,1178.235
159,0.26325,1177.415
160,0.264917,1177.415
161,0.266583,1175.404
162,0.26825,1173.168
163,0.269917,1170.039
164,0.271583,1170.039
165,0.27325,1168.475
166,0.274917,1169.741
167,0.276583,1169.741
168,0.27825,1171.529
169,0.279917,1174.063
170,0.281583,1172.274
171,0.283233,1172.274
172,0.2849,1173.913
173,0.2866,1174.435
174,0.2883,1173.69
175,0.2899,1173.69
176,0.291567,1177.266
177,0.293233,1176.298
178,0.2949,1175.478
179,0.296567,1175.478
180,0.298233,1175.925
181,0.2999,1175.18
182,0.301567,1175.18
183,0.303233,1173.913
184,0.3049,1176.149
185,0.306567,1176.447
186,0.308233,1176.447
187,0.3099,1176
188,0.311567,1177.341
189,0.313233,1177.266
190,0.3149,1177.266
191,0.316567,1176.074
192,0.318233,1176.223
193,0.319917,1174.286
194,0.321567,1174.286
195,0.323233,1172.2
196,0.3249,1173.243
197,0.326567,1170.337
198,0.328233,1170.337
199,0.329883,1171.455
200,0.33155,1169.816
201,0.333217,1169.816
202,0.334883,1166.612
203,0.33655,1171.604
204,0.338217,1169.89
205,0.3399,1169.89
206,0.34155,1172.349
207,0.3432,1173.019
208,0.344867,1170.114
209,0.346533,1170.114
210,0.3482,1171.082
211,0.349867,1173.243
212,0.351533,1174.286
213,0.3532,1174.286
214,0.354867,1175.255
215,0.356533,1177.415
216,0.358233,1177.415
217,0.359867,1175.702
218,0.361533,1174.882
219,0.3632,1176.596
220,0.364867,1176.596
221,0.366533,1175.404
222,0.3682,1172.2
223,0.369867,1172.796
224,0.371533,1172.796
225,0.373317,1171.082
226,0.374867,1173.094
227,0.376533,1175.404
228,0.3782,1175.404
229,0.379867,1174.137
230,0.381533,1174.957
231,0.3832,1174.957
232,0.384867,1174.882
233,0.386533,1175.627
234,0.3882,1177.117
235,0.389867,1177.117
236,0.391533,1175.329
237,0.3932,1174.733
238,0.394867,1175.329
239,0.396533,1175.329
240,0.3982,1176.447
241,0.399867,1178.682
242,0.401533,1178.98
243,0.4032,1178.98
244,0.40485,1176.372
245,0.406517,1175.776
246,0.408183,1173.094
247,0.40985,1173.094
248,0.411517,1169.965
249,0.413183,1171.604
250,0.41485,1171.604
251,0.416517,1171.529
252,0.418183,1171.231
253,0.41985,1174.212
254,0.421517,1174.212
255,0.423183,1173.988
256,0.424883,1174.286
257,0.426517,1176.074
258,0.428183,1176.074
259,0.42985,1176.819
260,0.431517,1177.192
261,0.433183,1178.086
262,0.43485,1178.086
263,0.436517,1185.089
264,0.438183,1190.603
265,0.43985,1190.603
266,0.441517,1203.418
267,0.443183,1223.162
268,0.44485,1250.058
269,0.446517,1250.058
270,0.448183,1296.252
271,0.44985,1372.099
272,0.451517,1487.21
273,0.453183,1487.21
274,0.45485,1656.041
275,0.456517,1899.153
276,0.458233,2229.81
277,0.45985,2229.81
278,0.461517,2672.002
279,0.463183,3249.943
280,0.464833,3977.716
281,0.4665,3977.716
282,0.468167,4874.617
283,0.469833,5951.375
284,0.4715,5951.375
285,0.473167,7207.617
286,0.474833,8644.834000000001
287,0.4765,10246.337
288,0.478167,10246.337
289,0.479833,11996.329
290,0.4815,13881.475
291,0.483167,15873.462
292,0.484833,15873.462
293,0.4865,17949.268
294,0.488167,20075.291
295,0.489833,22201.539
296,0.491617,22201.539
297,0.493167,24291.277
298,0.49485,26298.016
299,0.4965,26298.016
300,0.498183,28178.318
301,0.499833,29893.443
302,0.5014999999999999,31404.793
303,0.503167,31404.793
304,0.504833,32687.41
305,0.5065,33714.398
306,0.508167,34481.438
307,0.509833,34481.438
308,0.5115,34986.512
309,0.513167,35229.176
310,0.514833,35230.219
311,0.5165,35230.219
312,0.518167,35010.652
313,0.519833,34591.93
314,0.5215,34591.93
315,0.52315,34010.262
316,0.524817,33287.258
317,0.526483,32447.055
318,0.52815,32447.055
319,0.529817,31522.959
320,0.531483,30534.715
321,0.5331669999999999,29513.24
322,0.534817,29513.24
323,0.536483,28476.342
324,0.53815,27436.092
325,0.539817,26407.986
326,0.541483,26407.986
327,0.54315,25398.285
328,0.544817,24419.129
329,0.5464830000000001,23471.191
330,0.54815,23471.191
331,0.549817,22557.975
332,0.5514829999999999,21685.957
333,0.55315,21685.957
334,0.554817,20849.557
335,0.5564829999999999,20055.324
336,0.55815,19303.412
337,0.559817,19303.412
338,0.561483,18585.176
339,0.56315,17906.279
340,0.564817,17263.592
341,0.566483,17263.592
342,0.56815,16650.482
343,0.569817,16071.126
344,0.571483,15517.771
345,0.57315,15517.771
346,0.574817,14993.847
347,0.576533,14498.457
348,0.5781500000000001,14498.457
349,0.579817,14032.274
350,0.581483,13591.274
351,0.583133,13171.36
352,0.5848,13171.36
353,0.586467,12771.114
354,0.588133,12388.229
355,0.5898,12024.492
356,0.591467,12024.492
357,0.593233,11679.009
358,0.5948,11347.16
359,0.596467,11032.671
360,0.598133,11032.671
361,0.5998,10733.754
362,0.601467,10444.82
363,0.603133,10176.524
364,0.6048,10176.524
365,0.606467,9914.637000000001
366,0.608133,9663.775
367,0.6099,9426.4
368,0.611467,9426.4
369,0.613133,9192.824000000001
370,0.6148,8973.554
371,0.616467,8973.554
372,0.618133,8764.714
373,0.6198,8563.995000000001
374,0.6214499999999999,8373.261
375,0.623117,8373.261
376,0.624783,8190.796
377,0.62645,8014.739
378,0.628117,7842.854
379,0.629783,7842.854
380,0.63145,7677.525
381,0.633117,7517.114
382,0.634783,7517.114
383,0.63645,7364.452
384,0.638117,7219.166
385,0.639783,7080.51
386,0.64145,7080.51
387,0.6431,6946.698
388,0.644767,6816.76
389,0.646433,6693.825
390,0.6481,6693.825
391,0.649767,6574.318
392,0.651433,6458.983
393,0.6531,6345.958
394,0.654767,6345.958
395,0.656433,6233.752
396,0.6581,6123.707
397,0.659767,6016.418
398,0.661433,6016.418
399,0.6631,5915.612
400,0.664767,5817.041
401,0.6664330000000001,5817.041
402,0.6681,5725.622
403,0.669783,5636.886
404,0.6714329999999999,5552.62
405,0.6731,5552.62
406,0.674767,5469.993
407,0.676433,5387.44
408,0.6781,5309.284
409,0.679767,5309.284
410,0.681433,5230.159
411,0.6831,5155.802
412,0.684767,5085.021
413,0.686433,5085.021
414,0.6881,5013.496
415,0.689767,4946.813
416,0.691433,4946.813
417,0.6931,4879.758
418,0.694817,4814.714
419,0.696433,4754.737
420,0.6981000000000001,4754.737
421,0.699767,4694.387
422,0.701417,4636.72
423,0.703083,4579.276
424,0.70475,4579.276
425,0.706417,4520.714
426,0.708083,4465.282
427,0.7097830000000001,4411.265
428,0.711483,4411.265
429,0.713083,4358.739
430,0.71475,4309.938
431,0.716417,4309.938
432,0.718083,4258.901
433,0.71975,4213.005
434,0.721417,4169.643
435,0.723083,4169.643
436,0.72475,4125.833
437,0.726417,4082.322
438,0.728183,4037.619
439,0.72975,4037.619
440,0.731417,3993.735
441,0.733083,3946.573
442,0.73475,3901.794
443,0.736417,3901.794
444,0.738083,3859.773
445,0.73975,3821.179
446,0.741417,3786.459
447,0.743083,3786.459
448,0.74475,3753.751
449,0.746417,3720.596
450,0.7480830000000001,3720.596
451,0.74975,3682.598
452,0.751417,3645.867
453,0.7530829999999999,3612.116
454,0.75475,3612.116
455,0.756417,3576.875
456,0.758083,3544.167
457,0.75975,3510.639
458,0.761417,3510.639
459,0.7630670000000001,3477.633
460,0.764733,3447.831
461,0.7664,3418.699
462,0.7680670000000001,3418.699
463,0.769733,3392.994
464,0.7714,3366.545
465,0.7730669999999999,3366.545
466,0.774733,3338.382
467,0.7764,3309.846
468,0.778067,3279.969
469,0.779783,3279.969
470,0.7814,3250.912
471,0.783067,3224.015
472,0.784733,3201.217
473,0.7864,3201.217
474,0.788067,3178.716
475,0.789733,3153.682
476,0.7914,3130.883
477,0.793067,3130.883
478,0.794733,3103.018
479,0.7964,3077.835
480,0.798067,3054.217
481,0.799733,3054.217
482,0.8014,3027.99
483,0.803067,3008.917
484,0.804733,3008.917
485,0.8064,2987.757
486,0.808067,2965.853
487,0.809733,2947.748
488,0.8114,2947.748
489,0.813117,2924.055
490,0.814733,2902.076
491,0.8164,2882.555
492,0.818067,2882.555
493,0.819733,2861.544
494,0.8214,2842.545
495,0.8230499999999999,2825.26
496,0.824717,2825.26
497,0.826383,2807.9
498,0.82805,2792.925
499,0.829817,2778.322
500,0.831383,2778.322
501,0.83305,2761.185
502,0.834717,2742.484
503,0.836383,2742.484
504,0.83805,2722.964
505,0.839717,2704.188
506,0.841383,2686.977
507,0.84305,2686.977
508,0.8447170000000001,2671.704
509,0.846433,2654.269
510,0.84805,2640.411
511,0.8497169999999999,2640.411
512,0.8514,2625.957
513,0.85305,2611.652
514,0.8547169999999999,2597.868
515,0.8564000000000001,2597.868
516,0.85805,2579.913
517,0.859717,2563.298
518,0.861383,2563.298
519,0.86315,2547.577
520,0.864717,2535.731
521,0.866383,2523.363
522,0.86805,2523.363
523,0.869717,2511.293
524,0.871383,2497.136
525,0.87305,2482.533
526,0.874717,2482.533
527,0.876383,2469.122
528,0.87805,2456.978
529,0.879717,2444.088
530,0.881383,2444.088
531,0.88305,2431.199
532,0.8847,2417.266
533,0.886367,2417.266
534,0.888033,2402.812
535,0.8897,2389.55
536,0.891367,2375.32
537,0.893033,2375.32
538,0.8947000000000001,2364.814
539,0.896367,2353.787
540,0.89805,2342.388
541,0.8997000000000001,2342.388
542,0.901367,2330.094
543,0.903033,2316.162
544,0.9046999999999999,2304.167
545,0.906367,2304.167
546,0.908033,2291.426
547,0.9097,2279.207
548,0.911367,2269.521
549,0.913017,2269.521
550,0.914683,2260.506
551,0.91635,2253.875
552,0.918017,2253.875
553,0.919683,2245.009
554,0.92135,2236.739
555,0.923017,2225.265
556,0.924683,2225.265
557,0.9263670000000001,2214.089
558,0.928017,2204.85
559,0.929683,2192.78
560,0.93135,2192.78
561,0.933017,2182.648
562,0.934683,2171.397
563,0.93635,2159.551
564,0.938017,2159.551
565,0.939683,2153.367
566,0.94135,2145.693
567,0.9429999999999999,2145.693
568,0.944667,2137.795
569,0.946333,2133.027
570,0.948067,2123.564
571,0.949667,2123.564
572,0.951333,2111.942
573,0.953,2106.056
574,0.954667,2097.413
575,0.956333,2097.413
576,0.958,2086.684
577,0.959667,2080.426
578,0.961333,2070.218
579,0.963,2070.218
580,0.964717,2058.372
581,0.966333,2049.282
582,0.968,2049.282
583,0.9696669999999999,2039.82
584,0.971333,2028.719
585,0.973,2022.758
586,0.974667,2022.758
587,0.976333,2019.48
588,0.978,2013.519
589,0.979667,2008.155
590,0.98145,2008.155
591,0.983,2002.791
592,0.984667,1991.54
593,0.986333,1982.227
594,0.988,1982.227
595,0.989667,1976.341
596,0.991333,1965.761
597,0.993,1957.938
598,0.994667,1957.938
599,0.996333,1949.817
600,0.998,1940.355
601,0.999667,1940.355
602,1.001333,1934.692
603,1.002983,1928.732
604,1.004683,1926.199
605,1.00635,1926.199
606,1.007983,1920.611
607,1.00965,1914.65
608,1.011317,1907.051
609,1.012983,1907.051
610,1.01465,1898.706
611,1.016317,1892.075
612,1.017983,1883.209
613,1.01965,1883.209
614,1.021317,1878.738
615,1.022983,1871.213
616,1.02465,1871.213
617,1.026317,1868.308
618,1.027983,1865.402
619,1.02965,1860.335
620,1.031317,1860.335
621,1.032983,1856.312
622,1.03465,1847.371
623,1.036317,1840.591
624,1.037983,1840.591
625,1.03965,1837.015
626,1.041317,1829.416
627,1.042983,1823.083
628,1.04465,1823.083
629,1.046317,1815.259
630,1.047983,1806.989
631,1.04965,1801.55
632,1.051317,1801.55
633,1.052983,1798.57
634,1.05465,1797.155
635,1.056317,1797.155
636,1.057983,1790.077
637,1.05965,1785.01
638,1.0613,1780.465
639,1.062983,1780.465
640,1.064633,1772.94
641,1.06635,1770.928
642,1.067967,1769.438
643,1.069633,1769.438
644,1.0713,1761.094
645,1.073017,1758.114
646,1.074633,1751.631
647,1.0763,1751.631
648,1.077983,1742.542
649,1.079633,1737.252
650,1.0813,1737.252
651,1.083,1729.354
652,1.084633,1723.096
653,1.0863,1719.445
654,1.087967,1719.445
655,1.089633,1719.147
656,1.0913,1716.688
657,1.092967,1712.59
658,1.094633,1712.59
659,1.0963,1708.269
660,1.097967,1701.34
661,1.09975,1696.572
662,1.1013,1696.572
663,1.102967,1694.486
664,1.104633,1693.219
665,1.1063,1692.623
666,1.107967,1692.623
667,1.109633,1690.686
668,1.1113,1683.533
669,1.112967,1683.533
670,1.114633,1675.412
671,1.1163,1669.452
672,1.117967,1663.566
673,1.119633,1663.566
674,1.1213,1661.777
675,1.122967,1658.723
676,1.124617,1655.072
677,1.126283,1655.072
678,1.12795,1651.123
679,1.129617,1647.919
680,1.131283,1644.269
681,1.13295,1644.269
682,1.134617,1640.99
683,1.136283,1638.979
684,1.13795,1638.979
685,1.139617,1636.893
686,1.141283,1633.465
687,1.14295,1624.599
688,1.144633,1624.599
689,1.146283,1619.682
690,1.14795,1612.753
691,1.149617,1611.486
692,1.151283,1611.486
693,1.15295,1610.89
694,1.154617,1605.153
695,1.156283,1602.992
696,1.15795,1602.992
697,1.159617,1595.989
698,1.161283,1591.966
699,1.16295,1591.966
700,1.164617,1589.507
701,1.166283,1585.111
702,1.16795,1585.931
703,1.169617,1585.931
704,1.171283,1584.887
705,1.17295,1582.056
706,1.174617,1579.002
707,1.176283,1579.002
708,1.17795,1573.339
709,1.179617,1567.826
710,1.181283,1567.602
711,1.182933,1567.602
712,1.184633,1564.845
713,1.186267,1560.822
714,1.187933,1555.83
715,1.1896,1555.83
716,1.191267,1550.391
717,1.192933,1550.317
718,1.1946,1550.317
719,1.196267,1550.317
720,1.197933,1553.446
721,1.1996,1550.987
722,1.201283,1550.987
723,1.202917,1544.282
724,1.204583,1538.768
725,1.20625,1534.596
726,1.207917,1534.596
727,1.209583,1532.584
728,1.21125,1531.541
729,1.212917,1530.498
730,1.214583,1530.498
731,1.21625,1525.953
732,1.218017,1523.569
733,1.219583,1523.569
734,1.22125,1520.663
735,1.222917,1516.417
736,1.224583,1514.778
737,1.22625,1514.778
738,1.227917,1509.786
739,1.229583,1507.774
740,1.23125,1505.539
741,1.232917,1505.539
742,1.234583,1502.41
743,1.23625,1499.355
744,1.237917,1494.288
745,1.239583,1494.288
746,1.24125,1493.022
747,1.2429,1493.096
748,1.244567,1495.182
749,1.246233,1495.182
750,1.247917,1493.469
751,1.249567,1491.234
752,1.251233,1491.234
753,1.252917,1486.465
754,1.254567,1481.622
755,1.256233,1477.301
756,1.2579,1477.301
757,1.259567,1471.49
758,1.261233,1469.478
759,1.2629,1468.435
760,1.264567,1468.435
761,1.266233,1468.584
762,1.2679,1466.498
763,1.269567,1464.933
764,1.271233,1464.933
765,1.2729,1465.678
766,1.274567,1465.604
767,1.276233,1465.604
768,1.2779,1467.615
769,1.279567,1461.58
770,1.281233,1456.365
771,1.282917,1456.365
772,1.284567,1455.918
773,1.286233,1452.64
774,1.2879,1453.981
775,1.289567,1453.981
776,1.291233,1450.405
777,1.2929,1443.55
778,1.294567,1439.974
779,1.296233,1439.974
780,1.2979,1438.484
781,1.299567,1439.75
782,1.301233,1439.75
783,1.30295,1440.942
784,1.30455,1441.166
785,1.306217,1439.75
786,1.307883,1439.75
787,1.30955,1433.939
788,1.311217,1429.021
789,1.312883,1427.382
790,1.31455,1427.382
791,1.316217,1423.359
792,1.317883,1420.379
793,1.31955,1419.857
794,1.321217,1419.857
795,1.322883,1417.92
796,1.32455,1415.536
797,1.326217,1416.057
798,1.327883,1416.057
799,1.32955,1413.45
800,1.331217,1412.332
801,1.332883,1412.332
802,1.33455,1410.842
803,1.336333,1411.885
804,1.337883,1410.991
805,1.33955,1410.991
806,1.341217,1406.521
807,1.342883,1404.881
808,1.34455,1401.007
809,1.346217,1401.007
810,1.347883,1397.356
811,1.34955,1394.004
812,1.351217,1394.823
813,1.352883,1394.823
814,1.35455,1390.651
815,1.356217,1391.917
816,1.357883,1391.917
817,1.35955,1393.333
818,1.36125,1390.874
819,1.362867,1390.502
820,1.364533,1390.502
821,1.3662,1389.757
822,1.367867,1388.788
823,1.369533,1384.69
824,1.3712,1384.69
825,1.372867,1384.02
826,1.374533,1380.965
827,1.3762,1377.761
828,1.377867,1377.761
829,1.379533,1378.432
830,1.3812,1376.346
831,1.382867,1375.303
832,1.384533,1375.303
833,1.3862,1374.93
834,1.387867,1372.844
835,1.389533,1372.844
836,1.3912,1372.397
837,1.392867,1370.758
838,1.394533,1369.64
839,1.3962,1369.64
840,1.397867,1367.032
841,1.399533,1363.009
842,1.4012,1362.562
843,1.402867,1362.562
844,1.404533,1361.892
845,1.4062,1363.382
846,1.407867,1363.978
847,1.409533,1363.978
848,1.4112,1364.276
849,1.412867,1361.519
850,1.414533,1361.519
851,1.4162,1358.837
852,1.417867,1358.092
853,1.419533,1357.123
854,1.421183,1357.123
855,1.422867,1355.484
856,1.424517,1355.186
857,1.426183,1353.92
858,1.427867,1353.92
859,1.42955,1353.472
860,1.431183,1352.727
861,1.43285,1351.684
862,1.434517,1351.684
863,1.436183,1349.3
864,1.43785,1346.245
865,1.439517,1345.798
866,1.441183,1345.798
867,1.44285,1345.053
868,1.444517,1346.022
869,1.446183,1346.022
870,1.44785,1344.159
871,1.449517,1342.222
872,1.451183,1339.093
873,1.45285,1339.093
874,1.45455,1337.603
875,1.456183,1337.156
876,1.45785,1337.007
877,1.459517,1337.007
878,1.461183,1337.901
879,1.46285,1338.422
880,1.464517,1334.474
881,1.466183,1334.474
882,1.46785,1333.803
883,1.469517,1332.536
884,1.471183,1332.536
885,1.47285,1329.184
886,1.474517,1330.152
887,1.476183,1329.482
888,1.47785,1329.482
889,1.479517,1328.215
890,1.481183,1324.341
891,1.482833,1322.776
892,1.4845,1322.776
893,1.486167,1320.69
894,1.487833,1317.188
895,1.4895,1321.658
896,1.491167,1321.658
897,1.492833,1321.882
898,1.494483,1323.67
899,1.49615,1323.67
900,1.497817,1324.192
901,1.499483,1318.008
902,1.5012,1317.561
903,1.502817,1317.561
904,1.504483,1315.847
905,1.50615,1315.325
906,1.507817,1315.698
907,1.509483,1315.698
908,1.51115,1311.675
909,1.512817,1310.706
910,1.514483,1310.855
911,1.51615,1310.855
912,1.517817,1311.898
913,1.519483,1310.855
914,1.52115,1308.098
915,1.522817,1308.098
916,1.524483,1306.683
917,1.52615,1306.087
918,1.527817,1306.087
919,1.529483,1306.385
