"ID","sea_time","fid_signal"
1,0,146.814
2,0.001667,147.119
3,0.003417,147.104
4,0.005,147.32
5,0.006667,147.32
6,0.008333,147.03
7,0.01,146.233
8,0.011667,145.219
9,0.013333,145.219
10,0.015,144.593
11,0.016667,144.549
12,0.018333,145.063
13,0.020083,145.063
14,0.021667,145.786
15,0.023333,146.158
16,0.025,146.158
17,0.026667,146.486
18,0.028333,146.62
19,0.03,146.724
20,0.031667,146.724
21,0.033333,146.717
22,0.035,146.56
23,0.036783,146.523
24,0.038333,146.523
25,0.04,146.59
26,0.041667,146.501
27,0.043333,146.769
28,0.045,146.769
29,0.046667,146.68
30,0.048333,146.456
31,0.05,146.657
32,0.05165,146.657
33,0.05335,146.449
34,0.054983,146.545
35,0.056683,146.545
36,0.058317,146.732
37,0.059983,146.434
38,0.06165,146.531
39,0.063317,146.531
40,0.064983,146.478
41,0.066633,146.344
42,0.0683,146.389
43,0.069967,146.389
44,0.071633,146.337
45,0.0733,146.344
46,0.07496700000000001,146.233
47,0.07665,146.233
48,0.07829999999999999,146.18
49,0.079967,146.188
50,0.081633,146.188
51,0.0833,146.136
52,0.084967,146.56
53,0.086633,146.791
54,0.0883,146.791
55,0.08996700000000001,146.762
56,0.09163300000000001,146.933
57,0.09329999999999999,146.963
58,0.094967,146.963
59,0.096633,146.873
60,0.0983,146.918
61,0.099967,146.732
62,0.101633,146.732
63,0.1033,146.471
64,0.105,146.598
65,0.106633,146.598
66,0.1083,146.575
67,0.109967,146.762
68,0.111633,147.067
69,0.113283,147.067
70,0.11495,147.074
71,0.116617,147.156
72,0.118283,147.194
73,0.11995,147.194
74,0.1217,146.888
75,0.123283,146.702
76,0.12495,146.508
77,0.126617,146.508
78,0.128283,146.456
79,0.12995,146.404
80,0.131617,146.434
81,0.133283,146.434
82,0.13495,146.605
83,0.136617,146.359
84,0.13835,146.359
85,0.13995,146.396
86,0.141617,146.441
87,0.143283,146.471
88,0.14495,146.471
89,0.146617,146.717
90,0.148283,146.881
91,0.14995,146.762
92,0.151617,146.762
93,0.153283,146.531
94,0.155017,146.486
95,0.156617,146.575
96,0.158283,146.575
97,0.15995,146.426
98,0.161617,146.158
99,0.163283,146.158
100,0.16495,145.778
101,0.166617,145.525
102,0.168283,145.942
103,0.16995,145.942
104,0.171617,146.575
105,0.173267,146.464
106,0.174933,146.285
107,0.1766,146.285
108,0.178267,146.352
109,0.179933,145.935
110,0.1816,146.21
111,0.183267,146.21
112,0.184933,146.18
113,0.1866,146.016
114,0.188283,146.389
115,0.189933,146.389
116,0.1916,146.545
117,0.193267,146.59
118,0.194933,146.59
119,0.1966,146.24
120,0.198267,146.158
121,0.199933,146.143
122,0.2016,146.143
123,0.203267,146.188
124,0.204933,146.531
125,0.206617,146.389
126,0.208267,146.389
127,0.209933,146.389
128,0.2116,146.449
129,0.213267,146.478
130,0.214933,146.478
131,0.2166,146.568
132,0.218267,146.59
133,0.219933,146.59
134,0.2216,146.464
135,0.223267,146.531
136,0.224933,146.322
137,0.2266,146.322
138,0.228267,146.046
139,0.229933,146.091
140,0.2316,145.927
141,0.23325,145.927
142,0.234917,146.128
143,0.236583,146.203
144,0.23825,146.121
145,0.239933,146.121
146,0.241583,146.061
147,0.24325,145.838
148,0.244917,145.741
149,0.246583,145.741
150,0.24825,145.994
151,0.249917,145.994
152,0.251583,145.994
153,0.25325,145.763
154,0.254917,145.845
155,0.256583,145.808
156,0.25825,145.808
157,0.259917,145.815
158,0.261583,146.173
159,0.26325,146.002
160,0.264917,146.002
161,0.266583,145.696
162,0.26825,145.316
163,0.269917,145.033
164,0.271583,145.033
165,0.273333,145.04
166,0.274917,145.055
167,0.276583,145.055
168,0.27825,145.189
169,0.279917,145.137
170,0.281583,145.189
171,0.28325,145.189
172,0.284917,145.212
173,0.286583,145.324
174,0.28825,145.353
175,0.289917,145.353
176,0.291583,145.42
177,0.293233,145.651
178,0.2949,145.711
179,0.296567,145.711
180,0.298233,146.031
181,0.299917,146.098
182,0.301567,145.808
183,0.303233,145.808
184,0.304917,145.696
185,0.306567,145.681
186,0.308233,145.681
187,0.3099,145.89
188,0.311567,146.098
189,0.313233,146.076
190,0.3149,146.076
191,0.316567,146.188
192,0.318233,146.016
193,0.3199,145.882
194,0.321567,145.882
195,0.323233,146.076
196,0.3249,145.949
197,0.326567,145.987
198,0.328233,145.987
199,0.3299,146.173
200,0.331567,146.203
201,0.333233,146.203
202,0.3349,146.069
203,0.336567,145.786
204,0.338233,145.629
205,0.3399,145.629
206,0.341567,145.271
207,0.343233,145.286
208,0.3449,145.234
209,0.346567,145.234
210,0.348233,145.145
211,0.3499,145.443
212,0.35155,145.473
213,0.353217,145.473
214,0.354883,145.718
215,0.35655,145.935
216,0.35825,145.935
217,0.359867,145.629
218,0.361533,145.54
219,0.3632,145.637
220,0.364867,145.637
221,0.366533,145.577
222,0.3682,145.935
223,0.369867,145.867
224,0.371533,145.867
225,0.3732,145.815
226,0.3749,146.002
227,0.376533,145.979
228,0.3782,145.979
229,0.379867,146.016
230,0.381533,145.733
231,0.383217,145.182
232,0.384867,145.182
233,0.386533,144.817
234,0.3882,145.048
235,0.389867,145.048
236,0.391633,145.562
237,0.3932,145.793
238,0.394867,145.89
239,0.396533,145.89
240,0.3982,145.584
241,0.399867,145.383
242,0.401533,145.867
243,0.4032,145.867
244,0.404867,146.076
245,0.40655,146.382
246,0.4082,146.657
247,0.409867,146.657
248,0.411517,146.493
249,0.413183,146.635
250,0.41485,146.635
251,0.416517,146.545
252,0.418183,146.449
253,0.41985,146.702
254,0.421517,146.702
255,0.423183,146.732
256,0.42485,147.216
257,0.426517,147.507
258,0.428183,147.507
259,0.42985,147.834
260,0.431517,148.483
261,0.433183,149.116
262,0.43485,149.116
263,0.436517,150.39
264,0.438183,151.403
265,0.43985,152.566
266,0.441517,152.566
267,0.443183,153.966
268,0.44485,155.553
269,0.446517,155.553
270,0.448183,158.377
271,0.44985,162.169
272,0.451517,167.653
273,0.453183,167.653
274,0.45485,174.917
275,0.456517,184.707
276,0.458183,198.454
277,0.459867,198.454
278,0.461517,216.484
279,0.463183,241.287
280,0.46485,273.891
281,0.466517,273.891
282,0.468183,316.456
283,0.46985,372.089
284,0.471517,372.089
285,0.473167,442.646
286,0.474833,531.308
287,0.476533,640.854
288,0.478167,640.854
289,0.47985,773.542
290,0.4815,931.948
291,0.483167,1118.436
292,0.484833,1118.436
293,0.4865,1334.503
294,0.488167,1581.281
295,0.489833,1858.771
296,0.4915,1858.771
297,0.493167,2166.74
298,0.494833,2503.634
299,0.4965,2866.581
300,0.498167,2866.581
301,0.499833,3252.409
302,0.5014999999999999,3656.931
303,0.503167,3656.931
304,0.504833,4074.901
305,0.5065,4501.976
306,0.508167,4932.858
307,0.50995,4932.858
308,0.5115,5361.58
309,0.513167,5783.237
310,0.514833,6191.902
311,0.5165,6191.902
312,0.518167,6582.715
313,0.519833,6950.766
314,0.5215,7291.95
315,0.523167,7291.95
316,0.524833,7603.526
317,0.5265,7883.005
318,0.5281670000000001,7883.005
319,0.529833,8129.656
320,0.5315,8342.393
321,0.53315,8520.931
322,0.534817,8520.931
323,0.536483,8665.293
324,0.53815,8776.643
325,0.539817,8856.855
326,0.541483,8856.855
327,0.54315,8907.4
328,0.544817,8930.787
329,0.5464830000000001,8928.851000000001
330,0.54815,8928.851000000001
331,0.5499000000000001,8904.040000000001
332,0.5514829999999999,8859.105
333,0.55315,8859.105
334,0.554817,8796.528
335,0.5564829999999999,8718.796
336,0.55815,8627.802
337,0.559817,8627.802
338,0.561483,8525.996999999999
339,0.56315,8415.228999999999
340,0.564817,8296.341
341,0.566483,8296.341
342,0.56815,8171.097
343,0.569817,8040.704
344,0.571483,7906.042
345,0.57315,7906.042
346,0.574817,7769.003
347,0.576483,7630.453
348,0.5781500000000001,7490.933
349,0.579817,7490.933
350,0.581483,7351.257
351,0.5831499999999999,7212.393
352,0.584817,7212.393
353,0.586483,7074.49
354,0.58815,6938.063
355,0.589817,6802.924
356,0.591467,6802.924
357,0.593133,6669.275
358,0.594867,6537.81
359,0.596467,6408.885
360,0.598133,6408.885
361,0.5998,6283.104
362,0.601467,6159.782
363,0.603133,6038.949
364,0.6048,6038.949
365,0.606467,5920.641
366,0.608133,5804.852
367,0.6098,5804.852
368,0.611467,5691.841
369,0.613133,5581.454
370,0.6148,5473.346
371,0.616467,5473.346
372,0.618133,5367.972
373,0.6198,5265.437
374,0.621483,5165.584
375,0.623133,5165.584
376,0.6248,5068.28
377,0.626467,4973.538
378,0.62825,4880.95
379,0.6298,4880.95
380,0.631467,4790.768
381,0.6331329999999999,4702.948
382,0.6348,4617.318
383,0.636467,4617.318
384,0.638133,4533.865
385,0.6398,4452.542
386,0.641467,4452.542
387,0.643133,4373.476
388,0.6448,4296.966
389,0.646467,4222.445
390,0.6481170000000001,4222.445
391,0.649783,4149.824
392,0.65145,4079.32
393,0.6531,4010.052
394,0.654783,4010.052
395,0.656433,3942.981
396,0.6581,3877.588
397,0.659767,3813.453
398,0.661433,3813.453
399,0.6631,3751.092
400,0.664767,3689.855
401,0.6664330000000001,3689.855
402,0.6681,3630.228
403,0.669767,3572.323
404,0.6714329999999999,3515.698
405,0.6731,3515.698
406,0.674767,3460.892
407,0.676433,3407.568
408,0.6781,3355.16
409,0.679767,3355.16
410,0.681433,3304.258
411,0.6831,3254.056
412,0.684767,3204.994
413,0.686433,3204.994
414,0.688133,3157.191
415,0.689767,3110.357
416,0.691433,3065.117
417,0.6931,3065.117
418,0.694767,3020.756
419,0.696433,2977.371
420,0.6981000000000001,2977.371
421,0.699783,2935.216
422,0.701433,2893.783
423,0.7030999999999999,2853.565
424,0.704767,2853.565
425,0.706433,2814.598
426,0.7081,2775.848
427,0.709767,2737.947
428,0.711417,2737.947
429,0.71315,2700.984
430,0.71475,2664.559
431,0.716417,2629.183
432,0.718083,2629.183
433,0.71975,2594.545
434,0.721417,2560.571
435,0.723083,2560.571
436,0.72475,2527.528
437,0.726417,2495.021
438,0.728083,2463.303
439,0.72975,2463.303
440,0.731417,2432.011
441,0.733083,2401.002
442,0.73475,2370.946
443,0.736417,2370.946
444,0.738083,2341.397
445,0.73975,2312.556
446,0.741417,2284.504
447,0.743083,2284.504
448,0.74475,2256.96
449,0.746517,2229.84
450,0.7480830000000001,2229.84
451,0.74975,2203.226
452,0.751417,2177.119
453,0.7530829999999999,2151.527
454,0.75475,2151.527
455,0.756417,2126.478
456,0.758083,2101.734
457,0.75975,2077.445
458,0.761417,2077.445
459,0.763083,2053.432
460,0.76475,2029.754
461,0.766417,2006.523
462,0.768083,2006.523
463,0.76975,1983.985
464,0.771417,1962.014
465,0.7730669999999999,1940.511
466,0.774733,1940.511
467,0.7764,1919.068
468,0.778067,1897.708
469,0.779733,1897.708
470,0.7814,1876.764
471,0.783067,1856.349
472,0.784733,1836.33
473,0.7864,1836.33
474,0.788067,1816.884
475,0.789733,1797.475
476,0.7914,1778.528
477,0.793067,1778.528
478,0.794733,1760.043
479,0.7964,1741.529
480,0.798067,1723.602
481,0.799733,1723.602
482,0.8014,1705.453
483,0.803067,1687.787
484,0.804733,1687.787
485,0.8064,1670.718
486,0.808067,1653.478
487,0.809733,1637.086
488,0.8114,1637.086
489,0.813067,1620.665
490,0.814733,1604.52
491,0.8164,1588.97
492,0.818067,1588.97
493,0.819733,1573.309
494,0.8214,1557.641
495,0.823067,1541.898
496,0.824733,1541.898
497,0.8264,1526.535
498,0.828067,1511.402
499,0.8297330000000001,1497.09
500,0.83145,1497.09
501,0.83305,1483.038
502,0.834717,1468.673
503,0.836383,1468.673
504,0.83805,1454.376
505,0.839717,1440.227
506,0.841383,1426.533
507,0.84305,1426.533
508,0.8447170000000001,1413.539
509,0.846383,1400.642
510,0.848133,1387.581
511,0.8497169999999999,1387.581
512,0.851383,1374.386
513,0.85305,1361.281
514,0.8547169999999999,1348.749
515,0.856383,1348.749
516,0.85805,1336.798
517,0.859717,1325.175
518,0.861383,1325.175
519,0.86305,1313.433
520,0.8648,1301.527
521,0.866383,1289.621
522,0.86805,1289.621
523,0.869717,1277.961
524,0.871383,1266.234
525,0.87305,1254.953
526,0.874717,1254.953
527,0.876383,1243.621
528,0.87805,1232.445
529,0.879717,1221.739
530,0.8815,1221.739
531,0.88305,1211.107
532,0.884717,1200.952
533,0.886383,1190.67
534,0.88805,1190.67
535,0.889717,1180.776
536,0.891367,1170.941
537,0.893033,1170.941
538,0.8947000000000001,1160.741
539,0.896367,1150.951
540,0.898033,1141.056
541,0.8997000000000001,1141.056
542,0.901367,1131.244
543,0.903033,1121.938
544,0.9046999999999999,1112.722
545,0.906367,1112.722
546,0.908033,1103.267
547,0.9097,1094.073
548,0.911367,1085.021
549,0.913033,1085.021
550,0.9147,1075.804
551,0.916367,1067.229
552,0.918033,1067.229
553,0.9197,1058.303
554,0.921367,1049.429
555,0.923033,1041.122
556,0.9247,1041.122
557,0.9263670000000001,1032.39
558,0.928033,1024.105
559,0.9297,1016.17
560,0.9313669999999999,1016.17
561,0.933033,1007.698
562,0.9347,999.63
563,0.936383,991.7619999999999
564,0.938033,991.7619999999999
565,0.939683,984.088
566,0.94135,976.5549999999999
567,0.943017,976.5549999999999
568,0.9446830000000001,969.246
569,0.94635,961.922
570,0.948017,954.188
571,0.949717,954.188
572,0.951333,946.648
573,0.953,939.131
574,0.954667,931.576
575,0.956333,931.576
576,0.958,924.088
577,0.959667,916.891
578,0.961333,910.081
579,0.963,910.081
580,0.9646670000000001,903.107
581,0.966367,896.364
582,0.968,889.6660000000001
583,0.9696669999999999,889.6660000000001
584,0.971333,882.678
585,0.973,876.3
586,0.974667,876.3
587,0.9763500000000001,869.974
588,0.978,863.3440000000001
589,0.979667,856.884
590,0.981333,856.884
591,0.983083,850.379
592,0.984667,843.585
593,0.986333,837.319
594,0.988,837.319
595,0.989667,831.082
596,0.991333,824.9059999999999
597,0.993,819.139
598,0.994667,819.139
599,0.996333,813.73
600,0.998,808.0599999999999
601,0.999767,802.331
602,1.001333,802.331
603,1.003,796.527
604,1.004667,790.4690000000001
605,1.006333,790.4690000000001
606,1.008,784.71
607,1.009667,779.1
608,1.011333,773.527
609,1.012983,773.527
610,1.01465,768.073
611,1.016317,762.679
612,1.017983,757.352
613,1.01965,757.352
614,1.021317,752.285
615,1.022983,747.01
616,1.02465,741.9059999999999
617,1.026317,741.9059999999999
618,1.027983,736.944
619,1.02965,731.699
620,1.031317,731.699
621,1.032983,726.603
622,1.03465,721.559
623,1.036317,716.247
624,1.037983,716.247
625,1.03965,711.2619999999999
626,1.041317,706.419
627,1.042983,701.48
628,1.04465,701.48
629,1.046317,696.585
630,1.048017,691.824
631,1.04965,686.966
632,1.051317,686.966
633,1.052983,682.525
634,1.05465,678.293
635,1.056317,678.293
636,1.057983,673.875
637,1.05965,669.859
638,1.061317,665.6420000000001
639,1.062983,665.6420000000001
640,1.06465,661.15
641,1.066317,656.918
642,1.067983,652.328
643,1.06965,652.328
644,1.071317,648.074
645,1.072967,644.125
646,1.074633,640.191
647,1.0763,640.191
648,1.077967,636.116
649,1.079633,631.765
650,1.0813,627.7190000000001
651,1.082967,627.7190000000001
652,1.084667,623.628
653,1.0863,619.732
654,1.087967,619.732
655,1.089633,615.731
656,1.0913,611.506
657,1.092967,607.617
658,1.094633,607.617
659,1.0963,603.7430000000001
660,1.097967,600.323
661,1.099633,596.702
662,1.10135,596.702
663,1.102967,592.932
664,1.104633,589.5940000000001
665,1.1063,585.72
666,1.107967,585.72
667,1.109633,582.188
668,1.111317,578.62
669,1.112967,578.62
670,1.114633,574.812
671,1.1163,571.5940000000001
672,1.118067,568.114
673,1.119633,568.114
674,1.1213,564.694
675,1.122967,561.357
676,1.12465,557.7430000000001
677,1.126317,557.7430000000001
678,1.127967,554.636
679,1.129633,551.343
680,1.131283,548.0650000000001
681,1.13295,548.0650000000001
682,1.134617,544.794
683,1.136283,541.247
684,1.13795,541.247
685,1.139617,538.073
686,1.141283,534.9589999999999
687,1.14295,531.822
688,1.144617,531.822
689,1.146283,528.768
690,1.14795,525.84
691,1.149617,523.001
692,1.151283,523.001
693,1.15295,519.879
694,1.154617,516.742
695,1.156283,513.4640000000001
696,1.15795,513.4640000000001
697,1.159617,510.193
698,1.161283,507.362
699,1.16295,504.494
700,1.164617,504.494
701,1.166283,501.648
702,1.16795,498.697
703,1.169617,498.697
704,1.171283,495.821
705,1.17295,492.975
706,1.174617,490.211
707,1.176283,490.211
708,1.17795,487.886
709,1.179617,485.063
710,1.181283,482.284
711,1.18295,482.284
712,1.184617,479.445
713,1.186283,476.353
714,1.18795,473.894
715,1.18965,473.894
716,1.191283,471.689
717,1.192933,469.439
718,1.1946,469.439
719,1.196267,467.01
720,1.197933,464.32
721,1.1996,461.817
722,1.201267,461.817
723,1.202933,459.291
724,1.2046,456.996
725,1.206267,454.962
726,1.207933,454.962
727,1.2096,452.779
728,1.211267,450.648
729,1.212933,448.301
730,1.2146,448.301
731,1.216267,445.94
732,1.217933,443.242
733,1.2196,440.56
734,1.221267,440.56
735,1.222933,438.087
736,1.2246,435.956
737,1.226267,435.956
738,1.227933,433.981
739,1.2296,432
740,1.23125,429.936
741,1.232917,429.936
742,1.234583,427.857
743,1.23635,425.585
744,1.237917,423.349
745,1.239583,423.349
746,1.24125,421.382
747,1.242917,419.103
748,1.244583,417.285
749,1.24625,417.285
750,1.247917,415.377
751,1.249583,413.649
752,1.25125,413.649
753,1.2529,411.868
754,1.254567,409.529
755,1.256233,407.331
756,1.2579,407.331
757,1.259567,404.753
758,1.261233,402.674
759,1.2629,401.013
760,1.264567,401.013
761,1.26625,399.12
762,1.267967,397.243
763,1.269567,395.097
764,1.271233,395.097
765,1.2729,393.167
766,1.274567,391.521
767,1.276233,389.874
768,1.2779,389.874
769,1.279567,388.071
770,1.281233,385.962
771,1.2829,385.962
772,1.284567,384.033
773,1.28625,382.565
774,1.2879,380.769
775,1.289567,380.769
776,1.291233,379.13
777,1.2929,377.364
778,1.294567,375.144
779,1.296233,375.144
780,1.2979,373.647
781,1.299567,372.306
782,1.301233,370.83
783,1.3029,370.83
784,1.304567,369.325
785,1.306233,367.679
786,1.3079,367.679
787,1.309567,365.935
788,1.311233,364.035
789,1.312883,362.426
790,1.31455,362.426
791,1.316217,360.571
792,1.317883,358.969
793,1.31955,357.904
794,1.321217,357.904
795,1.322883,356.339
796,1.32455,354.819
797,1.326217,353.031
798,1.327883,353.031
799,1.32955,351.049
800,1.331217,349.581
801,1.332883,349.581
802,1.334583,348.471
803,1.336217,347.391
804,1.337883,346.169
805,1.33955,346.169
806,1.341217,344.805
807,1.342883,343.42
808,1.34455,341.833
809,1.346217,341.833
810,1.347883,340.313
811,1.34955,338.875
812,1.351217,337.228
813,1.352883,337.228
814,1.35465,335.895
815,1.356217,334.695
816,1.357883,333.212
817,1.35955,333.212
818,1.361217,331.663
819,1.362883,330.389
820,1.36455,330.389
821,1.366217,329.264
822,1.367883,328.265
823,1.36955,327.364
824,1.3712,327.364
825,1.372867,326.097
826,1.374533,324.383
827,1.3762,322.744
828,1.377867,322.744
829,1.379533,321.262
830,1.3812,319.95
831,1.382867,318.907
832,1.384533,318.907
833,1.3862,318.229
834,1.387867,317.104
835,1.389533,317.104
836,1.3912,315.86
837,1.392867,314.422
838,1.394533,312.924
839,1.3962,312.924
840,1.397867,311.904
841,1.399533,310.645
842,1.4012,309.959
843,1.402867,309.959
844,1.404533,308.938
845,1.4062,307.53
846,1.407867,306.763
847,1.40955,306.763
848,1.4112,305.69
849,1.412867,304.602
850,1.414533,304.006
851,1.4162,304.006
852,1.417867,302.836
853,1.419533,301.391
854,1.4212,301.391
855,1.422867,300.102
856,1.424533,298.537
857,1.4262,297.174
858,1.427867,297.174
859,1.429533,296.146
860,1.431183,295.378
861,1.43285,294.73
862,1.434517,294.73
863,1.436183,294.171
864,1.43785,293.426
865,1.4396,292.353
866,1.441183,292.353
867,1.44285,290.975
868,1.444517,289.924
869,1.446183,289.924
870,1.44785,288.665
871,1.449517,287.496
872,1.451183,286.661
873,1.45285,286.661
874,1.454517,285.432
875,1.456183,284.754
876,1.45785,283.808
877,1.459517,283.808
878,1.461183,282.66
879,1.46285,281.565
880,1.464517,280.418
881,1.466183,280.418
882,1.46785,279.71
883,1.469517,278.89
884,1.471183,278.287
885,1.47295,278.287
886,1.474517,277.46
887,1.476183,276.372
888,1.47785,276.372
889,1.479517,275.746
890,1.481183,274.785
891,1.48285,273.749
892,1.484517,273.749
893,1.4862,272.721
894,1.48785,271.693
895,1.48955,270.866
896,1.491183,270.866
897,1.492833,270.247
898,1.4945,269.54
899,1.496167,268.668
900,1.497833,268.668
901,1.4995,268.079
902,1.501167,267.267
903,1.502833,267.267
904,1.5045,266.433
905,1.506167,265.993
906,1.507833,265.218
907,1.5095,265.218
908,1.511167,264.466
909,1.512833,263.892
910,1.514517,263.147
911,1.516167,263.147
912,1.517833,262.111
913,1.5195,261.247
914,1.521167,260.703
915,1.522817,260.703
916,1.524483,259.742
917,1.52615,258.863
918,1.527817,258.863
919,1.529483,258.2
920,1.53115,257.276
921,1.532817,256.732
922,1.534483,256.732
923,1.53615,256.054
924,1.537817,255.287
925,1.539483,254.534
926,1.54115,254.534
927,1.542817,253.625
928,1.544483,252.999
929,1.54615,252.247
930,1.547817,252.247
931,1.549483,251.956
932,1.55115,251.181
933,1.5528,250.541
934,1.554467,250.541
935,1.556133,250.176
936,1.557883,249.244
937,1.559467,249.244
938,1.561133,248.44
939,1.5628,248.06
