"ID","sea_time","fid_signal"
1,0,145.264
2,0.001667,145.473
3,0.003333,145.718
4,0.005,145.197
5,0.006667,145.197
6,0.008317,144.705
7,0.009983000000000001,143.901
8,0.01165,143.901
9,0.013317,143.215
10,0.015083,143.312
11,0.016633,143.468
12,0.0183,143.468
13,0.019967,143.945
14,0.021633,144.161
15,0.0233,144.139
16,0.024967,144.139
17,0.026633,144.616
18,0.0283,144.862
19,0.029967,145.063
20,0.031633,145.063
21,0.0333,145.13
22,0.034967,145.093
23,0.036633,145.093
24,0.0383,145.085
25,0.039967,145.063
26,0.041633,145.152
27,0.0433,145.152
28,0.044967,145.175
29,0.04665,144.988
30,0.0483,144.929
31,0.049967,144.929
32,0.051633,144.713
33,0.0533,144.675
34,0.054967,144.809
35,0.056633,144.809
36,0.0583,145.115
37,0.059967,145.569
38,0.061633,145.569
39,0.0633,145.398
40,0.064967,145.51
41,0.066633,145.435
42,0.068317,145.435
43,0.069967,145.108
44,0.071633,145.555
45,0.0733,145.674
46,0.07496700000000001,145.674
47,0.076617,145.786
48,0.07828300000000001,146.151
49,0.07994999999999999,145.786
50,0.081617,145.786
51,0.083283,145.517
52,0.08495,145.443
53,0.086617,145.331
54,0.088283,145.331
55,0.08995,145.279
56,0.091617,145.309
57,0.093283,145.309
58,0.09495000000000001,145.085
59,0.09661699999999999,144.668
60,0.098283,144.921
61,0.100017,144.921
62,0.101617,144.795
63,0.103283,144.467
64,0.10495,144.787
65,0.106617,144.787
66,0.108283,144.705
67,0.10995,144.847
68,0.111617,145.383
69,0.113283,145.383
70,0.11495,145.197
71,0.116617,145.294
72,0.118317,145.331
73,0.11995,145.331
74,0.121617,145.316
75,0.123283,145.338
76,0.12495,145.338
77,0.126617,144.891
78,0.128283,144.929
79,0.12995,144.72
80,0.131617,144.72
81,0.133383,144.668
82,0.13495,144.862
83,0.1366,145.078
84,0.138267,145.078
85,0.139933,145.108
86,0.1416,144.929
87,0.143267,144.847
88,0.144933,144.847
89,0.1466,144.474
90,0.148267,144.534
91,0.149933,144.534
92,0.1516,145.003
93,0.153267,145.376
94,0.154933,145.555
95,0.1566,145.555
96,0.158267,145.8
97,0.159933,145.383
98,0.1616,145.018
99,0.163267,145.018
100,0.164933,145.063
101,0.1666,144.899
102,0.168267,145.018
103,0.169933,145.018
104,0.1716,145.189
105,0.173267,144.944
106,0.174933,144.944
107,0.1766,145.078
108,0.178267,145.003
109,0.179933,145.137
110,0.1816,145.137
111,0.183267,145.249
112,0.184933,145.018
113,0.1866,145.085
114,0.188267,145.085
115,0.189933,144.817
116,0.1916,144.847
117,0.193267,144.854
118,0.194933,144.854
119,0.196583,144.906
120,0.19825,144.802
121,0.199917,144.549
122,0.201583,144.549
123,0.20325,144.444
124,0.204917,144.564
125,0.206583,144.564
126,0.20825,144.966
127,0.209917,145.063
128,0.211583,145.182
129,0.21325,145.182
130,0.214917,145.346
131,0.216583,145.204
132,0.218267,145.398
133,0.219917,145.398
134,0.221583,145.167
135,0.22325,144.973
136,0.224917,144.802
137,0.226583,144.802
138,0.22825,144.415
139,0.229933,144.504
140,0.231583,144.504
141,0.23325,144.251
142,0.235,144.631
143,0.236583,144.944
144,0.23825,144.944
145,0.239933,144.936
146,0.241583,145.443
147,0.24325,144.936
148,0.244917,144.936
149,0.246583,144.757
150,0.24825,144.742
151,0.249917,144.318
152,0.2517,144.318
153,0.25325,144.437
154,0.254917,144.534
155,0.256567,144.534
156,0.258233,144.422
157,0.2599,144.109
158,0.261567,143.856
159,0.263233,143.856
160,0.2649,143.647
161,0.2666,143.811
162,0.268367,144.206
163,0.2699,144.206
164,0.271567,144.526
165,0.273233,144.742
166,0.2749,144.72
167,0.276567,144.72
168,0.278233,144.549
169,0.2799,144.43
170,0.281567,144.66
171,0.283233,144.66
172,0.2849,144.69
173,0.286567,144.772
174,0.288233,144.772
175,0.2899,144.936
176,0.291567,144.66
177,0.293233,144.303
178,0.2949,144.303
179,0.296567,144.295
180,0.298217,144.243
181,0.299883,144.169
182,0.30155,144.169
183,0.303217,144.333
184,0.304883,144.519
185,0.30655,144.266
186,0.308217,144.266
187,0.309883,144.31
188,0.31155,144.452
189,0.313217,144.452
190,0.314883,144.579
191,0.316533,144.72
192,0.3182,144.988
193,0.319867,144.988
194,0.321533,145.219
195,0.3232,145.398
196,0.324883,145.979
197,0.326533,145.979
198,0.3282,146.449
199,0.329867,147.268
200,0.331533,148.147
201,0.3332,148.147
202,0.334867,149.317
203,0.336533,150.971
204,0.3382,153.176
205,0.339867,153.176
206,0.341533,156.209
207,0.3432,160.091
208,0.344867,160.091
209,0.346533,165.068
210,0.3482,171.185
211,0.349867,178.829
212,0.351533,178.829
213,0.353217,187.904
214,0.354867,198.677
215,0.356533,211.678
216,0.3582,211.678
217,0.359867,226.393
218,0.361533,244.126
219,0.3632,264.823
220,0.364867,264.823
221,0.366533,288.568
222,0.3682,316.322
223,0.36995,348.434
224,0.371533,348.434
225,0.3732,385.098
226,0.374867,426.844
227,0.376517,426.844
228,0.378183,474.006
229,0.37985,526.629
230,0.381517,585.377
231,0.383183,585.377
232,0.38485,650.838
233,0.386517,723.474
234,0.388183,804.253
235,0.38985,804.253
236,0.391517,894.003
237,0.393183,992.931
238,0.39485,1101.904
239,0.396517,1101.904
240,0.398183,1222.223
241,0.39985,1355.804
242,0.401517,1355.804
243,0.403183,1505.129
244,0.404867,1673.14
245,0.406517,1863.48
246,0.408183,1863.48
247,0.409867,2080.902
248,0.411517,2332.233
249,0.413183,2625.331
250,0.41485,2625.331
251,0.416517,2969.354
252,0.418183,3375.307
253,0.41985,3854.99
254,0.421517,3854.99
255,0.423183,4422.099
256,0.42485,5087.301
257,0.426517,5087.301
258,0.428183,5860.329
259,0.42985,6752.565
260,0.431517,7769.682
261,0.433183,7769.682
262,0.43485,8915.089
263,0.436517,10187.961
264,0.438167,11579.588
265,0.439833,11579.588
266,0.4415,13077.602
267,0.443167,14663.682
268,0.444833,16313.903
269,0.4465,16313.903
270,0.448167,17998.555
271,0.449833,19682.533
272,0.4515,19682.533
273,0.453167,21328.219
274,0.454833,22896.654
275,0.4565,24349.6
276,0.458167,24349.6
277,0.459833,25651.926
278,0.4615,26774.889
279,0.463167,27696.734
280,0.464833,27696.734
281,0.4665,28402.195
282,0.468167,28884.441
283,0.469833,29144.629
284,0.471567,29144.629
285,0.473167,29190.586
286,0.474833,29035.961
287,0.4765,28700.078
288,0.478167,28700.078
289,0.479833,28205.926
290,0.4815,27576.029
291,0.483167,27576.029
292,0.48485,26832.139
293,0.4865,26009.365
294,0.488283,25139.912
295,0.489833,25139.912
296,0.4915,24224.713
297,0.493167,23281.447
298,0.494833,22320.643
299,0.496483,22320.643
300,0.49815,21344.223
301,0.499817,20382.732
302,0.501483,19448.615
303,0.50315,19448.615
304,0.504817,18541.402
305,0.506483,17666.221
306,0.50815,17666.221
307,0.509817,16825.453
308,0.511483,16019.731
309,0.51315,15250.393
310,0.514817,15250.393
311,0.516483,14517.054
312,0.51815,13820.343
313,0.519817,13159.841
314,0.521483,13159.841
315,0.52315,12534.618
316,0.524817,11942.767
317,0.526483,11382.975
318,0.52815,11382.975
319,0.529817,10852.948
320,0.531483,10351.427
321,0.53315,9877.442999999999
322,0.534817,9877.442999999999
323,0.536483,9428.835999999999
324,0.53815,9004.563
325,0.539817,9004.563
326,0.541483,8603.155000000001
327,0.54315,8222.855
328,0.544817,7862.598
329,0.5464830000000001,7862.598
330,0.54815,7521.577
331,0.549817,7198.312
332,0.5514829999999999,6892.107
333,0.55315,6892.107
334,0.554817,6601.453
335,0.5565,6325.506
336,0.558133,6062.858
337,0.5598,6062.858
338,0.561467,5813.122
339,0.563133,5575.896
340,0.5648,5575.896
341,0.5664670000000001,5350.456
342,0.568133,5136.363
343,0.5698,4932.5
344,0.5714669999999999,4932.5
345,0.573133,4738.398
346,0.5748,4553.214
347,0.576467,4376.568
348,0.578133,4376.568
349,0.5798,4208.207
350,0.581467,4047.26
351,0.583133,3893.718
352,0.5848,3893.718
353,0.586467,3747.225
354,0.588133,3607.236
355,0.5898,3473.654
356,0.59145,3473.654
357,0.593117,3346.197
358,0.594783,3224.477
359,0.59645,3224.477
360,0.598117,3108.151
361,0.599783,2997.115
362,0.60145,2890.438
363,0.603117,2890.438
364,0.604783,2788.134
365,0.606467,2690.092
366,0.608117,2596.155
367,0.609783,2596.155
368,0.61145,2506.353
369,0.613117,2420.507
370,0.614783,2338
371,0.616433,2338
372,0.6181,2259.12
373,0.619767,2183.802
374,0.621433,2183.802
375,0.623233,2111.241
376,0.624767,2041.75
377,0.626433,1974.791
378,0.6281,1974.791
379,0.629767,1910.91
380,0.631433,1849.771
381,0.6331,1790.933
382,0.634767,1790.933
383,0.636433,1734.555
384,0.6381,1679.83
385,0.639767,1627.363
386,0.641433,1627.363
387,0.6431,1577.467
388,0.644767,1529.321
389,0.646433,1529.321
390,0.6481,1483.016
391,0.649767,1438.729
392,0.651433,1396.149
393,0.6531,1396.149
394,0.654767,1355.343
395,0.656433,1316.033
396,0.6581,1277.864
397,0.659767,1277.864
398,0.661433,1241.058
399,0.6631,1205.802
400,0.664767,1171.961
401,0.6664330000000001,1171.961
402,0.6681,1139.812
403,0.669767,1108.572
404,0.6714329999999999,1078.36
405,0.6731,1078.36
406,0.674767,1049.571
407,0.676433,1021.37
408,0.678083,1021.37
409,0.67975,994.362
410,0.6814170000000001,968.047
411,0.683083,942.752
412,0.68475,942.752
413,0.6864170000000001,918.6420000000001
414,0.688083,895.351
415,0.68975,873.052
416,0.6914169999999999,873.052
417,0.693083,851.251
418,0.69475,830.196
419,0.696417,809.692
420,0.698083,809.692
421,0.69975,790.045
422,0.701417,771.09
423,0.703083,771.09
424,0.70475,752.985
425,0.706417,735.961
426,0.7081499999999999,719.376
427,0.70975,719.376
428,0.711417,703.178
429,0.713083,687.3680000000001
430,0.71475,672.035
431,0.716417,672.035
432,0.718083,657.4690000000001
433,0.71975,643.164
434,0.721417,629.388
435,0.723083,629.388
436,0.72475,615.962
437,0.726417,602.8339999999999
438,0.728083,590.54
439,0.72975,590.54
440,0.731417,578.448
441,0.733083,567.049
442,0.73475,567.049
443,0.736417,555.769
444,0.738067,544.6900000000001
445,0.739733,534.0650000000001
446,0.741517,534.0650000000001
447,0.743067,523.508
448,0.744733,513.896
449,0.7464,504.687
450,0.748067,504.687
451,0.749733,495.791
452,0.7514,486.717
453,0.753067,477.858
454,0.754767,477.858
455,0.7564,469.163
456,0.758067,460.677
457,0.759733,460.677
458,0.7614,453.144
459,0.7630670000000001,445.321
460,0.764733,437.923
461,0.7664,437.923
462,0.7680670000000001,430.74
463,0.76975,423.767
464,0.7714,417.091
465,0.7730669999999999,417.091
466,0.774733,410.587
467,0.7764,404.321
468,0.778067,398.166
469,0.779733,398.166
470,0.7814,392.474
471,0.783067,386.953
472,0.784733,381.351
473,0.7864,381.351
474,0.788067,375.658
475,0.789733,370.033
476,0.7914,370.033
477,0.793067,364.617
478,0.794733,359.9
479,0.796383,355.318
480,0.79805,355.318
481,0.799717,350.878
482,0.801383,346.199
483,0.80305,341.289
484,0.804717,341.289
485,0.806383,336.677
486,0.808067,332.177
487,0.809717,328.034
488,0.811383,328.034
489,0.8130500000000001,324.376
490,0.814717,320.442
491,0.816383,320.442
492,0.8180500000000001,316.605
493,0.819717,313.029
494,0.821383,309.132
495,0.8230499999999999,309.132
496,0.824717,305.682
497,0.8264,302.389
498,0.82805,299.29
499,0.829717,299.29
500,0.831383,296.421
501,0.833083,293.352
502,0.834717,290.237
503,0.836383,290.237
504,0.83805,287.086
505,0.839733,284.038
506,0.841383,281.058
507,0.84305,281.058
508,0.8447170000000001,278.525
509,0.846383,276.163
510,0.84805,276.163
511,0.8497169999999999,273.786
512,0.851383,271.767
513,0.85305,269.271
514,0.8547169999999999,269.271
515,0.856383,266.798
516,0.858033,264.302
517,0.8598170000000001,261.597
518,0.861367,261.597
519,0.8630330000000001,259.377
520,0.8647,257.127
521,0.866367,254.869
522,0.8680330000000001,254.869
523,0.8697,253.119
524,0.871367,251.263
525,0.8730329999999999,251.263
526,0.8747,249.349
527,0.876367,247.493
528,0.878033,245.459
529,0.8797,245.459
530,0.88135,243.418
531,0.8830170000000001,241.615
532,0.884683,239.76
533,0.88635,239.76
534,0.8880169999999999,238.15
535,0.889683,236.541
536,0.89135,234.753
537,0.8930169999999999,234.753
538,0.894683,233.375
539,0.89635,232.033
540,0.898017,232.033
541,0.899683,230.759
542,0.90135,229.456
543,0.903017,227.995
544,0.904683,227.995
545,0.906367,226.215
546,0.908033,224.65
547,0.909683,223.19
548,0.91135,223.19
549,0.913017,221.848
550,0.914683,220.776
551,0.91635,219.382
552,0.918,219.382
553,0.919667,218.004
554,0.921333,216.767
555,0.923,215.739
556,0.924667,215.739
557,0.926333,214.785
558,0.928,213.929
559,0.929667,213.929
560,0.931333,212.863
561,0.9330000000000001,211.522
562,0.934667,210.218
563,0.936333,210.218
564,0.9379999999999999,209.294
565,0.939667,208.512
566,0.941333,207.573
567,0.9429999999999999,207.573
568,0.944733,206.575
569,0.946333,205.36
570,0.948,204.004
571,0.949667,204.004
572,0.951333,203.013
573,0.953,202.38
574,0.954667,202.38
575,0.956333,201.762
576,0.958,201.382
577,0.959667,200.778
578,0.961333,200.778
579,0.963,199.839
580,0.9646670000000001,198.834
581,0.966333,197.88
582,0.968,197.88
583,0.9696669999999999,197.142
584,0.971333,196.517
585,0.973,195.868
586,0.974667,195.868
587,0.976317,195.272
588,0.97805,194.602
589,0.979667,193.916
590,0.981317,193.916
591,0.983,193.343
592,0.98465,192.612
593,0.986333,192.612
594,0.9879829999999999,191.674
595,0.98965,191.078
596,0.991317,190.794
597,0.9929829999999999,190.794
598,0.99465,190.273
599,0.996317,190.049
600,0.997983,189.513
601,0.99965,189.513
602,1.001317,188.477
603,1.002983,187.442
604,1.00465,186.332
605,1.006317,186.332
606,1.007983,185.49
607,1.00965,184.953
608,1.011317,184.953
609,1.012983,184.737
610,1.01465,184.707
611,1.016317,184.365
612,1.017983,184.365
613,1.01965,184.119
614,1.021317,183.411
615,1.022983,182.86
616,1.02465,182.86
617,1.026317,182.226
618,1.027983,181.466
619,1.02965,181.6
620,1.031317,181.6
621,1.032983,181.131
622,1.03465,180.878
623,1.0363,180.878
624,1.037967,180.513
625,1.039633,179.753
626,1.0413,179.484
627,1.042967,179.484
628,1.044633,179.201
629,1.0463,178.695
630,1.047967,178.233
631,1.049633,178.233
632,1.0513,177.674
633,1.052967,177.294
634,1.054633,177.13
635,1.0563,177.13
636,1.057967,176.869
637,1.059633,176.519
638,1.0613,176.02
639,1.063017,176.02
640,1.064633,175.528
641,1.0663,175.133
642,1.067967,175.133
643,1.069633,174.619
644,1.0713,174.239
645,1.072967,173.829
646,1.074633,173.829
647,1.0763,173.293
648,1.077967,173.047
649,1.079633,172.779
650,1.0813,172.779
651,1.082967,172.436
652,1.084633,172.377
653,1.0863,172.101
654,1.087967,172.101
655,1.089633,171.788
656,1.0913,171.922
657,1.092967,171.922
658,1.094633,171.855
659,1.096417,171.736
660,1.09795,171.311
661,1.099617,171.311
662,1.101283,170.648
663,1.10295,170.134
664,1.104617,169.873
665,1.106283,169.873
666,1.10795,169.761
667,1.109617,169.538
668,1.111283,169.322
669,1.11295,169.322
670,1.114617,168.711
671,1.116283,168.666
672,1.11795,168.532
673,1.119617,168.532
674,1.121283,168.383
675,1.12295,168.234
676,1.124617,168.234
677,1.1263,167.876
678,1.12795,167.72
679,1.129617,167.497
680,1.131283,167.497
681,1.13295,167.213
682,1.134617,166.737
683,1.136283,166.543
684,1.13795,166.543
685,1.139617,166.081
686,1.141283,166.066
687,1.14295,165.962
688,1.144617,165.962
689,1.1463,165.723
690,1.14795,165.641
691,1.149617,165.641
692,1.151283,165.656
693,1.15295,165.589
694,1.154617,165.425
695,1.156283,165.425
696,1.157933,165.038
697,1.1596,164.568
698,1.161267,164.375
699,1.162933,164.375
700,1.1646,164.01
701,1.166267,164.032
702,1.167933,163.816
703,1.1696,163.816
704,1.171267,163.659
705,1.172917,163.585
706,1.174583,163.496
707,1.17625,163.496
708,1.177917,163.496
709,1.179583,163.279
710,1.181317,163.279
711,1.182917,163.309
712,1.184583,162.974
713,1.18625,162.676
714,1.187917,162.676
715,1.189583,162.669
716,1.19125,162.281
717,1.192917,162.221
718,1.194583,162.221
719,1.19625,161.938
720,1.197983,161.566
721,1.199583,161.618
722,1.20125,161.618
723,1.202917,161.64
724,1.204583,161.827
725,1.20625,161.827
726,1.207917,161.7
727,1.209583,161.566
728,1.21125,161.223
729,1.212917,161.223
730,1.214683,160.858
731,1.216233,160.91
732,1.2179,160.731
733,1.219567,160.731
734,1.221233,160.769
735,1.2229,160.687
736,1.224567,160.426
737,1.226233,160.426
738,1.2279,160.076
739,1.229567,160.024
740,1.231367,159.793
741,1.2329,159.793
742,1.234567,159.919
743,1.236233,159.696
744,1.2379,159.696
745,1.239567,159.115
746,1.241233,159.234
747,1.2429,159.055
748,1.244567,159.055
749,1.246233,159.07
750,1.2479,158.995
751,1.249567,158.474
752,1.251233,158.474
753,1.2529,158.295
754,1.254567,158.407
755,1.256233,158.429
756,1.2579,158.429
757,1.259567,158.682
758,1.261233,158.399
759,1.2629,158.399
760,1.264567,158.295
761,1.266233,158.265
762,1.2679,158.198
763,1.269567,158.198
764,1.271233,158.228
765,1.2729,158.109
766,1.274567,158.019
767,1.276217,158.019
768,1.277883,157.721
769,1.27955,157.498
770,1.281217,157.081
771,1.282883,157.081
772,1.28455,157.163
773,1.286217,157.125
774,1.287883,157.125
775,1.28955,157.222
776,1.291217,157.312
777,1.292883,157.133
778,1.29455,157.133
779,1.296217,157.095
780,1.297883,157.021
781,1.29955,156.842
782,1.301217,156.842
783,1.302883,156.619
784,1.30455,156.596
785,1.306217,156.566
786,1.307883,156.566
787,1.30955,156.678
788,1.311217,156.879
789,1.312883,156.969
790,1.31455,156.969
791,1.3163,156.85
792,1.317883,156.842
793,1.319567,156.842
794,1.321217,156.276
795,1.322883,155.777
796,1.32455,155.434
797,1.326217,155.434
798,1.327883,155.27
799,1.32955,155.471
800,1.331217,155.911
801,1.332933,155.911
802,1.33455,155.814
803,1.33625,155.583
804,1.337867,155.397
805,1.339533,155.397
806,1.3412,154.972
807,1.342867,155.054
808,1.344533,155.054
809,1.3462,155.099
810,1.347867,155.24
811,1.34965,155.181
812,1.3512,155.181
813,1.352867,155.188
814,1.354533,154.89
815,1.3562,154.674
816,1.357867,154.674
817,1.359533,154.629
818,1.3612,154.555
819,1.362867,154.816
820,1.364533,154.816
821,1.3662,154.942
822,1.367867,154.92
823,1.369533,154.905
824,1.3712,154.905
825,1.372867,154.756
826,1.374533,154.562
827,1.3762,154.562
828,1.377867,154.123
829,1.379533,153.981
830,1.3812,154.003
831,1.382867,154.003
832,1.384533,153.914
833,1.3862,154.22
834,1.387867,154.1
835,1.389533,154.1
836,1.3912,153.847
837,1.392867,153.601
838,1.394533,153.646
839,1.3962,153.646
840,1.39785,153.773
841,1.399517,153.661
842,1.401183,153.661
843,1.402867,153.624
844,1.404567,153.452
845,1.406183,153.214
846,1.40785,153.214
847,1.409517,153.296
848,1.411183,153.206
849,1.41285,153.184
850,1.414517,153.184
851,1.416183,153.244
852,1.41785,153.027
853,1.419517,152.96
854,1.421183,152.96
855,1.42285,153.027
856,1.424517,152.96
857,1.426183,153.05
858,1.42785,153.05
859,1.429517,153.132
860,1.431183,152.804
861,1.43285,152.804
862,1.43455,152.364
863,1.436183,152.059
864,1.43785,151.955
865,1.439533,151.955
866,1.441183,152.268
867,1.44285,152.588
868,1.444517,152.7
869,1.446183,152.7
870,1.44785,152.715
871,1.449517,152.424
872,1.4512,152.506
873,1.45285,152.506
874,1.454517,152.402
875,1.456183,152.446
876,1.457833,152.446
877,1.4595,152.051
878,1.461167,151.88
879,1.462833,151.94
880,1.464483,151.94
881,1.46615,151.925
882,1.46795,152.081
883,1.469483,152.066
884,1.47115,152.066
885,1.472817,152.007
886,1.474483,151.791
887,1.47615,152.104
888,1.47785,152.104
889,1.479483,152.156
890,1.48115,151.992
891,1.482817,151.992
892,1.484483,152.089
893,1.48615,151.686
894,1.487817,151.344
895,1.489483,151.344
896,1.49115,151.545
897,1.492817,151.679
898,1.494483,151.671
899,1.49615,151.671
900,1.497817,151.552
901,1.499483,151.448
902,1.50115,150.993
903,1.502817,150.993
904,1.504483,151.12
905,1.50615,151.157
906,1.507817,151.023
907,1.509483,151.023
908,1.51115,151.128
909,1.512817,151.001
910,1.514483,151.001
911,1.516133,150.993
912,1.5178,151.023
913,1.519467,151.195
914,1.521133,151.195
915,1.5228,151.12
916,1.524467,151.418
917,1.526133,151.694
918,1.5278,151.694
919,1.529467,151.806
920,1.531133,151.813
921,1.5328,151.396
922,1.534467,151.396
923,1.53615,150.912
924,1.5378,150.383
925,1.539467,150.383
926,1.541133,150.39
927,1.542817,150.442
928,1.544467,150.487
929,1.546133,150.487
930,1.5478,150.613
931,1.549467,150.502
932,1.551133,150.532
933,1.5528,150.532
934,1.554467,150.532
935,1.556133,150.457
936,1.5578,150.293
937,1.559467,150.293
938,1.561133,150.271
939,1.5628,150.241
940,1.564467,150.278
941,1.566133,150.278
942,1.5678,150.226
943,1.569467,150.181
944,1.571133,150.181
945,1.5728,149.95
946,1.574467,149.667
947,1.576117,149.734
948,1.577783,149.734
949,1.57945,149.682
