"ID","sea_time","fid_signal"
1,0,144.362
2,0.001667,144.668
3,0.003333,144.951
4,0.005,145.018
5,0.006667,145.018
6,0.008333,144.713
7,0.01,143.982
8,0.011667,142.984
9,0.013333,142.984
10,0.015,142.567
11,0.016667,142.626
12,0.018333,142.88
13,0.02,142.88
14,0.021717,143.513
15,0.023333,143.67
16,0.025,143.707
17,0.026667,143.707
18,0.028333,143.744
19,0.03,143.513
20,0.031667,143.513
21,0.033333,143.498
22,0.035,143.759
23,0.036667,144.072
24,0.038333,144.072
25,0.04,144.497
26,0.04165,144.37
27,0.043317,144.385
28,0.044983,144.385
29,0.04665,144.37
30,0.048317,144.467
31,0.049983,144.765
32,0.05165,144.765
33,0.053317,144.564
34,0.054983,144.549
35,0.05665,144.549
36,0.058317,144.385
37,0.059983,144.027
38,0.06165,144.228
39,0.063317,144.228
40,0.064983,144.43
41,0.06665,144.653
42,0.068317,145.026
43,0.069983,145.026
44,0.07165000000000001,144.78
45,0.07331699999999999,144.511
46,0.07498299999999999,144.333
47,0.07665,144.333
48,0.078317,144.355
49,0.079983,144.452
50,0.08165,144.452
51,0.083317,144.452
52,0.084983,144.266
53,0.08665,143.796
54,0.08831700000000001,143.796
55,0.08998299999999999,143.722
56,0.09165,143.714
57,0.093317,143.588
58,0.094983,143.588
59,0.09665,144.042
60,0.098317,144.124
61,0.099983,144.169
62,0.101633,144.169
63,0.1033,144.526
64,0.104967,144.519
65,0.106633,144.66
66,0.108317,144.66
67,0.109967,144.668
68,0.111633,144.28
69,0.1133,144.28
70,0.114967,144.176
71,0.116633,144.318
72,0.1183,144.422
73,0.119967,144.422
74,0.121633,144.653
75,0.1233,144.474
76,0.124967,144.191
77,0.126633,144.191
78,0.1283,143.982
79,0.129967,143.699
80,0.13165,143.811
81,0.1333,143.811
82,0.134967,144.005
83,0.136633,144.243
84,0.1383,144.422
85,0.139967,144.422
86,0.141633,144.251
87,0.1433,144.124
88,0.144967,144.124
89,0.146633,144.079
90,0.1483,144.437
91,0.149967,144.847
92,0.151633,144.847
93,0.1533,144.899
94,0.154967,144.929
95,0.1567,144.742
96,0.1583,144.742
97,0.159967,144.668
98,0.161617,144.564
99,0.163283,144.362
100,0.16495,144.362
101,0.166617,144.012
102,0.168283,143.915
103,0.16995,143.915
104,0.171617,143.938
105,0.17335,144.005
106,0.17495,144.109
107,0.176617,144.109
108,0.178283,144.042
109,0.17995,143.893
110,0.181617,143.662
111,0.183283,143.662
112,0.18495,143.573
113,0.186617,143.558
114,0.188283,144.005
115,0.189983,144.005
116,0.191617,144.109
117,0.193283,144.34
118,0.19495,144.34
119,0.196617,144.787
120,0.198283,144.437
121,0.19995,144.333
122,0.201617,144.333
123,0.203283,144.43
124,0.20495,143.99
125,0.206617,144.176
126,0.2083,144.176
127,0.20995,144.37
128,0.211617,144.37
129,0.213283,144.273
130,0.21495,144.273
131,0.216617,144.109
132,0.218283,144.325
133,0.219933,144.37
134,0.2216,144.37
135,0.223267,144.571
136,0.224933,144.437
137,0.2266,144.437
138,0.228267,144.124
139,0.229933,143.938
140,0.2316,143.871
141,0.233267,143.871
142,0.234933,144.184
143,0.2366,144.266
144,0.238267,144.266
145,0.239933,144.266
146,0.2416,144.094
147,0.243267,144.087
148,0.244933,143.841
149,0.2466,143.841
150,0.248267,143.699
151,0.249933,144.154
152,0.2516,144.154
153,0.253267,144.012
154,0.254933,144.266
155,0.2566,144.497
156,0.258267,144.497
157,0.259933,144.221
158,0.2616,144.303
159,0.263267,144.362
160,0.264933,144.362
161,0.2666,143.886
162,0.268267,143.893
163,0.269933,144.02
164,0.2716,144.02
165,0.273267,143.997
166,0.274967,144.452
167,0.2766,144.489
168,0.27825,144.489
169,0.279917,144.362
170,0.281567,144.266
171,0.28325,144.266
172,0.2849,144.131
173,0.286567,143.953
174,0.288233,143.915
175,0.2899,143.915
176,0.291617,143.893
177,0.293233,144.102
178,0.2949,144.251
179,0.296567,144.251
180,0.298233,144.161
181,0.2999,144.079
182,0.301567,143.647
183,0.303233,143.647
184,0.3049,143.848
185,0.306567,144.064
186,0.30835,144.288
187,0.3099,144.288
188,0.311567,144.728
189,0.313233,144.526
190,0.3149,144.526
191,0.316567,144.452
192,0.318233,144.415
193,0.3199,144.415
194,0.321567,144.415
195,0.323233,144.452
196,0.3249,144.541
197,0.326567,145.018
198,0.328233,145.018
199,0.3299,145.622
200,0.331567,146.613
201,0.333233,146.613
202,0.3349,147.991
203,0.336567,149.257
204,0.338233,150.844
205,0.3399,150.844
206,0.34155,153.139
207,0.343217,155.851
208,0.344883,159.681
209,0.346583,159.681
210,0.348217,164.419
211,0.349883,170.268
212,0.35155,177.309
213,0.353217,177.309
214,0.354883,185.683
215,0.35655,195.913
216,0.358217,207.99
217,0.359883,207.99
218,0.36155,222.556
219,0.363217,239.447
220,0.364883,239.447
221,0.366583,259.139
222,0.368217,281.699
223,0.369883,307.478
224,0.37155,307.478
225,0.373217,337.243
226,0.374883,370.875
227,0.37655,409.223
228,0.378217,409.223
229,0.379883,452.675
230,0.38155,501.335
231,0.383217,555.635
232,0.384883,555.635
233,0.38655,615.649
234,0.388217,682.078
235,0.389883,682.078
236,0.39155,755.28
237,0.393233,835.732
238,0.394883,924.7809999999999
239,0.39655,924.7809999999999
240,0.398217,1022.689
241,0.399883,1130.536
242,0.401533,1249.745
243,0.4032,1249.745
244,0.404867,1381.166
245,0.406533,1527.034
246,0.4082,1689.196
247,0.409917,1689.196
248,0.411533,1870.997
249,0.4132,2075.218
250,0.414867,2305.657
251,0.416533,2305.657
252,0.418233,2567.582
253,0.419867,2865.724
254,0.421533,2865.724
255,0.4232,3206.022
256,0.424867,3594.279
257,0.426633,4036.032
258,0.4282,4036.032
259,0.429867,4536.375
260,0.431533,5099.505
261,0.4332,5727.738
262,0.434867,5727.738
263,0.436533,6421.655
264,0.4382,7179.156
265,0.439867,7995.434
266,0.441533,7995.434
267,0.4432,8863.136
268,0.444867,9772.182000000001
269,0.446533,9772.182000000001
270,0.4482,10709.89
271,0.449867,11661.604
272,0.451533,12611.017
273,0.4532,12611.017
274,0.454867,13540.723
275,0.456533,14432.981
276,0.4582,15270.435
277,0.459867,15270.435
278,0.461517,16036.6
279,0.463183,16717.24
280,0.46485,17300.219
281,0.466517,17300.219
282,0.468183,17777.086
283,0.46985,18142.648
284,0.471517,18395.074
285,0.473183,18395.074
286,0.47485,18536.336
287,0.476517,18570.543
288,0.478183,18570.543
289,0.47985,18504.598
290,0.481517,18346.75
291,0.4832,18107.086
292,0.48485,18107.086
293,0.486517,17796.412
294,0.488183,17425.836
295,0.48985,17006.561
296,0.491517,17006.561
297,0.493183,16548.709
298,0.49485,16061.775
299,0.496517,15554.331
300,0.498183,15554.331
301,0.49985,15034.005
302,0.501517,14507.1
303,0.503183,14507.1
304,0.50485,13978.824
305,0.506517,13453.982
306,0.5081830000000001,12935.803
307,0.50985,12935.803
308,0.511583,12427.256
309,0.5131829999999999,11931.226
310,0.51485,11449.464
311,0.516517,11449.464
312,0.5181829999999999,10983.072
313,0.51985,10532.96
314,0.5215,10099.479
315,0.523167,10099.479
316,0.524833,9682.23
317,0.5265,9281.739
318,0.5281670000000001,8897.789000000001
319,0.529833,8897.789000000001
320,0.5315,8529.85
321,0.5331669999999999,8178.354
322,0.534833,8178.354
323,0.5365,7842.101
324,0.538167,7520.937
325,0.539833,7214.472
326,0.5415,7214.472
327,0.543167,6921.224
328,0.5449000000000001,6641.321
329,0.5465,6374.15
330,0.548167,6374.15
331,0.549833,6118.841
332,0.5515,5875.252
333,0.553167,5642.601
334,0.554833,5642.601
335,0.5565,5420.238
336,0.558167,5207.77
337,0.559833,5207.77
338,0.5615,5005.002
339,0.563167,4811.361
340,0.56485,4626.073
341,0.5665,4626.073
342,0.568167,4449.271
343,0.569817,4280.061
344,0.571483,4118.256
345,0.57315,4118.256
346,0.574817,3963.634
347,0.576483,3815.77
348,0.5781500000000001,3674.41
349,0.579817,3674.41
350,0.581467,3539.108
351,0.583133,3409.669
352,0.5848,3409.669
353,0.586467,3285.527
354,0.588133,3166.556
355,0.5898,3052.6
356,0.591467,3052.6
357,0.593133,2943.553
358,0.5948,2839.073
359,0.596467,2739.109
360,0.598133,2739.109
361,0.5998,2643.563
362,0.601467,2551.869
363,0.603133,2464.235
364,0.6048,2464.235
365,0.606467,2380.259
366,0.608133,2299.361
367,0.6098,2221.771
368,0.611467,2221.771
369,0.613133,2147.049
370,0.6148,2075.255
371,0.616467,2075.255
372,0.618133,2006.531
373,0.6198,1940.534
374,0.621467,1877.524
375,0.623133,1877.524
376,0.62485,1816.861
377,0.626467,1758.963
378,0.6281330000000001,1703.702
379,0.629867,1703.702
380,0.631467,1650.318
381,0.6331329999999999,1599.334
382,0.6348,1549.87
383,0.636467,1549.87
384,0.638133,1502.119
385,0.6398,1456.305
386,0.64145,1456.305
387,0.643117,1412.131
388,0.644783,1369.812
389,0.64645,1329.437
390,0.6481170000000001,1329.437
391,0.649783,1290.649
392,0.65145,1253.165
393,0.6531169999999999,1217.224
394,0.654783,1217.224
395,0.65645,1182.593
396,0.658117,1149.215
397,0.659783,1117.043
398,0.66145,1117.043
399,0.6632169999999999,1085.84
400,0.664783,1055.881
401,0.66645,1027.286
402,0.668117,1027.286
403,0.669783,999.704
404,0.67145,973.165
405,0.673117,973.165
406,0.674783,947.52
407,0.67645,922.665
408,0.678117,898.846
409,0.679783,898.846
410,0.68145,875.995
411,0.683117,853.777
412,0.684783,832.066
413,0.68645,832.066
414,0.688117,811.3680000000001
415,0.689783,791.2670000000001
416,0.69145,772.074
417,0.693117,772.074
418,0.694783,753.619
419,0.69645,735.7
420,0.698117,735.7
421,0.699783,718.646
422,0.701433,702.128
423,0.7030999999999999,686.124
424,0.704767,686.124
425,0.706433,670.932
426,0.7081,655.919
427,0.709767,641.271
428,0.711433,641.271
429,0.7131,627.212
430,0.714767,613.526
431,0.716433,600.398
432,0.7181,600.398
433,0.719767,587.717
434,0.721433,575.542
435,0.7231,563.607
436,0.7247670000000001,563.607
437,0.726433,552.133
438,0.7281,541.1799999999999
439,0.7297670000000001,541.1799999999999
440,0.731433,530.355
441,0.7331,520.2
442,0.7347669999999999,510.29
443,0.736433,510.29
444,0.7381,500.754
445,0.739783,491.358
446,0.741433,481.762
447,0.7431,481.762
448,0.744767,472.717
449,0.746433,464.164
450,0.74815,456.095
451,0.749767,456.095
452,0.751433,448.272
453,0.7531,441.067
454,0.754767,441.067
455,0.756433,433.154
456,0.7581,425.644
457,0.75975,418.812
458,0.761417,418.812
459,0.763117,411.779
460,0.76475,405.297
461,0.766417,398.971
462,0.768083,398.971
463,0.76975,392.564
464,0.771417,386.603
465,0.773083,380.859
466,0.77475,380.859
467,0.776417,375.345
468,0.778083,370.048
469,0.7797500000000001,370.048
470,0.78155,364.356
471,0.783083,359.319
472,0.7847499999999999,354.148
473,0.786417,354.148
474,0.788083,349.388
475,0.78975,344.709
476,0.791417,339.918
477,0.793083,339.918
478,0.79475,335.507
479,0.796417,330.761
480,0.798083,326.656
481,0.79975,326.656
482,0.801417,322.7
483,0.803083,318.721
484,0.80475,315.323
485,0.8064170000000001,315.323
486,0.8081,311.449
487,0.80975,307.739
488,0.8114170000000001,307.739
489,0.813083,304.073
490,0.81475,300.385
491,0.8164169999999999,296.935
492,0.818083,296.935
493,0.81975,293.411
494,0.8214,290.476
495,0.823067,287.212
496,0.824733,287.212
497,0.8264,284.426
498,0.828067,281.684
499,0.8297330000000001,278.801
500,0.8314,278.801
501,0.833067,276.081
502,0.8347830000000001,273.287
503,0.8364,273.287
504,0.838067,270.747
505,0.839733,268.37
506,0.8414,266.001
507,0.843067,266.001
508,0.844733,264.026
509,0.8464,261.687
510,0.848067,258.945
511,0.849733,258.945
512,0.8514,256.673
513,0.853067,254.005
514,0.854733,251.517
515,0.8564000000000001,251.517
516,0.858067,249.483
517,0.859733,247.501
518,0.861383,245.467
519,0.86305,245.467
520,0.864717,243.671
521,0.8663999999999999,242.069
522,0.86805,242.069
523,0.869717,240.117
524,0.871383,238.508
525,0.87305,236.951
526,0.874717,236.951
527,0.876383,234.947
528,0.87805,233.315
529,0.879717,231.683
530,0.881367,231.683
531,0.8831,229.85
532,0.8847,228.614
533,0.886367,227.131
534,0.888033,227.131
535,0.889717,225.618
536,0.891367,224.397
537,0.893033,224.397
538,0.8947000000000001,222.899
539,0.896367,221.364
540,0.898033,219.971
541,0.899783,219.971
542,0.901383,218.727
543,0.903033,217.669
544,0.9046999999999999,216.648
545,0.906367,216.648
546,0.908033,215.441
547,0.9097,214.1
548,0.911367,212.61
549,0.913033,212.61
550,0.914717,211.336
551,0.916367,210.389
552,0.918033,209.428
553,0.9197,209.428
554,0.921367,208.4
555,0.923033,207.29
556,0.9247,207.29
557,0.9263670000000001,206.344
558,0.928033,205.219
559,0.9297,204.302
560,0.9313669999999999,204.302
561,0.933033,203.438
562,0.9347,202.596
563,0.9363669999999999,201.523
564,0.938033,201.523
565,0.939683,200.272
566,0.94135,199.333
567,0.943017,198.416
568,0.9446830000000001,198.416
569,0.94635,197.88
570,0.948017,197.493
571,0.9496830000000001,197.493
572,0.95135,196.703
573,0.953017,195.54
574,0.9546829999999999,194.535
575,0.95635,194.535
576,0.958017,193.916
577,0.959683,193.223
578,0.96135,192.642
579,0.963017,192.642
580,0.964683,191.793
581,0.96635,190.891
582,0.96805,190.474
583,0.969683,190.474
584,0.97135,189.848
585,0.973017,189.155
586,0.974683,189.155
587,0.9763500000000001,188.462
588,0.978017,187.613
589,0.979683,187.084
590,0.9813499999999999,187.084
591,0.983017,187.01
592,0.984683,186.645
593,0.9863499999999999,185.944
594,0.988017,185.944
595,0.989683,185.333
596,0.99135,184.536
597,0.993017,183.783
598,0.994683,183.783
599,0.99635,183.18
600,0.998017,182.733
601,0.999683,182.517
602,1.001433,182.517
603,1.003,182.085
604,1.004667,181.913
605,1.006333,181.913
606,1.008,181.399
607,1.009667,180.751
608,1.011333,180.431
609,1.013,180.431
610,1.014667,179.976
611,1.016333,179.514
612,1.018083,179.105
613,1.019667,179.105
614,1.021333,178.508
615,1.023,177.711
616,1.024667,177.309
617,1.026333,177.309
618,1.028,176.661
619,1.029667,176.214
620,1.031333,176.214
621,1.033,176.102
622,1.034767,175.7
623,1.036333,175.238
624,1.038,175.238
625,1.039667,174.649
626,1.041333,174.105
627,1.043,173.651
628,1.044683,173.651
629,1.04635,173.368
630,1.048,173.189
631,1.049667,173.092
632,1.051333,173.092
633,1.053,172.928
634,1.054667,172.585
635,1.056333,172.451
636,1.058,172.451
637,1.05965,172.146
638,1.061317,171.803
639,1.062983,171.803
640,1.06465,171.483
641,1.066317,170.976
642,1.067983,170.387
643,1.06965,170.387
644,1.071317,170.022
645,1.072983,169.523
646,1.07465,169.255
647,1.076317,169.255
648,1.077983,169.098
649,1.07965,168.569
650,1.081317,168.398
651,1.082983,168.398
652,1.08465,167.966
653,1.086317,167.675
654,1.087983,167.675
655,1.08965,167.526
656,1.091317,167.66
657,1.092983,167.549
658,1.09465,167.549
659,1.096317,167.28
660,1.097983,167.102
661,1.09965,166.52
662,1.101317,166.52
663,1.103017,166.29
664,1.10465,166.126
665,1.106317,165.753
666,1.107983,165.753
667,1.10965,165.403
668,1.111317,164.956
669,1.112983,164.896
670,1.11465,164.896
671,1.116317,164.874
672,1.118017,164.635
673,1.119683,164.635
674,1.1213,164.859
675,1.122967,164.382
676,1.124633,164.099
677,1.1263,164.099
678,1.127967,164.382
679,1.129633,164.084
680,1.1313,164.017
681,1.132967,164.017
682,1.134633,163.846
683,1.1363,163.227
684,1.137967,162.899
685,1.139633,162.899
686,1.1413,162.512
687,1.142983,162.043
688,1.144633,162.043
689,1.1463,161.871
690,1.147967,161.894
691,1.149633,161.864
692,1.1513,161.864
693,1.153067,161.879
694,1.154617,161.693
695,1.156283,161.238
696,1.15795,161.238
697,1.159617,161.365
698,1.161283,161.283
699,1.16295,161.357
700,1.164617,161.357
701,1.166283,161.26
702,1.16795,160.977
703,1.169617,160.977
704,1.171283,160.694
705,1.17295,160.538
706,1.174617,160.538
707,1.176283,160.538
708,1.17795,160.322
709,1.1796,160.314
710,1.181267,160.255
711,1.182933,160.255
712,1.1846,160.217
713,1.186267,159.875
714,1.187933,159.755
715,1.1896,159.755
716,1.191283,159.569
717,1.19295,159.271
718,1.19465,159.368
719,1.196267,159.368
720,1.197933,159.07
721,1.1996,158.928
722,1.201267,158.928
723,1.202933,158.831
724,1.2046,158.533
725,1.206267,158.504
726,1.207933,158.504
727,1.2096,158.25
728,1.211267,158.101
729,1.212933,157.885
730,1.2146,157.885
731,1.216267,157.811
732,1.217933,157.721
733,1.2196,157.52
734,1.221267,157.52
735,1.222933,157.416
736,1.2246,157.118
737,1.226267,157.118
738,1.227933,156.835
739,1.2296,156.693
740,1.231267,156.529
741,1.232933,156.529
742,1.2346,156.499
743,1.236267,156.663
744,1.23795,156.917
745,1.239583,156.917
746,1.24125,157.2
747,1.242917,157.304
748,1.244583,157.505
749,1.24625,157.505
750,1.247917,157.349
751,1.249583,157.431
752,1.25125,157.282
753,1.252917,157.282
754,1.25465,156.991
755,1.25625,156.693
756,1.257917,156.693
757,1.259583,156.142
758,1.26125,156.023
759,1.262917,155.739
760,1.264583,155.739
761,1.266283,155.576
762,1.267917,155.501
763,1.269583,155.419
764,1.271333,155.419
765,1.272917,155.59
766,1.274583,155.635
767,1.27625,155.509
768,1.277917,155.509
769,1.279583,155.292
770,1.28125,155.039
771,1.282917,155.039
772,1.284583,154.6
773,1.28625,154.547
774,1.287917,154.801
775,1.289583,154.801
776,1.29125,154.674
777,1.292917,154.816
778,1.294583,154.741
779,1.29625,154.741
780,1.297917,154.547
781,1.299567,154.383
782,1.301233,154.383
783,1.3029,154.383
784,1.304567,154.13
785,1.306233,153.646
786,1.3079,153.482
787,1.309567,153.482
788,1.311233,153.176
789,1.3129,153.452
790,1.314567,153.452
791,1.316233,153.78
792,1.317917,154.227
793,1.319567,154.421
794,1.321233,154.421
795,1.3229,154.264
796,1.324567,154.026
797,1.326233,153.556
798,1.3279,153.556
799,1.329567,153.326
800,1.331233,153.355
801,1.3329,153.348
802,1.334567,153.348
803,1.33625,153.34
804,1.3379,153.46
805,1.339567,153.46
806,1.341233,153.117
807,1.3429,153.214
808,1.344567,153.407
809,1.346233,153.407
810,1.3479,153.117
811,1.349567,153.214
812,1.351233,152.901
813,1.3529,152.901
814,1.354567,152.536
815,1.356233,152.588
816,1.3579,152.536
817,1.359567,152.536
818,1.361217,152.528
819,1.362883,152.752
820,1.36455,152.752
821,1.366217,152.931
822,1.367883,152.901
823,1.36955,152.849
824,1.371217,152.849
825,1.372883,152.498
826,1.37455,152.051
827,1.376217,152.081
828,1.377883,152.081
829,1.37955,151.94
830,1.381217,151.724
831,1.382883,151.739
832,1.38455,151.739
833,1.386217,151.627
834,1.387883,151.776
835,1.38965,151.612
836,1.391217,151.612
837,1.392883,151.619
838,1.39455,151.552
839,1.396217,151.552
840,1.397883,151.582
841,1.39955,151.701
842,1.401217,151.776
843,1.402883,151.776
844,1.40455,151.619
845,1.406217,151.604
846,1.407883,151.962
847,1.40955,151.962
848,1.411217,151.761
849,1.412883,151.694
850,1.414567,151.403
851,1.416217,151.403
852,1.417917,151.023
853,1.41955,150.852
854,1.4212,150.852
855,1.422867,150.852
856,1.424533,151.001
857,1.4262,151.016
858,1.427867,151.016
859,1.429533,151.12
860,1.4312,151.083
861,1.432867,150.934
862,1.434533,150.934
863,1.4362,150.941
864,1.437867,150.83
865,1.439533,150.658
866,1.4412,150.658
867,1.442867,150.748
868,1.444517,150.39
869,1.446183,150.591
870,1.44785,150.591
871,1.449517,150.815
872,1.451183,150.83
873,1.45285,150.83
874,1.454517,151.172
875,1.456183,151.008
876,1.45785,150.83
877,1.459517,150.83
878,1.461183,150.472
879,1.46285,150.412
880,1.464517,150.368
881,1.466183,150.368
882,1.46785,150.174
883,1.469517,150.323
884,1.471183,150.234
885,1.47285,150.234
886,1.474583,150.189
887,1.476183,150.375
888,1.47785,150.375
889,1.479517,150.39
890,1.481167,150.554
891,1.482833,150.941
892,1.484533,150.941
893,1.486167,150.867
894,1.487833,150.561
895,1.4895,150.114
896,1.491183,150.114
897,1.49285,149.526
898,1.4945,149.28
899,1.496167,149.287
900,1.497833,149.287
901,1.4995,149.444
902,1.501167,149.556
903,1.502833,149.921
904,1.5045,149.921
905,1.506167,150.047
906,1.50795,149.876
907,1.5095,149.876
908,1.511167,149.861
909,1.512833,149.652
910,1.5145,149.377
911,1.516167,149.377
912,1.517833,149.354
913,1.5195,149.444
914,1.521167,149.25
915,1.522833,149.25
916,1.5245,149.526
917,1.526167,149.98
918,1.527833,149.786
919,1.5295,149.786
920,1.531167,149.98
921,1.532833,150.032
922,1.5345,150.032
923,1.536167,149.541
924,1.537833,149.503
925,1.5395,149.131
926,1.54115,149.131
927,1.542817,149.004
928,1.544483,149.287
929,1.54615,149.287
930,1.547817,149.287
931,1.549483,149.712
932,1.55115,149.623
933,1.552817,149.399
934,1.554483,149.399
935,1.55615,149.637
936,1.55785,149.526
937,1.559483,149.526
938,1.56115,149.25
939,1.562817,149.302
940,1.564483,149.161
941,1.56615,149.161
942,1.567817,149.019
943,1.569483,149.161
944,1.57115,149.22
945,1.572817,149.22
946,1.5745,149.19
947,1.57615,149.272
948,1.577817,149.19
949,1.579483,149.19
950,1.58115,149.041
951,1.582817,148.736
