"ID","sea_time","fid_signal"
1,0,145.309
2,0.001667,145.309
3,0.003333,145.197
4,0.005,145.093
5,0.006667,145.093
6,0.008333,144.474
7,0.01,143.878
8,0.011667,143.275
9,0.013333,143.275
10,0.015033,143.297
11,0.016667,143.334
12,0.018333,143.893
13,0.02,143.893
14,0.021667,144.564
15,0.023333,144.705
16,0.025,145.249
17,0.02665,145.249
18,0.028317,145.264
19,0.03005,145.264
20,0.03165,145.353
21,0.033317,145.353
22,0.034983,144.951
23,0.03665,144.675
24,0.038333,144.675
25,0.039983,144.586
26,0.04165,144.668
27,0.043317,144.914
28,0.044983,144.914
29,0.0467,145.026
30,0.048317,144.824
31,0.049983,144.593
32,0.05165,144.593
33,0.053333,144.78
34,0.054983,144.988
35,0.05665,145.055
36,0.058317,145.055
37,0.059983,145.1
38,0.06165,144.936
39,0.0634,144.675
40,0.064983,144.675
41,0.06665,144.929
42,0.068317,144.742
43,0.069983,144.742
44,0.07165000000000001,144.534
45,0.07331699999999999,144.683
46,0.07498299999999999,144.623
47,0.07665,144.623
48,0.078317,144.735
49,0.0801,145.003
50,0.08165,145.324
51,0.083317,145.324
52,0.084967,145.204
53,0.086633,145.048
54,0.0883,145.048
55,0.08996700000000001,145.145
56,0.091683,144.914
57,0.09329999999999999,144.735
58,0.094967,144.735
59,0.096633,144.951
60,0.0983,144.66
61,0.099967,144.564
62,0.101633,144.564
63,0.1033,144.72
64,0.104967,144.34
65,0.106633,144.474
66,0.1083,144.474
67,0.109967,144.4
68,0.111633,144.348
69,0.1133,144.757
70,0.114967,144.757
71,0.116633,144.787
72,0.1183,145.204
73,0.119967,145.204
74,0.121633,145.331
75,0.1233,145.532
76,0.124967,145.637
77,0.126633,145.637
78,0.1283,145.465
79,0.129967,145.16
80,0.131633,144.929
81,0.1333,144.929
82,0.134967,144.556
83,0.136633,144.623
84,0.1383,144.862
85,0.139983,144.862
86,0.141633,144.966
87,0.1433,145.115
88,0.14495,145.115
89,0.146617,144.78
90,0.1483,144.795
91,0.14995,144.66
92,0.151617,144.66
93,0.153283,144.616
94,0.154967,144.623
95,0.156617,144.564
96,0.158283,144.564
97,0.15995,144.511
98,0.161617,144.482
99,0.163283,144.519
100,0.164967,144.519
101,0.166617,144.482
102,0.168283,144.362
103,0.16995,144.176
104,0.171617,144.176
105,0.173283,144.176
106,0.17495,144.199
107,0.176617,144.199
108,0.178283,144.422
109,0.17995,144.765
110,0.181667,144.579
111,0.183283,144.579
112,0.18495,144.593
113,0.186617,144.467
114,0.188283,144.392
115,0.18995,144.392
116,0.191617,144.646
117,0.193283,144.877
118,0.19495,144.921
119,0.1966,144.921
120,0.198267,144.869
121,0.199933,144.705
122,0.2016,144.705
123,0.203267,144.474
124,0.204933,144.668
125,0.206583,144.72
126,0.20825,144.72
127,0.209917,144.854
128,0.211583,144.817
129,0.213267,144.474
130,0.214917,144.474
131,0.216583,144.325
132,0.21825,144.556
133,0.219917,144.675
134,0.221583,144.675
135,0.22325,144.668
136,0.224917,144.772
137,0.2266,144.511
138,0.228333,144.511
139,0.229917,144.474
140,0.231583,144.638
141,0.23325,144.638
142,0.234917,144.459
143,0.236583,144.318
144,0.23825,144.31
145,0.239917,144.31
146,0.241583,144.176
147,0.24325,144.325
148,0.244917,144.228
149,0.246583,144.228
150,0.24825,143.975
151,0.249917,143.982
152,0.251583,143.841
153,0.25325,143.841
154,0.254917,144.273
155,0.2566,144.497
156,0.25825,144.497
157,0.259917,144.541
158,0.261583,144.817
159,0.26325,144.899
160,0.264917,144.899
161,0.266567,144.929
162,0.268233,144.936
163,0.2699,144.742
164,0.271567,144.742
165,0.273233,144.377
166,0.2749,144.318
167,0.276567,144.251
168,0.278233,144.251
169,0.2799,144.303
170,0.281567,144.43
171,0.283267,144.467
172,0.2849,144.467
173,0.286567,144.571
174,0.288233,144.593
175,0.2899,144.593
176,0.291567,144.549
177,0.293233,144.37
178,0.2949,144.392
179,0.296583,144.392
180,0.298233,144.348
181,0.2999,144.333
182,0.301567,144.504
183,0.303233,144.504
184,0.3049,144.28
185,0.306567,144.228
186,0.308233,144.102
187,0.3099,144.102
188,0.311567,144.027
189,0.313233,144.31
190,0.3149,144.31
191,0.316667,144.146
192,0.318233,144.325
193,0.3199,144.415
194,0.321567,144.415
195,0.323233,144.772
196,0.3249,145.711
197,0.32655,146.665
198,0.328217,146.665
199,0.329883,147.633
200,0.33155,148.356
201,0.333217,148.982
202,0.334883,148.982
203,0.33655,150.219
204,0.338217,152.156
205,0.339883,152.156
206,0.34155,154.831
207,0.343217,158.63
208,0.344883,162.914
209,0.34655,162.914
210,0.348217,168.547
211,0.349883,175.491
212,0.35155,183.888
213,0.353217,183.888
214,0.354883,193.767
215,0.35655,205.398
216,0.358217,218.958
217,0.359883,218.958
218,0.36155,235.029
219,0.363217,254.057
220,0.364883,276.23
221,0.366567,276.23
222,0.368217,302.263
223,0.369883,331.968
224,0.37155,331.968
225,0.373217,366.218
226,0.374883,405.185
227,0.37655,448.808
228,0.378217,448.808
229,0.379883,498.049
230,0.38155,553.198
231,0.383217,614.583
232,0.384867,614.583
233,0.386533,683.0839999999999
234,0.3882,758.775
235,0.389867,842.169
236,0.391533,842.169
237,0.3932,934.288
238,0.394867,1035.899
239,0.396533,1035.899
240,0.3982,1148.321
241,0.399867,1273.088
242,0.401533,1411.669
243,0.4032,1411.669
244,0.404867,1566.291
245,0.406533,1739.42
246,0.4082,1935.259
247,0.409867,1935.259
248,0.411533,2158.277
249,0.4132,2414.465
250,0.414867,2711.512
251,0.416533,2711.512
252,0.4182,3057.294
253,0.419867,3461.309
254,0.421533,3933.459
255,0.4232,3933.459
256,0.424867,4483.566
257,0.426533,5120.94
258,0.4282,5120.94
259,0.429867,5853.966
260,0.431533,6688.848
261,0.4332,7628.143
262,0.43495,7628.143
263,0.436533,8671.753000000001
264,0.4382,9815.334999999999
265,0.439867,11050.202
266,0.441533,11050.202
267,0.4432,12363.128
268,0.44485,13735.332
269,0.446517,15144.423
270,0.448183,15144.423
271,0.44985,16563.914
272,0.451517,17965.176
273,0.453183,17965.176
274,0.45485,19318.744
275,0.456517,20593.33
276,0.458183,21760.023
277,0.45985,21760.023
278,0.461517,22793.33
279,0.463183,23671.336
280,0.46485,24379.387
281,0.466517,24379.387
282,0.468183,24908.395
283,0.46985,25255.357
284,0.471517,25423.295
285,0.4732,25423.295
286,0.47485,25419.756
287,0.476517,25257.244
288,0.478183,24951.518
289,0.47985,24951.518
290,0.481517,24520.658
291,0.483183,23984.463
292,0.48485,23984.463
293,0.486517,23362.346
294,0.488167,22673.033
295,0.489833,21933.824
296,0.4915,21933.824
297,0.493167,21160.17
298,0.494833,20366.08
299,0.4965,19562.93
300,0.498167,19562.93
301,0.499833,18760.174
302,0.5014999999999999,17966.479
303,0.503167,17187.654
304,0.504833,17187.654
305,0.5065499999999999,16428.336
306,0.50815,15693.009
307,0.509817,15693.009
308,0.511483,14982.976
309,0.51315,14300.682
310,0.514817,13647.348
311,0.516483,13647.348
312,0.51815,13022.899
313,0.519883,12427.725
314,0.521483,11860.93
315,0.52315,11860.93
316,0.524817,11321.88
317,0.526483,10809.496
318,0.52815,10322.816
319,0.529817,10322.816
320,0.531483,9860.784
321,0.53315,9422.398999999999
322,0.534817,9422.398999999999
323,0.536483,9006.635
324,0.53815,8612.192999999999
325,0.539817,8237.771000000001
326,0.541483,8237.771000000001
327,0.54315,7882.312
328,0.544817,7544.86
329,0.5464830000000001,7224.135
330,0.54815,7224.135
331,0.549817,6919.689
332,0.5514829999999999,6630.331
333,0.553267,6355.144
334,0.554817,6355.144
335,0.5564829999999999,6094.143
336,0.55815,5845.316
337,0.559817,5608.529
338,0.561483,5608.529
339,0.56315,5383.298
340,0.564817,5168.349
341,0.5664670000000001,5168.349
342,0.568133,4963.778
343,0.5698,4768.774
344,0.5714669999999999,4582.673
345,0.573133,4582.673
346,0.5748,4405.402
347,0.576467,4236.191
348,0.578133,4074.238
349,0.5798,4074.238
350,0.5815,3919.631
351,0.583133,3771.998
352,0.5848,3631.167
353,0.586467,3631.167
354,0.588133,3496.848
355,0.5898,3368.519
356,0.591467,3368.519
357,0.593133,3245.57
358,0.5948,3127.821
359,0.596467,3015.466
360,0.598133,3015.466
361,0.5998,2907.85
362,0.601467,2804.927
363,0.603133,2706.52
364,0.6048,2706.52
365,0.606467,2612.129
366,0.608133,2521.56
367,0.6098,2434.79
368,0.611467,2434.79
369,0.613133,2351.374
370,0.6148,2271.563
371,0.616467,2195.112
372,0.618133,2195.112
373,0.6198,2121.933
374,0.621467,2051.756
375,0.623133,2051.756
376,0.624783,1984.283
377,0.62645,1919.925
378,0.628117,1858.234
379,0.629783,1858.234
380,0.63145,1798.987
381,0.633117,1741.99
382,0.634783,1687.184
383,0.63645,1687.184
384,0.6381829999999999,1634.255
385,0.639783,1583.643
386,0.64145,1535.49
387,0.643117,1535.49
388,0.644783,1488.842
389,0.64645,1443.93
390,0.648133,1443.93
391,0.649783,1400.761
392,0.65145,1358.874
393,0.6531169999999999,1318.678
394,0.654783,1318.678
395,0.65645,1280.263
396,0.658117,1243.539
397,0.659783,1208.372
398,0.66145,1208.372
399,0.663117,1174.457
400,0.664783,1141.876
401,0.66645,1110.256
402,0.668117,1110.256
403,0.6698,1079.492
404,0.671567,1050.234
405,0.673117,1021.676
406,0.674783,1021.676
407,0.67645,994.287
408,0.678117,967.905
409,0.679783,967.905
410,0.68145,942.424
411,0.683117,918.12
412,0.684767,894.479
413,0.686433,894.479
414,0.6881,871.941
415,0.689767,850.044
416,0.691433,829.101
417,0.6931,829.101
418,0.694767,809.297
419,0.696433,789.881
420,0.6981000000000001,771.1950000000001
421,0.699767,771.1950000000001
422,0.701433,753.172
423,0.7030999999999999,735.35
424,0.704767,735.35
425,0.706433,718.407
426,0.7081,701.919
427,0.709767,685.759
428,0.711433,685.759
429,0.7131,670.388
430,0.714767,655.74
431,0.716433,641.622
432,0.7181,641.622
433,0.719783,627.875
434,0.721433,614.673
435,0.7231,601.687
436,0.7247670000000001,601.687
437,0.726433,589.125
438,0.7281,577.1369999999999
439,0.7297670000000001,577.1369999999999
440,0.731433,565.357
441,0.7331,553.817
442,0.7347669999999999,543.147
443,0.736433,543.147
444,0.7381,532.612
445,0.739767,522.524
446,0.741433,513.054
447,0.7431,513.054
448,0.74475,503.22
449,0.746417,493.668
450,0.7480830000000001,484.511
451,0.74975,484.511
452,0.751417,475.571
453,0.7530829999999999,466.943
454,0.75475,458.762
455,0.75645,458.762
456,0.758083,450.775
457,0.75975,443.183
458,0.761417,443.183
459,0.763083,436.082
460,0.76475,428.878
461,0.766417,421.979
462,0.768083,421.979
463,0.76975,415.102
464,0.771417,408.411
465,0.773167,402.249
466,0.77475,402.249
467,0.776417,396.237
468,0.778067,390.358
469,0.779733,384.621
470,0.7814,384.621
471,0.783067,378.825
472,0.784733,373.259
473,0.7864,373.259
474,0.788067,367.858
475,0.789783,362.776
476,0.791467,357.874
477,0.793067,357.874
478,0.794733,352.897
479,0.7964,348.017
480,0.798067,343.069
481,0.799733,343.069
482,0.8014,338.495
483,0.803067,334.151
484,0.804733,330.001
485,0.806383,330.001
486,0.80805,326.037
487,0.809717,322.185
488,0.811383,318.304
489,0.8130500000000001,318.304
490,0.814717,314.69
491,0.816383,311.032
492,0.8180500000000001,311.032
493,0.819717,307.389
494,0.821383,304.215
495,0.8230499999999999,301.085
496,0.824717,301.085
497,0.826383,298.075
498,0.82805,295.013
499,0.829717,291.69
500,0.831383,291.69
501,0.83305,288.151
502,0.834717,285.223
503,0.836383,282.377
504,0.83805,282.377
505,0.839717,279.836
506,0.841383,277.556
507,0.84305,277.556
508,0.844733,274.576
509,0.846383,271.812
510,0.84805,268.944
511,0.8497169999999999,268.944
512,0.851383,266.105
513,0.85305,263.803
514,0.8547169999999999,261.888
515,0.856383,261.888
516,0.858067,259.802
517,0.859717,257.984
518,0.861383,255.935
519,0.86305,255.935
520,0.864717,253.774
521,0.866367,251.725
522,0.8680330000000001,251.725
523,0.8697,249.632
524,0.871367,247.702
525,0.87305,245.601
526,0.8747,245.601
527,0.876367,243.708
528,0.878033,241.548
529,0.8797,239.581
530,0.881367,239.581
531,0.883033,237.927
532,0.8847,236.206
533,0.886367,234.865
534,0.888033,234.865
535,0.8897,233.62
536,0.891433,232.078
537,0.893033,230.536
538,0.8947000000000001,230.536
539,0.896367,228.912
540,0.898033,227.243
541,0.8997000000000001,227.243
542,0.901367,225.872
543,0.903033,224.389
544,0.9046999999999999,223.272
545,0.906367,223.272
546,0.9081,222.035
547,0.9097,220.835
548,0.911367,219.919
549,0.913033,219.919
550,0.9147,218.421
551,0.916367,216.909
552,0.918033,215.389
553,0.9197,215.389
554,0.921367,213.943
555,0.923033,212.729
556,0.9248,211.678
557,0.92635,211.678
558,0.928017,210.762
559,0.929683,210.159
560,0.93135,210.159
561,0.933017,209.652
562,0.934683,209.048
563,0.9363669999999999,208.259
564,0.938017,208.259
565,0.939683,206.843
566,0.94135,205.658
567,0.943017,204.489
568,0.9446830000000001,204.489
569,0.94635,203.386
570,0.948017,202.619
571,0.9496830000000001,201.441
572,0.95135,201.441
573,0.953017,200.495
574,0.9546829999999999,199.564
575,0.95635,199.564
576,0.958017,198.707
577,0.959683,198.334
578,0.96135,197.664
579,0.963017,197.664
580,0.964683,196.956
581,0.96635,196.137
582,0.968017,195.414
583,0.969683,195.414
584,0.97135,194.557
585,0.973017,193.611
586,0.974683,192.828
587,0.9763500000000001,192.828
588,0.978017,191.808
589,0.979683,191.122
590,0.9813499999999999,191.122
591,0.983017,190.705
592,0.984683,190.504
593,0.986333,190.027
594,0.988,190.027
595,0.989667,189.513
596,0.991333,188.857
597,0.993,188.187
598,0.994667,188.187
599,0.996333,187.643
600,0.998,187.024
601,0.999683,186.533
602,1.001333,186.533
603,1.003,185.817
604,1.004667,185.125
605,1.006333,184.588
606,1.008,184.588
607,1.0097,184.141
608,1.011333,183.62
609,1.013,183.62
610,1.014667,183.165
611,1.016333,182.658
612,1.018,182.1
613,1.019667,182.1
614,1.021333,181.489
615,1.023,180.878
616,1.024667,180.557
617,1.026383,180.557
618,1.028,180.073
619,1.029667,179.663
620,1.031333,179.41
621,1.033,179.41
622,1.034667,179.201
623,1.036333,178.777
624,1.038,178.777
625,1.039667,178.419
626,1.041333,177.979
627,1.0431,177.488
628,1.044667,177.488
629,1.046317,177.331
630,1.047983,177.175
631,1.04965,176.929
632,1.051317,176.929
633,1.052983,176.363
634,1.05465,175.774
635,1.056333,175.357
636,1.057983,175.357
637,1.05965,175.014
638,1.061317,174.597
639,1.062983,174.291
640,1.06465,174.291
641,1.066317,173.844
642,1.067983,173.278
643,1.069633,173.278
644,1.0713,173.211
645,1.072967,172.622
646,1.074633,172.287
647,1.0763,172.287
648,1.077967,172.183
649,1.079633,171.751
650,1.0813,171.848
651,1.082967,171.848
652,1.084633,171.669
653,1.0863,171.497
654,1.087967,171.199
655,1.089633,171.199
656,1.0913,170.73
657,1.092967,170.35
658,1.094633,170.35
659,1.0963,169.836
660,1.097967,169.687
661,1.099633,169.27
662,1.1013,169.27
663,1.102967,168.756
664,1.104633,168.577
665,1.106283,168.346
666,1.10795,168.346
667,1.109617,168.204
668,1.111283,168.167
669,1.11295,167.795
670,1.114617,167.795
671,1.116283,167.571
672,1.11795,167.489
673,1.119617,167.489
674,1.121283,167.362
675,1.12295,167.124
676,1.124617,166.58
677,1.126283,166.58
678,1.128017,166.439
679,1.129617,166.416
680,1.131283,166.476
681,1.13295,166.476
682,1.134633,166.543
683,1.136283,166.148
684,1.13795,165.597
685,1.139617,165.597
686,1.141317,165.172
687,1.14295,164.621
688,1.144633,164.501
689,1.146283,164.501
690,1.14795,164.36
691,1.149617,164.419
692,1.151283,164.419
693,1.15295,164.315
694,1.154617,163.823
695,1.156283,163.682
696,1.15795,163.682
697,1.159617,163.443
698,1.1614,163.354
699,1.16295,163.212
700,1.164617,163.212
701,1.166267,162.944
702,1.167933,162.601
703,1.1696,162.43
704,1.171267,162.43
705,1.172933,162.482
706,1.1746,162.341
707,1.176267,162.341
708,1.177933,162.125
709,1.1796,161.789
710,1.181267,161.797
711,1.182933,161.797
712,1.1846,161.603
713,1.186267,161.409
714,1.187933,161.491
715,1.1896,161.491
716,1.191267,161.096
717,1.192933,161.096
718,1.1946,161.186
719,1.196267,161.186
720,1.197933,160.992
721,1.1996,160.821
722,1.201267,160.851
723,1.202933,160.851
724,1.2046,160.59
725,1.206267,160.672
726,1.207933,160.672
727,1.2096,160.59
728,1.211267,160.225
729,1.212933,160.098
730,1.2146,160.098
731,1.216267,159.688
732,1.217933,159.74
733,1.219633,159.636
734,1.221267,159.636
735,1.222933,159.755
736,1.224583,159.837
737,1.22625,159.74
738,1.227917,159.74
739,1.229583,159.696
740,1.23125,159.547
741,1.232917,159.547
742,1.234583,159.144
743,1.23625,158.66
744,1.237917,158.37
745,1.239583,158.37
746,1.24125,157.826
747,1.242917,157.841
748,1.244583,157.848
749,1.246317,157.848
750,1.247933,157.781
751,1.249583,157.952
752,1.25125,157.796
753,1.252917,157.796
754,1.254583,157.945
755,1.25625,158.116
756,1.257917,157.9
757,1.259583,157.9
758,1.26125,157.997
759,1.262917,157.848
760,1.264583,157.848
761,1.26625,157.692
762,1.267917,157.811
763,1.269583,157.855
764,1.27125,157.855
765,1.272917,157.99
766,1.274583,157.706
767,1.27625,157.371
768,1.277917,157.371
769,1.27965,157.014
770,1.28125,156.73
771,1.282917,156.626
772,1.284567,156.626
773,1.286233,156.626
774,1.287933,156.611
775,1.289567,156.611
776,1.291233,156.455
777,1.2929,156.313
778,1.294567,156.082
779,1.296233,156.082
780,1.2979,155.956
781,1.299567,155.643
782,1.301233,155.643
783,1.3029,155.643
784,1.304567,155.903
785,1.306233,156.082
786,1.3079,156.097
787,1.309567,156.097
788,1.311233,156.105
789,1.312917,155.769
790,1.314567,155.769
791,1.316233,155.702
792,1.3179,155.918
793,1.319567,155.695
794,1.321233,155.695
795,1.3229,155.531
796,1.324567,154.927
797,1.326233,154.532
798,1.3279,154.532
799,1.329567,154.495
800,1.331233,154.525
801,1.3329,154.629
802,1.334567,154.629
803,1.336233,154.831
804,1.3379,154.905
805,1.339567,154.726
806,1.341233,154.726
807,1.3429,154.659
808,1.34455,154.369
809,1.346217,154.369
810,1.347883,154.167
811,1.34955,154.249
812,1.351217,154.302
813,1.352883,154.302
814,1.354567,154.495
815,1.356217,154.436
816,1.357883,154.704
817,1.35955,154.704
818,1.3612,154.428
819,1.362867,154.182
820,1.3646,154.167
821,1.3662,154.167
822,1.367867,153.81
823,1.369533,153.698
824,1.3712,153.698
825,1.372867,153.37
826,1.374533,153.355
827,1.3762,153.154
828,1.377867,153.154
829,1.379533,153.08
830,1.3812,153.117
831,1.382867,153.013
832,1.384533,153.013
833,1.3862,153.124
834,1.387867,153.363
835,1.389533,153.653
836,1.3912,153.653
837,1.392867,153.758
838,1.394533,153.504
839,1.3962,153.594
840,1.397917,153.594
841,1.399533,153.363
842,1.4012,153.065
843,1.402867,153.065
844,1.404517,153.035
845,1.406183,152.715
846,1.40785,152.737
847,1.409517,152.737
848,1.411183,152.67
849,1.41285,152.901
850,1.414517,152.849
851,1.416183,152.849
852,1.41785,152.595
853,1.419517,152.253
854,1.421183,151.925
855,1.422867,151.925
856,1.424517,151.85
857,1.426183,151.925
858,1.427883,151.925
859,1.429517,152.275
860,1.431183,152.379
861,1.43285,152.111
862,1.434517,152.111
863,1.436183,151.925
864,1.43785,152.096
865,1.439517,151.798
866,1.441183,151.798
867,1.44285,151.947
868,1.444517,151.962
869,1.446183,151.709
870,1.44785,151.709
871,1.449517,151.619
872,1.451183,151.567
873,1.45285,151.843
874,1.454517,151.843
875,1.456183,151.91
876,1.45785,152.23
877,1.459517,152.23
878,1.461183,152.297
879,1.46285,151.731
880,1.4645,151.627
881,1.466167,151.627
882,1.467833,151.552
883,1.4695,151.746
884,1.471167,151.858
885,1.472833,151.858
886,1.4745,151.56
887,1.476167,151.277
888,1.477867,150.949
889,1.4795,150.949
890,1.481167,150.986
891,1.482883,150.792
892,1.4845,150.792
893,1.486167,150.636
894,1.487833,150.688
895,1.4895,150.591
896,1.491167,150.591
897,1.492833,151.068
898,1.4945,151.366
899,1.496167,151.478
900,1.497833,151.478
901,1.4995,151.47
902,1.501167,151.157
903,1.502833,150.897
904,1.5045,150.897
905,1.506167,150.524
906,1.507833,150.502
907,1.5095,150.502
908,1.511167,150.427
909,1.512833,150.651
910,1.5145,150.502
911,1.516267,150.502
912,1.517833,150.234
913,1.5195,150.241
914,1.521167,149.995
915,1.522833,149.995
916,1.524483,150.159
917,1.52615,150.397
918,1.527817,150.315
919,1.529483,150.315
920,1.53115,150.241
921,1.532817,149.943
922,1.534483,149.854
923,1.53615,149.854
924,1.537817,150.04
925,1.539483,150.047
926,1.54115,150.047
927,1.542817,150.375
928,1.544483,150.494
929,1.54615,150.308
930,1.547817,150.308
931,1.549483,150.338
932,1.55115,150.271
933,1.552817,149.816
934,1.554483,149.816
935,1.55615,149.742
936,1.557817,149.809
937,1.559483,150.099
938,1.56115,150.099
939,1.562817,150.137
940,1.564483,150.025
941,1.566167,150.025
942,1.567817,149.98
943,1.569483,149.541
944,1.57115,149.66
945,1.572817,149.66
946,1.574483,149.578
947,1.57615,149.518
948,1.577817,149.66
949,1.579483,149.66
950,1.58115,149.809
