"ID","sea_time","fid_signal"
1,0,146.18
2,0.001667,146.285
3,0.003367,146.233
4,0.005,146.598
5,0.006667,146.598
6,0.008333,146.441
7,0.01,145.905
8,0.011667,145.07
9,0.013333,145.07
10,0.015,144.362
11,0.016667,144.102
12,0.018333,144.437
13,0.019983,144.437
14,0.021667,145.04
15,0.023317,145.532
16,0.024983,145.905
17,0.02665,145.905
18,0.028317,145.771
19,0.029983,145.674
20,0.03165,145.674
21,0.033317,145.525
22,0.034983,145.42
23,0.03665,145.525
24,0.038317,145.525
25,0.039983,145.361
26,0.04165,145.659
27,0.043317,146.121
28,0.044983,146.121
29,0.04665,146.516
30,0.048333,146.709
31,0.049983,146.605
32,0.05165,146.605
33,0.053433,146.329
34,0.054983,145.905
35,0.05665,145.905
36,0.058317,145.838
37,0.059983,145.83
38,0.06165,145.666
39,0.063317,145.666
40,0.064983,145.741
41,0.06665,145.666
42,0.068317,145.92
43,0.069983,145.92
44,0.07165000000000001,146.165
45,0.07331699999999999,146.344
46,0.07498299999999999,146.344
47,0.07665,146.344
48,0.078317,146.061
49,0.08,145.927
50,0.081633,145.927
51,0.0833,146.002
52,0.084967,146.113
53,0.086633,146.188
54,0.0883,146.188
55,0.08996700000000001,145.957
56,0.09163300000000001,145.614
57,0.09329999999999999,145.666
58,0.094967,145.666
59,0.096633,145.51
60,0.0983,145.733
61,0.099983,145.979
62,0.101633,145.979
63,0.1033,146.106
64,0.104967,146.531
65,0.106633,146.776
66,0.1083,146.776
67,0.109967,146.598
68,0.111633,146.389
69,0.1133,146.389
70,0.114967,146.277
71,0.116633,146.188
72,0.1183,146.367
73,0.119967,146.367
74,0.121633,146.814
75,0.1233,146.62
76,0.124967,146.516
77,0.126633,146.516
78,0.1283,146.56
79,0.129967,146.314
80,0.131633,146.449
81,0.1333,146.449
82,0.134967,146.613
83,0.136633,146.613
84,0.13835,146.538
85,0.139967,146.538
86,0.141617,146.516
87,0.143283,146.538
88,0.14495,146.538
89,0.146617,146.426
90,0.148283,146.247
91,0.14995,146.21
92,0.151667,146.21
93,0.153283,145.92
94,0.15495,145.726
95,0.156617,145.957
96,0.158283,145.957
97,0.15995,145.957
98,0.161617,146.247
99,0.163283,146.531
100,0.16495,146.531
101,0.166617,146.598
102,0.168283,146.516
103,0.16995,146.516
104,0.171717,146.426
105,0.173283,146.605
106,0.17495,146.598
107,0.176617,146.598
108,0.178283,146.523
109,0.17995,146.285
110,0.181617,146.061
111,0.183283,146.061
112,0.18495,146.076
113,0.186617,146.314
114,0.188283,146.322
115,0.189933,146.322
116,0.1916,146.195
117,0.193267,145.853
118,0.194933,145.853
119,0.1966,145.793
120,0.198267,146.151
121,0.199933,146.322
122,0.201583,146.322
123,0.20325,146.404
124,0.204917,146.158
125,0.206583,145.86
126,0.20825,145.86
127,0.209917,145.54
128,0.211583,145.629
129,0.21325,145.838
130,0.214917,145.838
131,0.216583,145.704
132,0.21825,145.629
133,0.219917,145.778
134,0.221583,145.778
135,0.223267,145.726
136,0.224917,145.689
137,0.226583,145.689
138,0.22825,145.882
139,0.229917,145.547
140,0.231583,145.406
141,0.23325,145.406
142,0.234917,145.338
143,0.236583,145.331
144,0.23825,145.175
145,0.239917,145.175
146,0.241583,145.055
147,0.24325,145.115
148,0.244917,145.003
149,0.246583,145.003
150,0.24825,145.435
151,0.249917,145.465
152,0.251583,145.465
153,0.25325,145.435
154,0.254917,145.681
155,0.256633,145.406
156,0.25825,145.406
157,0.259917,145.361
158,0.261583,145.599
159,0.263233,145.48
160,0.2649,145.48
161,0.266567,145.555
162,0.268233,145.599
163,0.2699,145.525
164,0.271567,145.525
165,0.273233,145.428
166,0.274917,145.309
167,0.276567,145.309
168,0.278233,145.309
169,0.2799,145.391
170,0.281567,145.346
171,0.283233,145.346
172,0.2849,145.42
173,0.286567,145.771
174,0.288233,145.838
175,0.289917,145.838
176,0.291567,146.076
177,0.293233,145.979
178,0.2949,145.473
179,0.296567,145.473
180,0.298233,145.197
181,0.2999,144.921
182,0.301567,145.249
183,0.303233,145.249
184,0.3049,145.495
185,0.306567,145.555
186,0.308233,145.555
187,0.3099,145.748
188,0.311567,145.465
189,0.313233,145.599
190,0.3149,145.599
191,0.316567,145.569
192,0.318233,145.607
193,0.3199,145.964
194,0.32155,145.964
195,0.323217,145.882
196,0.324883,145.756
197,0.32655,145.622
198,0.328217,145.622
199,0.329883,145.294
200,0.33155,145.078
201,0.333217,145.078
202,0.334883,144.944
203,0.33655,144.899
204,0.338217,144.944
205,0.339883,144.944
206,0.34155,144.988
207,0.343217,145.063
208,0.344883,145.234
209,0.34655,145.234
210,0.348217,145.361
211,0.349883,145.748
212,0.35155,146.188
213,0.353217,146.188
214,0.354883,146.046
215,0.35655,145.979
216,0.358217,145.696
217,0.359883,145.696
218,0.36155,145.696
219,0.363217,145.8
220,0.364883,145.8
221,0.36655,145.651
222,0.368217,145.711
223,0.369883,145.651
224,0.37155,145.651
225,0.373217,145.704
226,0.374967,146.203
227,0.37655,146.389
228,0.378217,146.389
229,0.379883,146.404
230,0.381533,146.627
231,0.3832,146.59
232,0.384867,146.59
233,0.386533,146.799
234,0.3882,147.007
235,0.389867,147.007
236,0.391633,147.171
237,0.3932,147.596
238,0.394867,148.281
239,0.396533,148.281
240,0.3982,149.406
241,0.399867,150.643
242,0.401533,152.2
243,0.4032,152.2
244,0.404867,153.81
245,0.406533,155.68
246,0.4083,158.638
247,0.409867,158.638
248,0.411533,161.879
249,0.4132,166.669
250,0.414867,172.496
251,0.416533,172.496
252,0.4182,179.425
253,0.419867,188.313
254,0.421533,188.313
255,0.4232,199.154
256,0.424967,212.967
257,0.426533,229.754
258,0.4282,229.754
259,0.429867,250.228
260,0.431533,274.934
261,0.4332,304.237
262,0.434867,304.237
263,0.436533,338.756
264,0.438233,379.011
265,0.439867,424.862
266,0.441533,424.862
267,0.443183,476.629
268,0.44485,534.706
269,0.446517,534.706
270,0.448183,598.84
271,0.44985,668.772
272,0.451533,743.821
273,0.453183,743.821
274,0.45485,823.528
275,0.456517,906.877
276,0.458183,992.894
277,0.45985,992.894
278,0.461517,1080.968
279,0.463183,1169.942
280,0.46485,1258.254
281,0.466517,1258.254
282,0.468183,1345.292
283,0.46985,1429.893
284,0.471517,1510.523
285,0.473183,1510.523
286,0.47485,1587.249
287,0.476517,1658.693
288,0.478183,1658.693
289,0.47985,1723.841
290,0.4815,1782.857
291,0.483167,1834.124
292,0.484833,1834.124
293,0.4865,1878.522
294,0.488167,1916.416
295,0.489833,1946.911
296,0.4915,1946.911
297,0.493183,1970.999
298,0.494833,1988.418
299,0.4965,1999.281
300,0.498167,1999.281
301,0.499817,2004.765
302,0.5014999999999999,2004.854
303,0.50315,2004.854
304,0.504817,1999.892
305,0.506517,1990.251
306,0.5082,1975.909
307,0.509883,1975.909
308,0.511483,1957.983
309,0.51315,1936.257
310,0.514817,1911.841
311,0.516483,1911.841
312,0.51815,1884.773
313,0.519817,1855.776
314,0.521483,1825.497
315,0.52315,1825.497
316,0.524817,1793.578
317,0.526583,1760.736
318,0.52815,1760.736
319,0.529817,1726.806
320,0.531483,1692.042
321,0.53315,1656.882
322,0.534817,1656.882
323,0.536483,1621.641
324,0.53815,1586.497
325,0.539817,1551.405
326,0.541483,1551.405
327,0.5432670000000001,1516.461
328,0.544817,1482.062
329,0.5464830000000001,1448.102
330,0.54815,1448.102
331,0.549817,1414.59
332,0.5514829999999999,1381.74
333,0.55315,1349.442
334,0.554817,1349.442
335,0.5564829999999999,1317.814
336,0.55815,1287.103
337,0.5598,1287.103
338,0.561467,1257.174
339,0.563133,1227.841
340,0.5648,1198.932
341,0.5664670000000001,1198.932
342,0.568133,1171.127
343,0.5698,1144.215
344,0.5714669999999999,1118.101
345,0.573133,1118.101
346,0.5748,1092.553
347,0.576467,1067.489
348,0.578133,1043.081
349,0.579817,1043.081
350,0.581483,1019.105
351,0.583133,996.388
352,0.5848,996.388
353,0.586467,974.372
354,0.588133,952.885
355,0.5898,932.47
356,0.591467,932.47
357,0.593133,912.324
358,0.5948,892.7140000000001
359,0.596467,873.707
360,0.598133,873.707
361,0.5998,855.401
362,0.601467,837.475
363,0.603133,820.309
364,0.6048,820.309
365,0.606467,803.687
366,0.608133,787.228
367,0.6098,771.977
368,0.611467,771.977
369,0.613133,756.897
370,0.6148,741.914
371,0.616467,741.914
372,0.618133,727.519
373,0.619783,713.348
374,0.6214499999999999,699.937
375,0.623117,699.937
376,0.624783,687.197
377,0.626467,674.777
378,0.628183,662.737
379,0.629783,662.737
380,0.63145,650.562
381,0.633117,639.1180000000001
382,0.634783,628.076
383,0.63645,628.076
384,0.638117,617.2140000000001
385,0.639783,607.1180000000001
386,0.64145,607.1180000000001
387,0.643117,597.172
388,0.644883,587.389
389,0.64645,578.091
390,0.6481170000000001,578.091
391,0.649783,568.8819999999999
392,0.65145,559.717
393,0.6531169999999999,550.829
394,0.654783,550.829
395,0.656467,542.052
396,0.6581669999999999,533.752
397,0.659783,525.504
398,0.66155,525.504
399,0.663117,517.8819999999999
400,0.664783,510.477
401,0.66645,502.981
402,0.668117,502.981
403,0.669783,495.903
404,0.67145,488.766
405,0.673117,488.766
406,0.674783,481.814
407,0.67645,475.362
408,0.678117,469.029
409,0.679783,469.029
410,0.681433,462.733
411,0.6831,456.601
412,0.684767,450.47
413,0.686433,450.47
414,0.6881,444.561
415,0.689767,439.04
416,0.691433,433.572
417,0.6931,433.572
418,0.694767,428.088
419,0.696433,423.223
420,0.6981000000000001,423.223
421,0.699767,417.911
422,0.701433,412.934
423,0.7030999999999999,408.515
424,0.704767,408.515
425,0.706433,403.449
426,0.7081,399.254
427,0.709767,394.925
428,0.711433,394.925
429,0.7131,390.321
430,0.714767,386.38
431,0.716433,382.058
432,0.7181,382.058
433,0.719767,378.005
434,0.721433,374.109
435,0.7231,374.109
436,0.724817,370.309
437,0.726433,366.516
438,0.7281,362.687
439,0.7297670000000001,362.687
440,0.731433,359.185
441,0.7331,355.594
442,0.7347669999999999,352.018
443,0.736433,352.018
444,0.7381,348.65
445,0.739767,345.282
446,0.741433,342.071
447,0.743083,342.071
448,0.74475,339.15
449,0.7464499999999999,336.2
450,0.7480830000000001,333.22
451,0.74975,333.22
452,0.751417,330.493
453,0.7530829999999999,327.535
454,0.75475,327.535
455,0.756417,324.89
456,0.758083,321.917
457,0.75975,318.855
458,0.761417,318.855
459,0.7631,316.121
460,0.76475,313.304
461,0.766417,311.188
462,0.768083,311.188
463,0.76975,308.76
464,0.771417,306.427
465,0.7730669999999999,304.259
466,0.774733,304.259
467,0.7764,301.547
468,0.778067,299.342
469,0.779833,297.166
470,0.7814,297.166
471,0.783067,294.864
472,0.784733,292.778
473,0.7864,292.778
474,0.788067,290.491
475,0.789733,288.762
476,0.7914,286.624
477,0.793067,286.624
478,0.794733,284.813
479,0.7964,283.219
480,0.798067,280.902
481,0.79975,280.902
482,0.8014,279.054
483,0.8031,277.199
484,0.804717,275.329
485,0.806383,275.329
486,0.80805,273.608
487,0.809717,272.132
488,0.811383,272.132
489,0.8130500000000001,270.762
490,0.814717,269.04
491,0.816383,267.431
492,0.8180500000000001,267.431
493,0.819717,265.658
494,0.821383,263.929
495,0.8230499999999999,262.767
496,0.824717,262.767
497,0.826383,261.27
498,0.82805,259.906
499,0.829717,258.423
500,0.831383,258.423
501,0.83305,256.71
502,0.834717,255.339
503,0.836383,255.339
504,0.83805,254.065
505,0.839717,252.694
506,0.841383,251.152
507,0.84305,251.152
508,0.8447170000000001,250.056
509,0.846383,248.618
510,0.84805,247.203
511,0.8497169999999999,247.203
512,0.851383,246.271
513,0.85305,245.199
514,0.8547169999999999,243.992
515,0.856383,243.992
516,0.85805,242.77
517,0.8597,241.458
518,0.861367,241.458
519,0.8630330000000001,239.976
520,0.864767,239.141
521,0.866367,238.203
522,0.8680330000000001,238.203
523,0.8697,237.122
524,0.871367,236.019
525,0.8730329999999999,234.813
526,0.874717,234.813
527,0.876367,234.097
528,0.878033,233.382
529,0.8797,232.451
530,0.881367,232.451
531,0.883033,231.46
532,0.8847,230.186
533,0.886367,228.673
534,0.888033,228.673
535,0.8897,227.734
536,0.891367,226.848
537,0.893033,226.848
538,0.8947000000000001,225.998
539,0.896367,225.231
540,0.89815,224.561
541,0.8997000000000001,224.561
542,0.901367,223.666
543,0.903033,222.631
544,0.9046999999999999,221.871
545,0.906367,221.871
546,0.908033,220.88
547,0.9097,219.978
548,0.911367,219.099
549,0.913033,219.099
550,0.9147,218.041
551,0.916367,216.953
552,0.918033,216.953
553,0.9197,216.104
554,0.92135,215.456
555,0.923017,215.128
556,0.924683,215.128
557,0.92635,214.577
558,0.928017,213.675
559,0.929683,213.131
560,0.93135,213.131
561,0.933017,212.401
562,0.934683,211.641
563,0.93635,211.455
564,0.938017,211.455
565,0.939683,210.68
566,0.94135,210.017
567,0.943017,209.22
568,0.9446830000000001,209.22
569,0.94635,208.162
570,0.948017,207.193
571,0.9496830000000001,207.193
572,0.95135,206.366
573,0.953017,205.956
574,0.9546829999999999,205.457
575,0.95635,205.457
576,0.958017,205.234
577,0.959683,204.571
578,0.96135,203.714
579,0.963017,203.714
580,0.964683,203.2
581,0.96635,202.455
582,0.968017,202.067
583,0.969683,202.067
584,0.97135,201.844
585,0.973017,201.173
586,0.974683,201.173
587,0.9763500000000001,200.674
588,0.978017,200.316
589,0.979683,200.093
590,0.9813499999999999,200.093
591,0.983,199.787
592,0.984667,199.422
593,0.986333,198.849
594,0.988,198.849
595,0.989667,198.029
596,0.991333,197.366
597,0.993,196.725
598,0.994667,196.725
599,0.996333,196.189
600,0.998,195.779
601,0.999683,195.526
602,1.001333,195.526
603,1.003,195.019
604,1.004667,194.713
605,1.006333,194.713
606,1.008,194.192
607,1.0097,193.655
608,1.011333,193.216
609,1.013,193.216
610,1.014667,192.59
611,1.016383,192.314
612,1.018,191.86
613,1.019667,191.86
614,1.021333,191.495
615,1.023,190.817
616,1.024667,190.288
617,1.026333,190.288
618,1.028,189.818
619,1.029667,189.073
620,1.031333,189.073
621,1.033,188.895
622,1.034667,188.515
623,1.036333,188.254
624,1.038,188.254
625,1.039667,188.462
626,1.041333,188.023
627,1.042983,187.673
628,1.04465,187.673
629,1.046317,187.516
630,1.048,186.995
631,1.04965,186.794
632,1.051317,186.794
633,1.052983,186.51
634,1.05465,185.84
635,1.056317,185.274
636,1.057983,185.274
637,1.05965,184.655
638,1.061317,184.119
639,1.062967,184.119
640,1.064633,184.022
641,1.0663,184.149
642,1.067967,183.977
643,1.069633,183.977
644,1.0713,183.679
645,1.072967,183.225
646,1.07465,182.606
647,1.0763,182.606
648,1.077967,182.1
649,1.079633,182.189
650,1.0813,181.973
651,1.082967,181.973
652,1.084633,181.749
653,1.0863,181.682
654,1.087967,181.682
655,1.089633,181.079
656,1.0913,180.759
657,1.092967,180.468
658,1.094633,180.468
659,1.0963,180.237
660,1.097967,179.864
661,1.099633,179.529
662,1.10135,179.529
663,1.10295,179.164
664,1.104617,179.023
665,1.106283,178.866
666,1.10795,178.866
667,1.109617,178.859
668,1.111283,178.806
669,1.11295,178.806
670,1.114617,178.307
671,1.116283,178.061
672,1.11795,177.599
673,1.119617,177.599
674,1.121283,177.16
675,1.12295,177.287
676,1.124617,177.078
677,1.126283,177.078
678,1.12795,177.018
679,1.129617,177.026
680,1.131283,176.474
681,1.13295,176.474
682,1.134683,176.34
683,1.136283,175.886
684,1.13795,175.536
685,1.139617,175.536
686,1.141283,175.402
687,1.14295,175.148
688,1.144617,175.148
689,1.146283,174.768
690,1.14795,174.731
691,1.149617,174.388
692,1.151283,174.388
693,1.152983,174.098
694,1.154617,174.046
695,1.156283,173.666
696,1.15795,173.666
697,1.159617,173.74
698,1.161267,173.554
699,1.162933,173.353
700,1.1646,173.353
701,1.166267,173.293
702,1.167933,172.868
703,1.1696,172.868
704,1.171267,172.622
705,1.172933,172.548
706,1.1746,172.436
707,1.176267,172.436
708,1.177933,172.25
709,1.1796,171.982
710,1.181267,171.587
711,1.182933,171.587
712,1.1846,171.192
713,1.186267,170.983
714,1.187933,170.901
715,1.1896,170.901
716,1.191267,170.469
717,1.192933,170.164
718,1.1946,170.231
719,1.196267,170.231
720,1.197933,170.045
721,1.1996,170.149
722,1.201267,170.149
723,1.202933,169.97
724,1.2046,169.538
725,1.206267,169.322
726,1.207933,169.322
727,1.2096,169.262
728,1.211267,169.061
729,1.212933,168.815
730,1.214617,168.815
731,1.216267,168.629
732,1.217967,168.324
733,1.219717,168.45
734,1.22125,168.45
735,1.222917,168.353
736,1.224583,168.309
737,1.22625,168.309
738,1.227917,168.42
739,1.229583,168.167
740,1.23125,168.219
741,1.232917,168.219
742,1.234583,167.847
743,1.23635,167.288
744,1.237917,166.923
745,1.239583,166.923
746,1.24125,166.543
747,1.242917,166.543
748,1.244583,166.766
749,1.24625,166.766
750,1.247917,166.588
751,1.249583,166.528
752,1.25125,166.439
753,1.25295,166.439
754,1.254583,166.371
755,1.25625,166.252
756,1.257933,166.252
757,1.259583,166.118
758,1.26125,166.178
759,1.262917,165.753
760,1.264583,165.753
761,1.26625,165.939
762,1.267917,165.619
763,1.269583,165.083
764,1.27125,165.083
765,1.272917,165.053
766,1.274583,164.673
767,1.27625,164.926
768,1.277917,164.926
769,1.279583,164.911
770,1.28125,164.889
771,1.2829,164.889
772,1.284567,164.673
773,1.286233,164.084
774,1.2879,163.898
775,1.289567,163.898
776,1.291233,163.615
777,1.29295,163.659
778,1.294567,163.592
779,1.296233,163.592
780,1.2979,163.414
781,1.299567,163.227
782,1.301233,162.803
783,1.3029,162.803
784,1.304567,162.683
785,1.306233,162.728
786,1.3079,162.728
787,1.309567,162.877
788,1.311233,162.803
789,1.3129,162.743
790,1.314567,162.743
791,1.316233,162.445
792,1.3179,162.095
793,1.319567,162.192
794,1.321233,162.192
795,1.3229,162.117
796,1.324567,162.199
797,1.326233,161.968
798,1.3279,161.968
799,1.329567,161.767
800,1.331233,161.573
801,1.3329,161.387
802,1.334567,161.387
803,1.336233,161.216
804,1.33795,161.156
805,1.339567,161.156
806,1.341233,161.268
807,1.342883,161.134
808,1.34455,161.298
809,1.346217,161.298
810,1.347883,161.372
811,1.34955,161.089
812,1.351217,161.171
813,1.352883,161.171
814,1.354533,161.29
815,1.3562,161.141
816,1.357867,161.238
817,1.359567,161.238
818,1.3612,161.38
819,1.362867,161.029
820,1.364533,161.029
821,1.3662,160.798
822,1.367867,160.59
823,1.369533,160.061
824,1.3713,160.061
825,1.372867,160.038
826,1.374533,160.106
827,1.3762,160.135
828,1.377867,160.135
829,1.379533,160.068
830,1.3812,159.867
831,1.382867,159.629
832,1.384533,159.629
833,1.3862,159.331
834,1.387867,159.666
835,1.389533,159.74
836,1.3912,159.74
837,1.392867,159.517
838,1.394533,159.517
839,1.3962,159.517
840,1.397867,159.174
841,1.399533,158.817
842,1.401183,158.779
843,1.40285,158.779
844,1.404517,158.802
845,1.406183,158.712
846,1.40785,158.973
847,1.409517,158.973
848,1.411183,159.092
849,1.41285,159.055
850,1.414517,158.861
851,1.416183,158.861
852,1.41785,158.489
853,1.419517,158.519
854,1.421183,158.519
855,1.42285,158.638
856,1.424517,158.742
857,1.426183,159.01
858,1.42785,159.01
859,1.429517,158.75
860,1.431183,158.414
861,1.432867,158.221
862,1.434517,158.221
863,1.436183,157.915
864,1.43785,157.841
865,1.439517,157.811
866,1.441183,157.811
867,1.44285,157.773
868,1.444533,157.714
869,1.446183,157.401
870,1.44785,157.401
871,1.449517,157.081
872,1.451183,157.081
873,1.45285,157.081
874,1.454517,157.028
875,1.456183,157.125
876,1.45785,157.051
877,1.459517,157.051
878,1.461167,156.79
879,1.462833,156.641
880,1.4645,156.708
881,1.466167,156.708
882,1.467833,156.954
883,1.4695,157.058
884,1.471167,156.932
885,1.472883,156.932
886,1.4745,156.887
887,1.476167,156.857
888,1.477833,156.857
889,1.4795,156.73
890,1.481167,156.656
891,1.482833,156.522
892,1.4845,156.522
893,1.486167,156.239
894,1.487833,156.023
895,1.48955,155.97
896,1.491167,155.97
897,1.492833,156.045
898,1.4945,156.291
899,1.496167,156.336
900,1.497833,156.336
901,1.4995,156.648
902,1.501167,156.745
903,1.502833,156.745
904,1.5045,156.172
905,1.506283,156.127
906,1.507833,155.859
907,1.5095,155.859
908,1.511167,155.546
909,1.512833,155.903
910,1.5145,155.747
911,1.516167,155.747
912,1.517833,155.792
913,1.5195,156.008
914,1.52115,155.963
915,1.522817,155.963
916,1.524483,156.194
917,1.52615,156.313
918,1.527817,155.866
919,1.529483,155.866
920,1.53115,155.561
921,1.532817,155.114
922,1.534483,155.114
923,1.53615,154.413
924,1.537833,154.339
925,1.539483,154.279
926,1.54115,154.279
927,1.542817,154.406
928,1.544483,154.622
929,1.54615,154.532
930,1.547817,154.532
931,1.549483,154.443
932,1.55115,154.413
933,1.552817,154.428
934,1.554483,154.428
935,1.55615,154.413
936,1.557817,154.391
937,1.559483,154.391
938,1.56115,154.316
939,1.562817,154.324
940,1.564483,154.376
941,1.56615,154.376
942,1.567817,154.667
943,1.5695,154.711
944,1.57115,154.741
945,1.572817,154.741
946,1.574483,154.652
947,1.57615,154.488
948,1.577817,154.659
949,1.579483,154.659
950,1.58115,154.741
951,1.5828,154.771
952,1.584467,154.763
953,1.586133,154.763
954,1.5878,154.458
955,1.589467,154.19
