"ID","sea_time","fid_signal"
1,0,1186.281
2,0.001667,1185.462
3,0.0034,1185.462
4,0.005,1186.654
5,0.006667,1185.685
6,0.008333,1183.972
7,0.01,1183.972
8,0.011667,1182.631
9,0.013333,1181.066
10,0.015,1181.066
11,0.016667,1177.49
12,0.018333,1178.384
13,0.02,1179.278
14,0.021667,1179.278
15,0.023333,1180.917
16,0.025,1180.545
17,0.026667,1180.843
18,0.028333,1180.843
19,0.03,1182.184
20,0.031667,1181.141
21,0.033333,1182.035
22,0.035,1182.035
23,0.036667,1183.748
24,0.038333,1182.631
25,0.04,1181.886
26,0.041667,1181.886
27,0.043333,1181.588
28,0.045017,1181.215
29,0.04665,1181.215
30,0.048317,1183.525
31,0.049983,1184.866
32,0.05165,1188.293
33,0.053317,1188.293
34,0.054983,1187.846
35,0.05665,1185.909
36,0.058317,1188.368
37,0.059983,1188.368
38,0.06165,1188.144
39,0.063317,1187.101
40,0.064983,1186.579
41,0.06665,1186.579
42,0.068317,1183.599
43,0.069983,1181.662
44,0.07165000000000001,1181.662
45,0.07331699999999999,1181.588
46,0.07498299999999999,1180.917
47,0.07665,1182.929
48,0.078317,1182.929
49,0.079983,1185.685
50,0.08165,1186.281
51,0.083317,1189.56
52,0.084983,1189.56
53,0.08665,1187.176
54,0.08831700000000001,1187.324
55,0.09,1187.772
56,0.09165,1187.772
57,0.093317,1184.791
58,0.094983,1184.791
59,0.09665,1184.791
60,0.098317,1181.662
61,0.099983,1179.427
62,0.10165,1181.439
63,0.1033,1181.439
64,0.105,1183.003
65,0.106633,1183.599
66,0.1083,1185.909
67,0.109967,1185.909
68,0.111633,1183.972
69,0.1133,1183.823
70,0.114967,1182.556
71,0.116633,1182.556
72,0.1183,1181.513
73,0.119967,1180.172
74,0.121633,1178.831
75,0.1233,1178.831
76,0.124967,1180.396
77,0.126633,1179.576
78,0.1283,1179.576
79,0.129967,1181.737
80,0.131633,1185.76
81,0.1333,1187.548
82,0.134967,1187.548
83,0.136633,1189.932
84,0.1383,1190.007
85,0.139967,1185.536
86,0.141633,1185.536
87,0.1433,1182.854
88,0.14495,1181.811
89,0.146617,1183.152
90,0.1483,1183.152
91,0.14995,1187.846
92,0.151617,1189.634
93,0.153283,1189.634
94,0.15495,1187.697
95,0.156617,1188.591
96,0.158283,1183.152
97,0.15995,1183.152
98,0.161617,1182.184
99,0.163283,1184.94
100,0.164933,1184.344
101,0.1666,1184.344
102,0.168267,1186.877
103,0.169933,1188.74
104,0.1716,1187.25
105,0.173267,1187.25
106,0.174933,1185.536
107,0.1766,1181.513
108,0.178267,1178.309
109,0.179933,1178.309
110,0.1816,1175.18
111,0.183267,1175.255
112,0.184933,1175.255
113,0.186633,1177.341
114,0.188267,1177.564
115,0.189933,1179.278
116,0.1916,1179.278
117,0.193267,1177.192
118,0.194933,1177.862
119,0.1966,1178.458
120,0.198267,1178.458
121,0.199933,1179.65
122,0.2016,1180.321
123,0.203267,1180.545
124,0.204933,1180.545
125,0.2066,1180.321
126,0.208267,1180.768
127,0.209933,1180.768
128,0.2116,1181.066
129,0.213267,1183.152
130,0.214933,1183.823
131,0.2166,1183.823
132,0.218267,1183.599
133,0.219933,1182.109
134,0.2216,1180.246
135,0.22325,1180.246
136,0.224917,1179.725
137,0.226583,1179.203
138,0.22825,1179.129
139,0.229917,1179.129
140,0.231583,1178.086
141,0.23325,1178.533
142,0.234917,1178.16
143,0.2366,1178.16
144,0.23825,1179.427
145,0.240033,1179.203
146,0.241583,1179.203
147,0.24325,1177.788
148,0.244917,1181.513
149,0.246583,1182.556
150,0.24825,1182.556
151,0.249917,1183.376
152,0.251583,1181.513
153,0.25325,1179.129
154,0.254917,1179.129
155,0.256583,1177.713
156,0.25825,1177.713
157,0.259917,1181.29
158,0.261583,1181.29
159,0.26325,1180.47
160,0.264933,1182.705
161,0.266583,1182.705
162,0.26825,1182.556
163,0.269917,1182.333
164,0.271583,1183.376
165,0.27325,1183.376
166,0.274917,1180.47
167,0.276583,1180.321
168,0.27825,1180.619
169,0.279917,1180.619
170,0.281583,1183.45
171,0.283233,1184.195
172,0.2849,1184.568
173,0.286567,1184.568
174,0.288233,1182.109
175,0.2899,1175.106
176,0.291567,1175.106
177,0.293233,1174.882
178,0.2949,1174.137
179,0.296567,1173.392
180,0.298233,1173.392
181,0.2999,1176.372
182,0.301567,1177.49
183,0.303233,1180.545
184,0.3049,1180.545
185,0.306567,1183.599
186,0.308233,1185.834
187,0.3099,1188.293
188,0.311567,1188.293
189,0.313233,1185.834
190,0.3149,1185.313
191,0.316567,1183.003
192,0.318233,1183.003
193,0.3199,1179.278
194,0.321567,1180.47
195,0.323233,1180.47
196,0.324967,1182.78
197,0.326567,1183.376
198,0.328233,1186.803
199,0.3299,1186.803
200,0.331567,1187.623
201,0.333233,1185.015
202,0.3349,1181.96
203,0.336567,1181.96
204,0.338233,1179.874
205,0.3399,1178.011
206,0.341567,1177.117
207,0.343233,1177.117
208,0.344883,1180.172
209,0.34655,1176.894
210,0.348217,1176.894
211,0.349883,1178.086
212,0.35155,1180.097
213,0.353217,1182.482
214,0.354883,1182.482
215,0.35655,1186.579
216,0.358217,1185.685
217,0.359883,1185.313
218,0.36155,1185.313
219,0.363217,1182.78
220,0.364883,1181.886
221,0.36655,1182.333
222,0.368217,1182.333
223,0.369883,1180.172
224,0.37155,1180.619
225,0.373217,1181.141
226,0.374883,1181.141
227,0.37655,1181.662
228,0.378217,1181.439
229,0.379883,1181.439
230,0.38155,1183.301
231,0.383217,1183.972
232,0.384883,1182.482
233,0.38655,1182.482
234,0.388217,1185.089
235,0.389883,1183.897
236,0.39155,1183.152
237,0.393217,1183.152
238,0.394883,1181.141
239,0.39655,1180.47
240,0.398217,1177.49
241,0.399883,1177.49
242,0.40155,1176.074
243,0.403217,1178.384
244,0.404883,1178.384
245,0.406533,1180.321
246,0.408233,1185.164
247,0.409867,1186.654
248,0.411533,1186.654
249,0.4132,1183.078
250,0.414867,1180.023
251,0.416533,1176.968
252,0.4182,1176.968
253,0.419867,1176.372
254,0.421533,1180.693
255,0.4232,1184.046
256,0.424867,1184.046
257,0.426533,1187.921
258,0.4282,1190.752
259,0.429867,1191.422
260,0.431533,1191.422
261,0.4332,1190.007
262,0.434867,1184.791
263,0.436517,1184.791
264,0.438183,1180.172
265,0.439867,1181.29
266,0.441517,1182.556
267,0.443217,1182.556
268,0.44485,1186.803
269,0.446517,1189.113
270,0.448183,1185.164
271,0.44985,1185.164
272,0.451517,1183.376
273,0.453183,1181.364
274,0.45485,1180.843
275,0.456517,1180.843
276,0.458183,1185.015
277,0.459967,1186.729
278,0.461517,1186.729
279,0.463183,1186.281
280,0.464833,1187.324
281,0.4665,1186.207
282,0.468167,1186.207
283,0.469833,1183.823
284,0.4715,1184.121
285,0.473167,1182.556
286,0.474833,1182.556
287,0.4765,1181.662
288,0.4782,1184.344
289,0.479833,1185.089
290,0.4815,1185.089
291,0.483167,1190.454
292,0.484833,1192.763
293,0.4865,1192.763
294,0.488167,1193.21
295,0.489833,1196.936
296,0.4915,1196.936
297,0.493167,1196.936
298,0.494833,1201.257
299,0.4965,1207.143
300,0.498167,1209.825
301,0.499833,1209.825
302,0.5014999999999999,1213.178
303,0.503167,1212.582
304,0.504833,1213.029
305,0.5065,1213.029
306,0.508167,1215.339
307,0.509833,1220.778
308,0.5115,1230.091
309,0.513167,1230.091
310,0.514833,1239.851
311,0.5165,1252.219
312,0.518167,1252.219
313,0.519833,1268.089
314,0.5215,1289.025
315,0.523167,1318.604
316,0.524817,1318.604
317,0.526483,1364.052
318,0.52815,1422.316
319,0.529817,1502.559
320,0.531483,1502.559
321,0.53315,1607.612
322,0.534817,1738.444
323,0.536483,1902.357
324,0.53815,1902.357
325,0.539817,2101.585
326,0.541483,2340.823
327,0.54315,2340.823
328,0.544817,2623.946
329,0.5464830000000001,2953.932
330,0.548167,3332.421
331,0.549833,3332.421
332,0.5514829999999999,3757.626
333,0.55315,4234.761
334,0.554817,4759.878
335,0.5564829999999999,4759.878
336,0.55815,5328.432
337,0.559817,5945.712
338,0.5615,6600.395
339,0.56315,6600.395
340,0.564817,7291.883
341,0.566483,8018.539
342,0.56815,8770.749
343,0.569817,8770.749
344,0.571483,9546.205
345,0.57315,10343.492
346,0.574817,10343.492
347,0.576483,11158.511
348,0.57825,11982.694
349,0.579817,12819.097
350,0.581483,12819.097
351,0.583133,13659.075
352,0.5848,14501.14
353,0.586467,15343.8
354,0.588133,15343.8
355,0.5898,16179.532
356,0.591467,17003.789
357,0.593133,17811.805
358,0.5948830000000001,17811.805
359,0.596467,18599.854
360,0.598133,19363.24
361,0.5998,19363.24
362,0.601467,20104.424
363,0.603133,20813.57
364,0.6048,21489.635
365,0.606467,21489.635
366,0.608133,22125.84
367,0.6098,22718.162
368,0.611533,23261.756
369,0.613133,23261.756
370,0.6148,23752.824
371,0.616467,24182.498
372,0.618133,24544.746
373,0.6198,24544.746
374,0.621467,24838.672
375,0.623133,25062.039
376,0.6248,25211.424
377,0.626467,25211.424
378,0.6281330000000001,25283.471
379,0.6298,25281.459
380,0.631467,25281.459
381,0.6331329999999999,25197.566
382,0.6348,25042.221
383,0.636467,24813.711
384,0.638133,24813.711
385,0.6398,24513.527
386,0.641467,24149.641
387,0.643133,23732.482
388,0.644783,23732.482
389,0.64645,23270.771
390,0.6481170000000001,22771.135
391,0.649783,22243.783
392,0.65145,22243.783
393,0.6531169999999999,21691.621
394,0.654783,21125.748
395,0.65645,21125.748
396,0.658117,20552.277
397,0.659783,19978.881
398,0.66145,19410.402
399,0.663117,19410.402
400,0.664783,18849.82
401,0.66645,18303.543
402,0.668133,17777.457
403,0.669783,17777.457
404,0.67145,17265.604
405,0.673117,16773.492
406,0.674783,16301.796
407,0.67645,16301.796
408,0.678117,15848.801
409,0.679783,15415.326
410,0.68145,14999.359
411,0.683117,14999.359
412,0.684783,14600.083
413,0.68645,14219.433
414,0.688117,14219.433
415,0.689783,13857.186
416,0.69145,13512.82
417,0.693117,13184.994
418,0.694783,13184.994
419,0.6965170000000001,12868.568
420,0.698117,12564.733
421,0.699783,12272.224
422,0.70145,12272.224
423,0.7030999999999999,11992.976
424,0.704767,11725.426
425,0.706433,11470.988
426,0.7081,11470.988
427,0.709767,11231.676
428,0.711433,11000.261
429,0.713133,11000.261
430,0.714767,10775.551
431,0.716433,10558.739
432,0.7181,10346.621
433,0.719767,10346.621
434,0.721433,10144.189
435,0.7231,9950.398999999999
436,0.7247670000000001,9765.401
437,0.726417,9765.401
438,0.728083,9588.674000000001
439,0.729867,9418.353999999999
440,0.731417,9254.366
441,0.733083,9254.366
442,0.73475,9092.912
443,0.736417,8934.886
444,0.738083,8934.886
445,0.73975,8784.978999999999
446,0.741417,8638.129000000001
447,0.743083,8501.41
448,0.74475,8501.41
449,0.746417,8366.928
450,0.7480830000000001,8230.582
451,0.74975,8102.432
452,0.751417,8102.432
453,0.7530829999999999,7973.835
454,0.75475,7853.21
455,0.756417,7740.855
456,0.758083,7740.855
457,0.75975,7629.469
458,0.7614,7522.628
459,0.7630670000000001,7418.99
460,0.764733,7418.99
461,0.7664,7313.639
462,0.7681,7214.248
463,0.769733,7214.248
464,0.7714,7114.708
465,0.7730669999999999,7018.894
466,0.774733,6926.283
467,0.7764,6926.283
468,0.778067,6837.398
469,0.779733,6753.579
470,0.7814,6667.152
471,0.783067,6667.152
472,0.784733,6585.047
473,0.7864,6501.302
474,0.788067,6421.954
475,0.789733,6421.954
476,0.7914,6346.479
477,0.793067,6273.314
478,0.794733,6273.314
479,0.7964,6202.087
480,0.798067,6131.455
481,0.799733,6059.632
482,0.8014,6059.632
483,0.803067,5991.012
484,0.804733,5922.839
485,0.8064,5856.305
486,0.808067,5856.305
487,0.809733,5796.179
488,0.8114,5734.787
489,0.813067,5673.542
490,0.81475,5673.542
491,0.8164,5613.342
492,0.818067,5553.737
493,0.819733,5495.846
494,0.8214,5495.846
495,0.8230499999999999,5441.084
496,0.824717,5387.44
497,0.826383,5387.44
498,0.82805,5334.392
499,0.829717,5281.493
500,0.83145,5230.754
501,0.83305,5230.754
502,0.834717,5182.103
503,0.836383,5135.387
504,0.83805,5090.833
505,0.839717,5090.833
506,0.841383,5043.67
507,0.843067,4998.818
508,0.8447170000000001,4952.55
509,0.846383,4952.55
510,0.84815,4906.803
511,0.8497169999999999,4862.473
512,0.851383,4862.473
513,0.85305,4816.204
514,0.8547169999999999,4775.077
515,0.856383,4734.397
516,0.85805,4734.397
517,0.859717,4698.932
518,0.861383,4663.84
519,0.86305,4623.309
520,0.864717,4623.309
521,0.866383,4583.001
522,0.86805,4541.725
523,0.869717,4502.758
524,0.8714,4502.758
525,0.87305,4466.698
526,0.874717,4432.276
527,0.876383,4432.276
528,0.87805,4397.705
529,0.879717,4360.899
530,0.881383,4329.383
531,0.88305,4329.383
532,0.8847,4300.177
533,0.886367,4269.63
534,0.888033,4242.51
535,0.8897,4242.51
536,0.891367,4210.994
537,0.893033,4181.191
538,0.8947000000000001,4150.569
539,0.896367,4150.569
540,0.898033,4120.171
541,0.8997000000000001,4090.741
542,0.901367,4059.076
543,0.903033,4059.076
544,0.9046999999999999,4033.148
545,0.906367,4003.57
546,0.908033,4003.57
547,0.909717,3978.685
548,0.911367,3951.639
549,0.913033,3923.997
550,0.9147,3923.997
551,0.916367,3902.167
552,0.918033,3875.345
553,0.9197,3850.013
554,0.921367,3850.013
555,0.923033,3823.042
556,0.9247,3796.071
557,0.9263670000000001,3771.335
558,0.928033,3771.335
559,0.9297,3749.132
560,0.9313669999999999,3729.239
561,0.9331,3704.801
562,0.9347,3704.801
563,0.9363669999999999,3682.971
564,0.938033,3660.47
565,0.9397,3660.47
566,0.941367,3638.417
567,0.943033,3618.822
568,0.9446830000000001,3597.513
569,0.94635,3597.513
570,0.948017,3575.608
571,0.949733,3556.013
572,0.95135,3536.865
573,0.953017,3536.865
574,0.9546829999999999,3519.356
575,0.95635,3500.134
576,0.958017,3477.931
577,0.959683,3477.931
578,0.96135,3455.505
579,0.963017,3434.345
580,0.964683,3434.345
581,0.96645,3416.24
582,0.968017,3397.539
583,0.969683,3380.328
584,0.97135,3380.328
585,0.973017,3362.074
586,0.974683,3345.534
587,0.9763500000000001,3328.919
588,0.978017,3328.919
589,0.979683,3312.677
590,0.9813499999999999,3295.466
591,0.983017,3277.361
592,0.984683,3277.361
593,0.986367,3259.629
594,0.988017,3242.716
595,0.989683,3242.716
596,0.99135,3227.368
597,0.993017,3210.381
598,0.994683,3194.362
599,0.99635,3194.362
600,0.998017,3179.61
601,0.999683,3165.901
602,1.00135,3150.552
603,1.003017,3150.552
604,1.004667,3138.036
605,1.006333,3125.667
606,1.008,3112.48
607,1.009667,3112.48
608,1.011333,3097.951
609,1.013,3086.626
610,1.014667,3070.459
611,1.016333,3070.459
612,1.018,3051.981
613,1.01965,3042.296
614,1.021317,3042.296
615,1.022983,3027.022
616,1.02465,3015.92
617,1.026317,3003.925
618,1.027983,3003.925
619,1.02965,2989.918
620,1.031317,2976.358
621,1.032983,2960.265
622,1.034667,2960.265
623,1.036317,2945.885
624,1.037983,2930.015
625,1.03965,2918.02
626,1.041317,2918.02
627,1.042983,2906.844
628,1.04465,2894.699
629,1.046317,2894.699
630,1.047983,2883.375
631,1.04965,2869.368
632,1.051317,2856.478
633,1.052983,2856.478
634,1.05465,2847.239
635,1.056317,2838.075
636,1.057983,2829.88
637,1.05965,2829.88
638,1.061317,2822.354
639,1.062967,2809.688
640,1.064633,2800.077
641,1.0663,2800.077
642,1.067967,2787.784
643,1.069633,2775.639
644,1.0713,2775.639
645,1.072967,2767.295
646,1.074633,2755.076
647,1.0763,2743.9
648,1.077967,2743.9
649,1.079633,2731.979
650,1.0813,2720.133
651,1.082967,2706.945
652,1.08475,2706.945
653,1.0863,2700.612
654,1.087967,2695.173
655,1.089633,2689.66
656,1.0913,2689.66
657,1.092967,2685.413
658,1.094633,2672.821
659,1.0963,2658.814
660,1.097967,2658.814
661,1.099633,2646.67
662,1.1013,2636.239
663,1.102967,2636.239
664,1.104633,2627.224
665,1.1063,2619.922
666,1.107967,2612.174
667,1.109633,2612.174
668,1.1113,2601.966
669,1.112967,2594.367
670,1.114633,2588.63
671,1.1163,2588.63
672,1.117967,2578.944
673,1.119633,2570.674
674,1.1213,2561.212
675,1.122967,2561.212
676,1.124633,2549.887
677,1.126333,2544.373
678,1.12795,2544.373
679,1.129617,2536.774
680,1.131283,2527.759
681,1.13295,2520.382
682,1.134617,2520.382
683,1.136283,2509.802
684,1.13795,2502.278
685,1.139617,2495.572
686,1.141283,2495.572
687,1.14295,2488.494
688,1.144617,2482.012
689,1.146283,2475.679
690,1.14795,2475.679
691,1.149617,2471.358
692,1.151283,2463.385
693,1.15295,2454.519
694,1.154617,2454.519
695,1.156283,2447.963
696,1.15795,2440.885
697,1.159617,2440.885
698,1.161283,2432.689
699,1.16295,2424.27
700,1.164617,2413.318
701,1.166283,2413.318
702,1.16795,2405.197
703,1.169617,2398.267
704,1.171283,2393.052
705,1.17295,2393.052
706,1.174617,2386.421
707,1.176283,2376.139
708,1.17795,2369.508
709,1.179617,2369.508
710,1.181283,2364.516
711,1.18295,2358.481
712,1.1846,2358.481
713,1.1863,2354.532
714,1.187933,2348.572
715,1.1896,2339.855
716,1.191267,2339.855
717,1.192933,2336.502
718,1.194617,2329.946
719,1.196333,2324.06
720,1.197933,2324.06
721,1.1996,2319.664
722,1.201267,2312.958
723,1.203067,2305.806
724,1.2046,2305.806
725,1.206267,2299.845
726,1.207933,2294.555
727,1.2096,2290.159
728,1.211267,2290.159
729,1.212933,2287.85
730,1.2146,2282.932
731,1.216267,2282.932
732,1.217933,2279.133
733,1.2196,2271.458
734,1.221267,2264.231
735,1.222933,2264.231
736,1.2246,2259.836
737,1.226267,2251.938
738,1.227933,2247.766
739,1.2296,2247.766
740,1.231267,2242.848
741,1.232933,2234.727
742,1.2346,2229.288
743,1.236267,2229.288
744,1.237933,2222.806
745,1.2396,2215.579
746,1.241267,2215.579
747,1.242933,2216.399
748,1.244583,2211.779
749,1.246267,2206.713
750,1.247917,2206.713
751,1.249583,2202.168
752,1.25125,2196.133
753,1.252917,2195.313
754,1.254583,2195.313
755,1.25625,2192.408
756,1.257917,2188.459
757,1.259583,2179.742
758,1.26125,2179.742
759,1.26295,2169.609
760,1.264583,2162.605
761,1.26625,2156.124
762,1.267917,2156.124
763,1.269583,2151.951
764,1.27125,2148.896
765,1.272933,2148.896
766,1.274583,2143.979
767,1.27625,2137.646
768,1.277917,2130.27
769,1.279583,2130.27
770,1.28125,2126.321
771,1.282917,2123.564
772,1.284583,2123.937
773,1.28625,2123.937
774,1.287967,2121.404
775,1.289583,2115.518
776,1.29125,2112.016
777,1.292917,2112.016
778,1.294583,2107.993
779,1.29625,2106.354
780,1.297917,2106.354
781,1.299583,2105.162
782,1.301233,2098.605
783,1.3029,2093.464
784,1.3047,2093.464
785,1.306233,2089.664
786,1.3079,2084.449
787,1.30955,2079.383
788,1.311217,2079.383
789,1.312883,2076.626
790,1.31455,2069.995
791,1.316217,2065.077
792,1.317883,2065.077
793,1.31955,2065.45
794,1.321333,2057.85
795,1.322883,2057.85
796,1.32455,2054.572
797,1.326217,2052.262
798,1.327883,2048.388
799,1.32955,2048.388
800,1.331217,2048.388
801,1.332883,2046.973
802,1.33455,2041.012
803,1.336217,2041.012
804,1.337883,2037.659
805,1.33955,2033.338
806,1.341217,2028.57
807,1.342883,2028.57
808,1.34455,2025.142
809,1.346217,2019.331
810,1.347883,2014.563
811,1.34955,2014.563
812,1.351217,2008.229
813,1.352883,2005.92
814,1.35455,2005.92
815,1.356217,2000.481
816,1.357883,1998.991
817,1.35955,1998.171
818,1.361217,1998.171
819,1.362867,1995.191
820,1.364533,1994.744
821,1.3662,1989.827
822,1.367867,1989.827
823,1.369533,1984.462
824,1.3712,1975.894
825,1.372867,1972.243
826,1.374533,1972.243
827,1.3762,1968.443
828,1.377867,1966.283
829,1.379533,1966.283
830,1.3812,1963.675
831,1.382867,1958.832
832,1.384533,1956.895
833,1.3862,1956.895
834,1.387867,1952.276
835,1.389533,1952.35
836,1.3912,1951.605
837,1.392867,1951.605
838,1.394533,1949.221
839,1.3962,1948.401
840,1.397867,1945.272
841,1.399533,1945.272
842,1.4012,1938.641
843,1.402867,1935.959
844,1.404583,1934.171
845,1.4062,1934.171
846,1.407867,1931.116
847,1.409533,1929.775
848,1.4112,1929.775
849,1.412867,1926.944
850,1.414533,1921.356
851,1.4162,1919.94
852,1.417867,1919.94
853,1.419533,1917.258
854,1.4212,1912.192
855,1.42295,1907.2
856,1.424517,1907.2
857,1.426183,1900.941
858,1.42785,1895.949
859,1.429517,1893.565
860,1.431183,1893.565
861,1.43285,1894.832
862,1.434517,1893.342
863,1.436183,1893.342
864,1.43785,1891.851
865,1.4396,1887.679
866,1.441183,1883.581
867,1.44285,1883.581
868,1.444517,1881.123
869,1.446183,1878.887
870,1.44785,1878.44
871,1.449517,1878.44
872,1.451183,1876.205
873,1.452867,1873.821
874,1.454517,1869.649
875,1.456283,1869.649
876,1.45785,1865.029
877,1.459517,1861.006
878,1.461183,1857.802
879,1.46285,1857.802
880,1.464517,1855.269
881,1.466183,1852.512
882,1.46785,1852.512
883,1.469517,1852.959
884,1.471183,1854.375
885,1.47285,1852.885
886,1.474533,1852.885
887,1.476183,1851.395
888,1.47785,1847.446
889,1.479517,1840.74
890,1.481183,1840.74
891,1.482867,1840.368
892,1.4845,1836.27
893,1.486167,1833.886
894,1.487833,1833.886
895,1.4895,1830.682
896,1.491167,1826.882
897,1.492833,1826.882
898,1.4945,1828.149
899,1.496167,1825.02
900,1.497833,1823.455
901,1.4995,1823.455
902,1.501167,1820.773
903,1.502833,1820.028
904,1.5045,1823.008
905,1.506167,1823.008
906,1.507833,1824.349
907,1.5095,1821.071
908,1.511167,1812.801
909,1.512833,1812.801
910,1.5145,1806.691
911,1.516167,1800.433
912,1.517833,1800.433
913,1.5195,1801.625
914,1.521167,1799.166
915,1.522833,1794.472
916,1.524533,1794.472
917,1.526167,1794.994
