"ID","sea_time","fid_signal"
1,0,141.323
2,0.0017,141.323
3,0.003333,141.457
4,0.005,141.591
5,0.006667,140.958
6,0.008333,140.958
7,0.01,140.466
8,0.011667,140.227
9,0.013333,139.832
10,0.015017,139.832
11,0.0167,139.847
12,0.018467,140.309
13,0.02,140.309
14,0.021667,140.488
15,0.023333,140.764
16,0.025,141.002
17,0.026667,141.002
18,0.028333,141.01
19,0.030017,140.741
20,0.031667,140.704
21,0.033333,140.704
22,0.035,140.622
23,0.036667,140.719
24,0.038333,140.883
25,0.04,140.883
26,0.041667,141.151
27,0.043333,141.412
28,0.045,141.144
29,0.046667,141.144
30,0.048333,141.211
31,0.05,140.972
32,0.051667,140.972
33,0.053333,141.136
34,0.055,141.561
35,0.056667,141.39
36,0.058333,141.39
37,0.059983,141.479
38,0.06165,141.136
39,0.063317,140.786
40,0.064983,140.786
41,0.06665,140.488
42,0.0683,140.451
43,0.069967,140.54
44,0.071633,140.54
45,0.0733,140.898
46,0.07496700000000001,141.405
47,0.07663300000000001,141.405
48,0.07829999999999999,141.606
49,0.079967,141.509
50,0.08165,141.218
51,0.0833,141.218
52,0.084967,140.943
53,0.086633,140.697
54,0.0883,140.622
55,0.08996700000000001,140.622
56,0.09163300000000001,140.727
57,0.09329999999999999,141.039
58,0.094967,140.98
59,0.096633,140.98
60,0.0983,141.226
61,0.099967,141.136
62,0.101633,141.136
63,0.103333,141.159
64,0.104967,141.531
65,0.106633,141.352
66,0.1083,141.352
67,0.109967,141.025
68,0.111633,140.809
69,0.1133,140.592
70,0.114967,140.592
71,0.116633,140.965
72,0.1183,141.345
73,0.11995,141.226
74,0.121617,141.226
75,0.123283,141.211
76,0.12495,140.898
77,0.126617,140.704
78,0.128283,140.704
79,0.12995,140.883
80,0.131617,140.89
81,0.133283,140.89
82,0.13495,141.151
83,0.13675,141.069
84,0.138283,140.98
85,0.13995,140.98
86,0.141617,141.218
87,0.143283,140.92
88,0.14495,141.412
89,0.146617,141.412
90,0.148283,141.479
91,0.14995,141.434
92,0.151617,141.874
93,0.153283,141.874
94,0.15495,141.256
95,0.156617,141.151
96,0.158283,141.151
97,0.15995,141.121
98,0.161617,140.905
99,0.163283,141.181
100,0.16495,141.181
101,0.166617,141.479
102,0.168283,141.315
103,0.16995,140.913
104,0.171617,140.913
105,0.173283,141.129
106,0.17495,140.995
107,0.176617,140.883
108,0.178267,140.883
109,0.179933,140.861
110,0.1816,140.719
111,0.183267,140.682
112,0.184933,140.682
113,0.1866,140.928
114,0.188267,141.36
115,0.18995,141.36
116,0.1916,141.345
117,0.193267,141.323
118,0.19495,141.151
119,0.1966,141.151
120,0.198267,141.039
121,0.199933,140.943
122,0.2016,141.062
123,0.203267,141.062
124,0.204933,141.121
125,0.2066,141.039
126,0.208267,140.883
127,0.209933,140.883
128,0.2116,140.689
129,0.213267,140.764
130,0.214933,140.764
131,0.2166,141.032
132,0.218267,141.352
133,0.219933,141.345
134,0.22165,141.345
135,0.223283,141.084
136,0.224933,141.121
137,0.2266,140.943
138,0.228267,140.943
139,0.229933,140.958
140,0.2316,141.047
141,0.233267,140.756
142,0.234933,140.756
143,0.2366,141.017
144,0.23825,141.01
145,0.239917,141.01
146,0.241583,140.719
147,0.24325,140.667
148,0.244917,140.674
149,0.246583,140.674
150,0.24825,140.92
151,0.249917,141.501
152,0.251583,141.799
153,0.25325,141.799
154,0.254917,141.919
155,0.256583,141.68
156,0.25825,141.285
157,0.259917,141.285
158,0.261583,140.898
159,0.26325,140.503
160,0.264917,140.697
161,0.266583,140.697
162,0.26825,140.958
163,0.269917,141.077
164,0.271583,141.077
165,0.27325,141.509
166,0.274917,141.554
167,0.276583,141.628
168,0.27825,141.628
169,0.279917,141.673
170,0.281583,141.263
171,0.28325,141.315
172,0.284917,141.315
173,0.286583,141.427
174,0.28825,141.658
175,0.289917,141.688
176,0.291583,141.688
177,0.29325,141.457
178,0.294917,141.166
179,0.296583,141.166
180,0.29825,141.189
181,0.2999,141.397
182,0.301567,141.434
183,0.303233,141.434
184,0.3049,141.375
185,0.306567,141.241
186,0.308233,141.032
187,0.3099,141.032
188,0.311567,141.121
189,0.313233,141.278
190,0.3149,141.323
191,0.316567,141.323
192,0.318233,141.367
193,0.3199,141.375
194,0.321567,141.278
195,0.323233,141.278
196,0.3249,141.248
197,0.326567,141.33
198,0.328233,141.33
199,0.3299,141.241
200,0.331567,141.114
201,0.333233,141.084
202,0.3349,141.084
203,0.336567,141.248
204,0.338233,141.3
205,0.339967,141.412
206,0.341567,141.412
207,0.343233,141.636
208,0.3449,141.524
209,0.346567,141.524
210,0.348233,141.524
211,0.3499,141.501
212,0.351567,141.464
213,0.353233,141.464
214,0.3549,141.591
215,0.35655,141.755
216,0.358233,141.934
217,0.359867,141.934
218,0.361533,141.941
219,0.3632,142.083
220,0.364883,142.194
221,0.36655,142.194
222,0.36825,142.515
223,0.369867,142.805
224,0.371533,142.999
225,0.373317,142.999
226,0.374867,143.543
227,0.376533,143.901
228,0.3782,144.362
229,0.379867,144.362
230,0.381533,145.428
231,0.3832,146.285
232,0.384867,146.285
233,0.386533,147.328
234,0.3882,148.714
235,0.389867,149.868
236,0.391533,149.868
237,0.3932,151.113
238,0.394867,152.64
239,0.396533,153.825
240,0.3982,153.825
241,0.399867,154.801
242,0.401533,156.306
243,0.4032,157.572
244,0.404867,157.572
245,0.406533,159.085
246,0.4082,160.702
247,0.409867,160.702
248,0.411533,161.737
249,0.4132,162.929
250,0.414867,164.039
251,0.416533,164.039
252,0.4182,165.15
253,0.41985,166.126
254,0.421517,166.968
255,0.423183,166.968
256,0.42485,167.571
257,0.426517,168.152
258,0.428183,168.756
259,0.42985,168.756
260,0.431517,169.277
261,0.433183,169.598
262,0.43485,169.598
263,0.436517,169.59
264,0.438183,169.523
265,0.43985,169.232
266,0.441517,169.232
267,0.443183,168.942
268,0.44485,168.614
269,0.446517,168.078
270,0.4482,168.078
271,0.44985,167.549
272,0.451517,166.751
273,0.453183,165.895
274,0.45485,165.895
275,0.456517,164.859
276,0.458233,163.332
277,0.45985,161.998
278,0.461517,161.998
279,0.463183,160.456
280,0.46485,159.286
281,0.466517,159.286
282,0.468183,158.504
283,0.46985,157.677
284,0.471517,156.745
285,0.473183,156.745
286,0.474967,155.777
287,0.476517,154.741
288,0.478183,153.787
289,0.479833,153.787
290,0.4815,152.916
291,0.483167,151.932
292,0.484833,151.217
293,0.4865,151.217
294,0.488167,150.509
295,0.489833,149.906
296,0.491567,149.183
297,0.493167,149.183
298,0.494833,148.378
299,0.4965,147.745
300,0.498167,147.745
301,0.499833,147.402
302,0.5014999999999999,147.35
303,0.503167,146.68
304,0.504833,146.68
305,0.5065,146.069
306,0.508267,145.398
307,0.509833,144.526
308,0.5115,144.526
309,0.513167,144.459
310,0.514833,144.288
311,0.5165,144.042
312,0.518167,144.042
313,0.519833,144.251
314,0.5215,144.109
315,0.523167,144.109
316,0.524833,143.826
317,0.5265,143.61
318,0.5281670000000001,143.074
319,0.529833,143.074
320,0.5315,142.887
321,0.5331669999999999,142.88
322,0.534833,142.88
323,0.5365,142.88
324,0.538167,142.992
325,0.539817,142.857
326,0.541483,142.835
327,0.54315,142.835
328,0.544817,142.567
329,0.5464830000000001,142.694
330,0.54815,142.694
331,0.549817,142.716
332,0.5514829999999999,142.545
333,0.55315,142.813
334,0.554817,142.813
335,0.5564829999999999,142.425
336,0.55815,142.246
337,0.559817,142.425
338,0.561483,142.425
339,0.56315,142.038
340,0.564817,141.919
341,0.566483,141.859
342,0.56815,141.859
343,0.569817,141.68
344,0.571483,141.777
345,0.57315,141.956
346,0.57485,141.956
347,0.5765,142.15
348,0.5781500000000001,142.112
349,0.579817,142.112
350,0.581483,142.157
351,0.5831499999999999,141.911
352,0.584817,141.762
353,0.586483,141.762
354,0.58815,141.867
355,0.589817,141.829
356,0.591483,142.179
357,0.593217,142.179
358,0.594817,142.254
359,0.596483,142.187
360,0.59815,142.179
361,0.5998,142.179
362,0.601467,141.896
363,0.603133,141.859
364,0.6048,141.859
365,0.606467,141.978
366,0.608133,142.246
367,0.6098,142.537
368,0.611467,142.537
369,0.613133,142.574
370,0.6148,142.433
371,0.616467,142.522
372,0.618133,142.522
373,0.6198,142.403
374,0.621467,142.366
375,0.623133,142.321
376,0.6248,142.321
377,0.626583,142.053
378,0.6281330000000001,142.023
379,0.629817,142.112
380,0.631467,142.112
381,0.6331329999999999,142.224
382,0.6348,142.388
383,0.636467,142.388
384,0.638133,142.403
385,0.6398,142.194
386,0.641467,142.045
387,0.643133,142.045
388,0.6448,141.695
389,0.646483,141.628
390,0.648133,141.77
391,0.6498,141.77
392,0.65145,141.971
393,0.6531169999999999,142.023
394,0.654783,142.165
395,0.65645,142.165
396,0.658117,142.232
397,0.659767,141.911
398,0.661433,141.911
399,0.6631,141.911
400,0.664767,141.583
401,0.6664330000000001,141.352
402,0.6681,141.352
403,0.669767,141.561
404,0.6714329999999999,141.941
405,0.6731,142.299
406,0.674767,142.299
407,0.676433,142.574
408,0.6781,142.53
409,0.679767,142.135
410,0.681433,142.135
411,0.6831,142.068
412,0.684767,142.202
413,0.686433,142.202
414,0.6881,142.016
415,0.689767,142.06
416,0.691433,141.777
417,0.6931,141.777
418,0.694767,141.397
419,0.696433,141.457
420,0.6981000000000001,141.472
421,0.699767,141.472
422,0.701433,141.755
423,0.7030999999999999,142.075
424,0.704783,142.246
425,0.706433,142.246
426,0.7081,142.403
427,0.709767,142.083
428,0.7115,141.673
429,0.7131,141.673
430,0.714767,141.807
431,0.716433,141.658
432,0.718117,141.658
433,0.71975,141.74
434,0.721417,141.829
435,0.723083,141.516
436,0.72475,141.516
437,0.726417,141.643
438,0.728133,141.934
439,0.72975,142.09
440,0.731417,142.09
441,0.733083,142.291
442,0.73475,142.232
443,0.736417,142.06
444,0.738083,142.06
445,0.73975,142.127
446,0.741417,142.008
447,0.743083,142.008
448,0.74485,141.934
449,0.746417,142.187
450,0.7480830000000001,142.12
451,0.74975,142.12
452,0.751417,142.425
453,0.7530829999999999,142.552
454,0.75475,142.351
455,0.756417,142.351
456,0.758083,142.269
457,0.75975,142.209
458,0.761417,142.157
459,0.763083,142.157
460,0.76475,142.314
461,0.766417,142.507
462,0.768083,142.232
463,0.76975,142.232
464,0.771417,142.403
465,0.773083,142.135
466,0.77475,142.135
467,0.776417,141.881
468,0.778083,141.993
469,0.779733,141.963
470,0.7814,141.963
471,0.783067,141.919
472,0.784733,142.097
473,0.7864,142.053
474,0.788117,142.053
475,0.789783,141.867
476,0.7914,142.023
477,0.793067,142.023
478,0.794733,142.023
479,0.7964,142.276
480,0.798067,142.381
481,0.799733,142.381
482,0.8014,142.5
483,0.803067,142.455
484,0.804733,142.12
485,0.8064,142.12
486,0.808067,142.261
487,0.809733,142.172
488,0.8114,142.232
489,0.813067,142.232
490,0.814733,142.492
491,0.8164,142.336
492,0.818067,142.403
493,0.819733,142.403
494,0.821417,142.284
495,0.823067,141.956
496,0.824733,141.717
497,0.8264,141.717
498,0.828067,141.464
499,0.829767,141.554
500,0.8314,141.554
501,0.833067,141.673
502,0.8347329999999999,141.799
503,0.8364,142.045
504,0.838067,142.045
505,0.839717,142.016
506,0.841383,142.291
507,0.84305,142.239
508,0.8447170000000001,142.239
509,0.8464,142.135
510,0.84805,142.246
511,0.8497169999999999,142.068
512,0.851383,142.068
513,0.85305,142.15
514,0.8547169999999999,142.001
515,0.856383,142.001
516,0.85805,141.896
517,0.859717,141.948
518,0.861383,142.358
519,0.863083,142.358
520,0.864717,142.708
521,0.866433,142.582
522,0.86805,142.433
523,0.869717,142.433
524,0.871383,142.038
525,0.87305,141.807
526,0.874717,142.06
527,0.876383,142.06
528,0.87805,142.232
529,0.879717,142.261
530,0.881383,142.261
531,0.88305,142.559
532,0.884717,142.731
533,0.886383,142.947
534,0.88805,142.947
535,0.889717,143.245
536,0.891383,143.461
537,0.89305,143.461
538,0.894717,143.461
539,0.896383,143.237
540,0.89805,143.215
541,0.8997000000000001,143.319
542,0.901367,143.319
543,0.903033,143.297
544,0.9046999999999999,143.617
545,0.906367,143.811
546,0.908033,143.811
547,0.9097,143.468
548,0.911367,143.506
549,0.913033,143.506
550,0.9147,143.811
551,0.916367,144.154
552,0.918033,144.392
553,0.9197,144.392
554,0.921367,144.795
555,0.923033,144.75
556,0.9247,144.765
557,0.9263670000000001,144.765
558,0.928033,145.324
559,0.9297,145.338
560,0.9313669999999999,145.637
561,0.933033,145.637
562,0.9347,146.002
563,0.9363669999999999,146.143
564,0.938033,146.143
565,0.9397,146.531
566,0.941367,146.672
567,0.943017,146.65
568,0.9446830000000001,146.65
569,0.94635,146.784
570,0.948017,146.925
571,0.9496830000000001,147.164
572,0.95135,147.164
573,0.953017,147.641
574,0.9546829999999999,147.708
575,0.95635,148.125
576,0.958,148.125
577,0.959667,148.535
578,0.961333,148.594
579,0.963,148.982
580,0.9646670000000001,148.982
581,0.966333,149.295
582,0.968,149.928
583,0.9696669999999999,149.928
584,0.971333,150.375
585,0.973,150.859
586,0.974667,151.299
587,0.976333,151.299
588,0.978,151.545
589,0.979667,152.059
590,0.981417,152.715
591,0.983,152.715
592,0.984667,153.489
593,0.986333,154.063
594,0.988,154.585
595,0.989667,154.585
596,0.991333,155.121
597,0.993,155.501
598,0.994667,155.501
599,0.99635,156.09
600,0.998,156.961
601,0.999667,157.438
602,1.001333,157.438
603,1.003,157.893
604,1.004667,158.213
605,1.00635,158.474
606,1.008,158.474
607,1.009667,159.115
608,1.011333,159.748
609,1.013,160.649
610,1.014667,160.649
611,1.016333,161.357
612,1.018,162.035
613,1.01965,162.035
614,1.021317,162.929
615,1.022983,163.659
616,1.02465,164.546
617,1.026317,164.546
618,1.027983,165.515
619,1.02965,165.947
620,1.031333,166.602
621,1.032983,166.602
622,1.03465,167.251
623,1.036317,167.839
624,1.037983,168.733
625,1.03965,168.733
626,1.041317,169.307
627,1.042983,170.29
628,1.04465,171.266
629,1.046317,171.266
630,1.047983,172.481
631,1.04965,173.71
632,1.051317,173.71
633,1.052983,174.806
634,1.05465,175.893
635,1.056317,176.527
636,1.057983,176.527
637,1.05965,177.175
638,1.061317,177.853
639,1.062983,178.635
640,1.06465,178.635
641,1.066367,179.529
642,1.067983,180.967
643,1.06965,181.876
644,1.071317,181.876
645,1.072983,182.815
646,1.07465,183.97
647,1.076317,183.97
648,1.077983,184.499
649,1.079633,185.184
650,1.0813,185.877
651,1.082967,185.877
652,1.084633,186.689
653,1.0863,187.665
654,1.087967,188.962
655,1.089633,188.962
656,1.0913,190.064
657,1.092967,191.435
658,1.094633,192.538
659,1.0963,192.538
660,1.097967,193.752
661,1.099767,195.071
662,1.1013,196.01
663,1.102967,196.01
664,1.104633,197.321
665,1.1063,198.223
666,1.107967,198.223
667,1.109633,199.229
668,1.1113,200.249
669,1.112967,201.24
670,1.114633,201.24
671,1.1163,202.402
672,1.117967,203.542
673,1.11965,204.779
674,1.1213,204.779
675,1.122967,205.979
676,1.124633,206.992
677,1.1263,208.028
678,1.127967,208.028
679,1.129633,208.966
680,1.1313,209.98
681,1.132967,209.98
682,1.134633,211.343
683,1.1363,212.416
684,1.137967,213.668
685,1.139617,213.668
686,1.141283,214.852
687,1.14295,216.007
688,1.144617,217.11
689,1.146283,217.11
690,1.14795,218.078
691,1.149617,219.405
692,1.151317,220.448
693,1.15295,220.448
694,1.154617,221.893
695,1.156283,223.324
696,1.15795,224.546
697,1.159617,224.546
698,1.161283,225.946
699,1.16295,227.124
700,1.164617,227.124
701,1.166283,228.152
702,1.16795,229.254
703,1.169617,230.186
704,1.171283,230.186
705,1.17295,231.37
706,1.174617,232.734
707,1.176283,233.963
708,1.17795,233.963
709,1.179617,235.111
710,1.181283,236.116
711,1.18295,237.465
712,1.184667,237.465
713,1.186283,238.813
714,1.18795,240.237
715,1.189617,240.237
716,1.191283,241.555
717,1.19295,242.859
718,1.194617,243.939
719,1.196283,243.939
720,1.197933,245.258
721,1.199633,246.577
722,1.201267,247.65
723,1.202933,247.65
724,1.2046,248.745
725,1.206267,249.9
726,1.207933,250.988
727,1.2096,250.988
728,1.211267,252.21
729,1.212933,253.595
730,1.2146,254.974
731,1.216267,254.974
732,1.218067,256.553
733,1.2196,257.723
734,1.221267,257.723
735,1.222933,258.863
736,1.224617,260.115
737,1.226267,261.217
738,1.227933,261.217
739,1.2296,262.268
740,1.231267,263.289
741,1.232933,264.414
742,1.234583,264.414
743,1.23625,265.814
744,1.237917,266.969
745,1.239583,268.407
746,1.24125,268.407
747,1.242917,269.629
748,1.244583,270.59
749,1.24625,270.59
750,1.247917,271.924
751,1.249583,273.205
752,1.25125,274.427
753,1.252917,274.427
754,1.254583,275.828
755,1.25625,277.482
756,1.2579,279.076
757,1.259567,279.076
758,1.261233,280.291
759,1.2629,281.632
760,1.264567,282.839
761,1.266233,282.839
762,1.2679,283.8
763,1.269567,285.126
764,1.271233,285.126
765,1.2729,286.266
766,1.274567,287.227
767,1.276233,288.405
768,1.2779,288.405
769,1.279567,289.626
770,1.281233,290.915
771,1.2829,292.532
772,1.284567,292.532
773,1.286233,293.836
774,1.287933,295.058
775,1.289567,296.183
776,1.291233,296.183
777,1.292917,297.435
778,1.294567,298.783
779,1.296233,300.37
780,1.2979,300.37
781,1.299567,301.965
782,1.301233,303.157
783,1.302917,303.157
784,1.304567,304.557
785,1.306233,305.63
786,1.3079,306.711
787,1.309567,306.711
788,1.311233,307.947
789,1.3129,309.318
790,1.314567,310.533
791,1.316233,310.533
792,1.3179,311.829
793,1.319683,313.23
794,1.321217,314.191
795,1.322883,314.191
796,1.32455,315.428
797,1.326217,316.568
798,1.327883,316.568
799,1.32955,317.73
800,1.331217,319.146
801,1.332883,320.666
802,1.33455,320.666
803,1.336333,322.096
804,1.337883,323.407
805,1.33955,324.57
806,1.341217,324.57
807,1.342883,325.613
808,1.34455,327.043
809,1.346217,328.429
810,1.347883,328.429
811,1.34955,329.8
812,1.351217,331.156
813,1.352883,332.303
814,1.35455,332.303
815,1.356217,333.354
816,1.357883,334.524
817,1.35955,334.524
818,1.361217,335.686
819,1.362883,336.826
820,1.36455,338.234
821,1.366217,338.234
822,1.3679,339.478
823,1.36955,340.76
824,1.37125,341.84
825,1.372883,341.84
826,1.37455,342.987
827,1.376217,344.709
828,1.377883,346.169
829,1.379533,346.169
830,1.3812,347.83
831,1.382867,349.194
832,1.384533,349.194
833,1.3862,350.319
834,1.387867,351.384
835,1.389533,352.539
836,1.3912,352.539
837,1.392867,353.701
838,1.394533,354.812
839,1.3962,356.071
840,1.397867,356.071
841,1.39955,357.173
842,1.4012,358.656
843,1.402867,360.116
844,1.404533,360.116
845,1.4062,361.547
846,1.407867,363.164
847,1.409533,364.363
848,1.4112,364.363
849,1.412867,365.399
850,1.414533,366.874
851,1.4162,366.874
852,1.417867,368.185
853,1.419533,369.519
854,1.421233,370.92
855,1.422867,370.92
856,1.424533,371.896
857,1.4262,372.73
858,1.427867,373.699
859,1.429533,373.699
860,1.4312,374.779
861,1.432867,375.934
862,1.43455,377.506
863,1.4362,377.506
864,1.437983,378.914
865,1.439517,380.382
866,1.4412,380.382
867,1.44285,381.589
868,1.444517,382.684
869,1.446183,383.809
870,1.44785,383.809
871,1.449517,384.785
872,1.451183,386.201
873,1.45285,387.236
874,1.4546,387.236
875,1.456183,388.503
876,1.45785,389.777
877,1.459517,391.006
878,1.461183,391.006
879,1.46285,392.377
880,1.464517,393.629
881,1.466183,393.629
882,1.46785,394.754
883,1.469517,395.991
884,1.471283,397.235
885,1.47285,397.235
886,1.474517,398.323
887,1.476183,399.411
888,1.47785,400.253
889,1.479517,400.253
890,1.481183,400.998
891,1.48285,402.138
892,1.484517,403.412
893,1.486183,403.412
894,1.48785,404.768
895,1.489517,406.355
896,1.491183,407.748
897,1.49285,407.748
898,1.494517,408.94
899,1.496167,410.05
900,1.497833,410.05
901,1.4995,411.227
902,1.501167,412.293
903,1.502833,413.47
904,1.5045,413.47
905,1.506167,414.625
906,1.50785,415.653
907,1.5095,416.592
908,1.511167,416.592
909,1.512833,417.419
910,1.5145,418.469
911,1.516167,419.416
912,1.517833,419.416
913,1.5195,420.533
914,1.521167,421.651
915,1.522833,421.651
916,1.524483,422.597
917,1.52615,423.595
918,1.527833,424.564
919,1.529483,424.564
920,1.53115,425.652
921,1.532817,426.732
922,1.534483,427.887
923,1.53615,427.887
924,1.537817,428.684
925,1.539483,429.846
926,1.54115,431.105
927,1.542817,431.105
928,1.544483,432.305
929,1.54615,433.408
930,1.547817,434.235
931,1.549483,434.235
932,1.55115,435.077
933,1.552817,435.852
934,1.554483,435.852
935,1.5562,436.88
936,1.5578,437.744
937,1.559467,438.452
938,1.561133,438.452
939,1.5628,439.271
940,1.564467,440.031
941,1.566133,440.873
942,1.5678,440.873
943,1.569467,441.693
944,1.571133,442.974
945,1.572917,443.921
946,1.574483,443.921
947,1.57615,444.792
948,1.5778,445.575
949,1.579467,445.575
950,1.581133,446.238
951,1.5828,446.871
952,1.584467,447.72
953,1.586133,447.72
954,1.5878,448.86
955,1.589567,449.412
956,1.591133,450.619
957,1.5928,450.619
958,1.594467,451.513
959,1.596133,452.451
960,1.5978,453.427
961,1.599467,453.427
962,1.601133,454.254
963,1.6028,455.119
964,1.604467,455.663
965,1.606133,455.663
966,1.6078,456.154
967,1.609467,456.855
968,1.611133,456.855
