"ID","sea_time","fid_signal"
1,0,1175.404
2,0.0016,1174.659
3,0.003267,1172.647
4,0.004933,1173.839
5,0.0066,1173.839
6,0.008267,1173.392
7,0.009933000000000001,1174.36
8,0.0116,1174.063
9,0.013267,1174.063
10,0.014933,1170.486
11,0.016633,1167.655
12,0.018267,1166.239
13,0.019933,1166.239
14,0.0216,1165.643
15,0.023267,1167.879
16,0.024933,1167.879
17,0.0266,1172.349
18,0.028267,1175.553
19,0.029933,1176.074
20,0.0316,1176.074
21,0.033367,1173.317
22,0.034933,1170.561
23,0.0366,1169.443
24,0.038267,1169.443
25,0.039933,1169.071
26,0.0416,1173.094
27,0.043267,1172.87
28,0.044917,1172.87
29,0.046617,1174.957
30,0.04825,1176
31,0.049917,1176
32,0.051583,1176
33,0.05325,1175.702
34,0.054917,1176.074
35,0.056583,1176.074
36,0.05825,1177.117
37,0.059917,1172.945
38,0.061583,1172.87
39,0.06325,1172.87
40,0.064917,1168.326
41,0.066583,1167.432
42,0.06825000000000001,1170.039
43,0.06991700000000001,1170.039
44,0.07158299999999999,1169.071
45,0.07325,1172.423
46,0.074917,1172.721
47,0.076583,1172.721
48,0.07825,1174.286
49,0.079917,1177.788
50,0.081583,1177.788
51,0.08325,1177.937
52,0.08491700000000001,1178.458
53,0.08658299999999999,1176.968
54,0.08825,1176.968
55,0.089917,1177.415
56,0.091583,1175.031
57,0.093267,1171.306
58,0.094917,1171.306
59,0.096583,1167.357
60,0.09825,1164.228
61,0.09991700000000001,1164.377
62,0.101583,1164.377
63,0.10325,1168.4
64,0.104917,1171.678
65,0.106567,1171.678
66,0.108233,1172.2
67,0.1099,1176.372
68,0.111567,1174.807
69,0.113233,1174.807
70,0.11495,1174.063
71,0.116567,1176.745
72,0.118233,1172.423
73,0.1199,1172.423
74,0.121567,1171.976
75,0.123233,1172.87
76,0.1249,1172.796
77,0.126567,1172.796
78,0.128233,1173.243
79,0.1299,1172.2
80,0.131567,1170.561
81,0.133233,1170.561
82,0.134917,1166.835
83,0.136567,1167.059
84,0.138233,1167.059
85,0.1399,1166.388
86,0.141567,1165.718
87,0.143233,1167.655
88,0.1449,1167.655
89,0.146567,1166.388
90,0.148233,1169.443
91,0.1499,1172.125
92,0.151667,1172.125
93,0.153233,1171.753
94,0.1549,1171.306
95,0.156567,1170.71
96,0.158233,1170.71
97,0.1599,1171.827
98,0.161567,1172.572
99,0.163233,1172.572
100,0.1649,1176.223
101,0.16655,1175.031
102,0.168217,1175.851
103,0.169883,1175.851
104,0.17155,1176.447
105,0.173217,1173.019
106,0.174883,1173.615
107,0.17655,1173.615
108,0.178217,1168.251
109,0.179883,1166.537
110,0.18155,1169.667
111,0.183217,1169.667
112,0.184883,1171.753
113,0.186567,1176.968
114,0.188217,1176.149
115,0.189883,1176.149
116,0.19155,1173.094
117,0.193217,1168.922
118,0.194883,1168.922
119,0.19655,1167.208
120,0.198217,1171.902
121,0.199883,1174.063
122,0.20155,1174.063
123,0.203217,1178.086
124,0.204883,1177.341
125,0.20655,1173.615
126,0.208217,1173.615
127,0.209883,1174.137
128,0.21155,1170.263
129,0.213217,1171.902
130,0.214883,1171.902
131,0.21655,1174.212
132,0.218217,1173.765
133,0.219883,1173.765
134,0.22155,1178.011
135,0.223217,1174.882
136,0.224883,1170.486
137,0.226533,1170.486
138,0.2282,1169.89
139,0.22985,1167.58
140,0.231517,1167.357
141,0.233183,1167.357
142,0.23485,1168.549
143,0.236533,1171.008
144,0.238183,1171.008
145,0.23985,1171.008
146,0.241517,1171.231
147,0.243183,1175.106
148,0.24485,1175.627
149,0.246517,1175.627
150,0.248183,1177.937
151,0.24985,1180.321
152,0.251517,1180.321
153,0.253233,1179.203
154,0.25485,1178.011
155,0.256517,1177.266
156,0.258183,1177.266
157,0.25985,1173.69
158,0.261517,1174.286
159,0.263183,1172.423
160,0.26485,1172.423
161,0.266517,1168.698
162,0.2682,1168.549
163,0.269967,1166.239
164,0.271517,1166.239
165,0.273183,1167.208
166,0.27485,1171.231
167,0.276517,1171.231
168,0.278183,1173.317
169,0.27985,1173.243
170,0.281517,1173.168
171,0.283183,1173.168
172,0.28485,1172.274
173,0.2865,1172.721
174,0.288167,1175.702
175,0.289833,1175.702
176,0.2915,1176.819
177,0.293167,1178.086
178,0.294833,1179.203
179,0.2965,1179.203
180,0.298167,1175.702
181,0.299833,1174.36
182,0.3015,1174.36
183,0.303167,1170.039
184,0.304833,1167.059
185,0.3065,1167.953
186,0.308167,1167.953
187,0.309833,1166.612
188,0.3115,1166.463
189,0.313167,1170.71
190,0.314833,1170.71
191,0.3165,1169.22
192,0.318167,1168.698
193,0.31985,1171.455
194,0.3215,1171.455
195,0.323167,1167.506
196,0.324833,1168.624
197,0.3265,1171.976
198,0.328167,1171.976
199,0.329833,1171.38
200,0.3315,1173.988
201,0.333167,1173.988
202,0.334833,1175.776
203,0.3365,1176.521
204,0.338167,1178.086
205,0.339833,1178.086
206,0.3415,1182.556
207,0.343167,1188.517
208,0.344833,1194.403
209,0.346483,1194.403
210,0.34815,1205.802
211,0.349817,1212.507
212,0.351483,1219.362
213,0.35315,1219.362
214,0.354883,1231.506
215,0.356483,1244.694
216,0.35815,1244.694
217,0.359817,1261.756
218,0.361483,1282.394
219,0.36315,1306.161
220,0.364817,1306.161
221,0.366483,1332.313
222,0.36815,1365.021
223,0.369817,1402.721
224,0.371483,1402.721
225,0.37315,1444.817
226,0.374817,1494.065
227,0.376483,1546.145
228,0.37815,1546.145
229,0.379817,1605.898
230,0.381483,1672.581
231,0.38315,1743.659
232,0.384817,1743.659
233,0.386483,1829.863
234,0.388267,1921.207
235,0.389817,1921.207
236,0.391483,2024.695
237,0.39315,2142.787
238,0.394817,2271.607
239,0.396483,2271.607
240,0.39815,2421.066
241,0.399817,2588.183
242,0.401483,2779.439
243,0.40315,2779.439
244,0.4048,3006.533
245,0.4065,3280.491
246,0.408133,3618.896
247,0.4098,3618.896
248,0.411467,4040.524
249,0.413133,4572.347
250,0.4148,4572.347
251,0.416467,5243.719
252,0.418133,6088.093
253,0.4198,7148.608
254,0.421467,7148.608
255,0.423133,8460.879000000001
256,0.4248,10068.863
257,0.426467,12002.811
258,0.428133,12002.811
259,0.4298,14294.237
260,0.431467,16968.697
261,0.433133,20035.877
262,0.4348,20035.877
263,0.436467,23492.5
264,0.438133,27305.41
265,0.4398,31416.416
266,0.441467,31416.416
267,0.443133,35734.398
268,0.4448,40147.453
269,0.446467,40147.453
270,0.448133,44535.398
271,0.4498,48760.695
272,0.451467,52694.754
273,0.453133,52694.754
274,0.4548,56227.742
275,0.456467,59255.734
276,0.458133,61708.168
277,0.4598,61708.168
278,0.461467,63540.34
279,0.463133,64731.316
280,0.4648,65286.906
281,0.46645,65286.906
282,0.468117,65231.77
283,0.469817,64616.129
284,0.47145,64616.129
285,0.47315,63496.977
286,0.474783,61946.809
287,0.47645,60041.918
288,0.478117,60041.918
289,0.4798,57852.121
290,0.48145,55452.883
291,0.483117,52914.695
292,0.484783,52914.695
293,0.48645,50294.996
294,0.488117,47644.527
295,0.489867,45010.223
296,0.49145,45010.223
297,0.493117,42425.246
298,0.494783,39922.371
299,0.496467,37525.965
300,0.498117,37525.965
301,0.499783,35246.684
302,0.50145,33093.094
303,0.503117,33093.094
304,0.504783,31064.451
305,0.506567,29166.191
306,0.508117,27397.797
307,0.509783,27397.797
308,0.51145,25751.666
309,0.513117,24231.523
310,0.514783,22819.488
311,0.51645,22819.488
312,0.518117,21511.689
313,0.519767,20300.82
314,0.521433,19178.242
315,0.5231,19178.242
316,0.52475,18138.215
317,0.526417,17174.334
318,0.528083,17174.334
319,0.5297500000000001,16280.264
320,0.531417,15450.418
321,0.533083,14681.741
322,0.5347499999999999,14681.741
323,0.536417,13967.678
324,0.538083,13299.659
325,0.53975,12673.885
326,0.5414330000000001,12673.885
327,0.543083,12089.313
328,0.54475,11540.949
329,0.546417,11032.149
330,0.548083,11032.149
331,0.54975,10554.716
332,0.551417,10107.606
333,0.553083,10107.606
334,0.55475,9685.233
335,0.5564170000000001,9289.012000000001
336,0.558083,8915.588
337,0.55975,8915.588
338,0.5614170000000001,8566.603999999999
339,0.563083,8239.745999999999
340,0.564783,7925.332
341,0.5664169999999999,7925.332
342,0.568083,7632.077
343,0.56975,7351.115
344,0.571417,7084.832
345,0.573083,7084.832
346,0.57475,6833.3
347,0.576417,6595.775
348,0.578083,6368.98
349,0.57975,6368.98
350,0.581417,6152.242
351,0.583083,5951.151
352,0.58475,5951.151
353,0.5864,5755.723
354,0.588067,5571.246
355,0.589733,5393.326
356,0.591467,5393.326
357,0.593067,5224.347
358,0.594733,5061.85
359,0.5964,4905.909
360,0.598067,4905.909
361,0.599733,4763.156
362,0.6014,4624.352
363,0.603067,4492.03
364,0.604733,4492.03
365,0.6064000000000001,4364.848
366,0.608083,4244.521
367,0.609733,4244.521
368,0.611417,4130.155
369,0.613067,4018.769
370,0.614733,3919.676
371,0.6163999999999999,3919.676
372,0.618067,3818.944
373,0.619733,3722.757
374,0.6214,3634.17
375,0.623067,3634.17
376,0.62485,3543.347
377,0.6264,3456.399
378,0.628067,3375.188
379,0.629733,3375.188
380,0.6314,3295.69
381,0.633067,3221.035
382,0.634733,3149.882
383,0.6364,3149.882
384,0.6380670000000001,3079.698
385,0.639733,3015.101
386,0.6414,3015.101
387,0.6430670000000001,2950.504
388,0.644733,2890.602
389,0.646383,2832.413
390,0.64805,2832.413
391,0.649717,2777.129
392,0.651383,2726.093
393,0.65305,2676.174
394,0.654717,2676.174
395,0.656383,2626.404
396,0.65805,2579.466
397,0.659733,2532.005
398,0.6613830000000001,2532.005
399,0.66305,2487.898
400,0.664717,2443.865
401,0.6663829999999999,2443.865
402,0.66805,2400.95
403,0.669717,2363.473
404,0.6714,2325.848
405,0.67305,2325.848
406,0.674717,2291.873
407,0.676383,2257.526
408,0.67805,2221.093
409,0.679717,2221.093
410,0.681383,2184.808
411,0.6831,2155.378
412,0.684717,2125.651
413,0.686383,2125.651
414,0.6880500000000001,2098.307
415,0.689717,2073.348
416,0.691383,2042.204
417,0.6930500000000001,2042.204
418,0.694717,2015.531
419,0.696383,1988.709
420,0.6980499999999999,1988.709
421,0.699717,1965.091
422,0.701383,1944.75
423,0.70305,1921.43
424,0.704717,1921.43
425,0.706367,1900.122
426,0.708033,1878.142
427,0.70975,1859.367
428,0.711367,1859.367
429,0.713033,1842.752
430,0.7147,1826.659
431,0.716367,1810.491
432,0.718033,1810.491
433,0.7197,1792.088
434,0.721367,1770.556
435,0.723033,1770.556
436,0.7247,1749.247
437,0.726483,1731.142
438,0.728033,1717.359
439,0.7297,1717.359
440,0.731367,1707.45
441,0.733033,1695.454
442,0.7347,1680.926
443,0.736367,1680.926
444,0.7380330000000001,1665.726
445,0.7397,1650.9
446,0.741367,1639.575
447,0.743083,1639.575
448,0.744717,1628.622
449,0.746367,1612.082
450,0.7480329999999999,1612.082
451,0.7497,1599.118
452,0.751367,1587.868
453,0.753033,1579.821
454,0.7547,1579.821
455,0.756367,1576.17
456,0.758033,1570.061
457,0.7598,1561.865
458,0.761367,1561.865
459,0.763033,1552.254
460,0.7647,1540.929
461,0.76635,1530.275
462,0.7680169999999999,1530.275
463,0.769683,1519.695
464,0.77135,1508.594
465,0.773017,1499.504
466,0.774683,1499.504
467,0.77635,1488.402
468,0.778017,1480.207
469,0.779683,1480.207
470,0.78135,1473.129
471,0.783017,1466.349
472,0.784683,1462.922
473,0.78635,1462.922
474,0.788017,1457.259
475,0.789683,1451.746
476,0.79135,1447.35
477,0.793017,1447.35
478,0.794683,1440.942
479,0.79635,1436.025
480,0.798017,1428.127
481,0.799683,1428.127
482,0.80135,1421.869
483,0.803017,1416.281
484,0.804683,1416.281
485,0.80635,1409.426
486,0.808017,1406.148
487,0.809683,1401.305
488,0.811333,1401.305
489,0.8129999999999999,1394.302
490,0.814667,1390.427
491,0.816333,1385.51
492,0.8179999999999999,1385.51
493,0.819667,1379.997
494,0.821367,1375.452
495,0.823,1368.225
496,0.82465,1368.225
497,0.826317,1365.393
498,0.827983,1360.7
499,0.82965,1358.017
500,0.831317,1358.017
501,0.832983,1356.453
502,0.83465,1351.535
503,0.836317,1351.535
504,0.837983,1348.183
505,0.83965,1346.618
506,0.841317,1343.116
507,0.842983,1343.116
508,0.8447170000000001,1340.285
509,0.846333,1335.517
510,0.847983,1331.94
511,0.84965,1331.94
512,0.851317,1328.513
513,0.852983,1324.117
514,0.85465,1320.541
515,0.856317,1320.541
516,0.8579830000000001,1315.102
517,0.85965,1313.686
518,0.861367,1313.686
519,0.8629829999999999,1313.835
520,0.86465,1314.729
521,0.866317,1312.196
522,0.8679829999999999,1312.196
523,0.86965,1308.322
524,0.871317,1304.15
525,0.872983,1298.86
526,0.87465,1298.86
527,0.876317,1295.581
528,0.8781,1294.985
529,0.87965,1292.527
530,0.881317,1292.527
531,0.882983,1292.154
532,0.884633,1292.899
533,0.8863,1292.899
534,0.887967,1289.621
535,0.889633,1286.939
536,0.8913,1286.045
537,0.892967,1286.045
538,0.894633,1283.363
539,0.8963,1281.127
540,0.898,1278.743
541,0.8997000000000001,1278.743
542,0.9013,1277.626
543,0.902967,1277.253
544,0.904633,1275.912
545,0.9063,1275.912
546,0.907967,1276.433
547,0.909633,1273.826
548,0.9113,1271.293
549,0.912967,1271.293
550,0.914633,1272.559
551,0.9163,1271.144
552,0.917967,1271.144
553,0.919633,1268.387
554,0.9213,1267.791
555,0.922967,1263.917
556,0.924633,1263.917
557,0.9263,1263.693
558,0.927967,1264.214
559,0.929633,1260.415
560,0.9313,1260.415
561,0.932967,1257.286
562,0.934633,1251.325
563,0.9363,1246.78
564,0.937967,1246.78
565,0.9396330000000001,1248.047
566,0.9413,1250.953
567,0.942967,1250.953
568,0.9446329999999999,1254.38
569,0.946283,1255.795
570,0.947967,1255.497
571,0.949617,1255.497
572,0.951283,1253.113
573,0.95295,1250.282
574,0.954617,1249.76
575,0.956283,1249.76
576,0.95795,1246.855
577,0.9596170000000001,1246.631
578,0.961283,1247.451
579,0.963017,1247.451
580,0.9646169999999999,1246.184
581,0.966283,1245.216
582,0.96795,1239.702
583,0.969617,1239.702
584,0.971283,1236.498
585,0.972967,1236.349
586,0.974617,1236.349
587,0.976283,1235.306
588,0.97795,1237.541
589,0.97965,1237.02
590,0.981283,1237.02
591,0.98295,1235.679
592,0.984617,1235.977
593,0.986283,1235.53
594,0.98795,1235.53
595,0.989617,1232.326
596,0.991283,1228.675
597,0.99295,1225.919
598,0.994617,1225.919
599,0.9964,1224.95
600,0.99795,1226.366
601,0.999617,1226.366
602,1.001283,1225.024
603,1.00295,1222.417
604,1.004617,1221.15
605,1.006267,1221.15
606,1.007933,1218.542
607,1.0096,1219.511
608,1.011267,1218.021
609,1.012933,1218.021
610,1.0146,1218.319
611,1.016267,1218.617
612,1.017933,1218.915
613,1.0196,1218.915
614,1.021267,1221.448
615,1.022933,1219.287
616,1.0246,1218.617
617,1.026267,1218.617
618,1.027933,1217.797
619,1.0296,1216.903
620,1.031267,1216.903
621,1.032933,1216.829
622,1.034633,1215.562
623,1.036267,1216.233
624,1.037933,1216.233
625,1.0396,1216.233
626,1.041267,1212.656
627,1.042933,1212.582
628,1.0446,1212.582
629,1.046267,1210.496
630,1.047933,1210.123
631,1.0496,1211.315
632,1.051267,1211.315
633,1.052933,1211.837
634,1.0546,1214.221
635,1.056267,1214.221
636,1.057933,1212.954
637,1.059617,1213.625
638,1.061267,1215.264
639,1.062933,1215.264
640,1.064583,1214.743
641,1.06625,1217.797
642,1.067917,1219.064
643,1.069583,1219.064
644,1.07125,1214.594
645,1.072917,1210.421
646,1.0746,1210.049
647,1.07625,1210.049
648,1.077917,1206.994
649,1.079583,1207.516
650,1.081317,1208.037
651,1.082917,1208.037
652,1.084583,1206.174
653,1.08625,1205.355
654,1.087917,1205.355
655,1.089583,1206.323
656,1.09125,1204.982
657,1.092917,1204.014
658,1.094583,1204.014
659,1.09625,1207.888
660,1.09795,1206.174
661,1.099583,1205.727
662,1.10125,1205.727
663,1.1029,1206.249
664,1.104567,1204.014
665,1.10625,1204.237
666,1.1079,1204.237
667,1.109567,1206.547
668,1.111233,1203.045
669,1.1129,1203.045
670,1.11465,1201.034
671,1.116233,1201.108
672,1.1179,1198.575
673,1.119567,1198.575
674,1.121233,1198.873
675,1.1229,1199.767
676,1.12455,1198.351
677,1.126217,1198.351
678,1.127883,1199.171
679,1.12955,1200.661
680,1.131217,1200.587
681,1.132883,1200.587
682,1.13455,1201.555
683,1.136217,1202.598
684,1.137883,1202.598
685,1.13955,1202.598
686,1.141217,1202.226
687,1.142883,1202.151
688,1.14455,1202.151
689,1.146217,1203.269
690,1.147883,1203.045
691,1.14955,1202.375
692,1.151217,1202.375
693,1.1529,1203.045
694,1.15455,1200.065
695,1.156217,1197.681
696,1.157883,1197.681
697,1.15955,1195.52
698,1.161217,1194.254
699,1.162883,1192.763
700,1.16455,1192.763
701,1.166217,1191.497
702,1.167883,1192.093
703,1.16955,1192.093
704,1.171217,1191.348
705,1.172883,1191.646
706,1.174567,1190.603
707,1.176217,1190.603
708,1.177883,1193.062
709,1.17955,1193.657
710,1.181217,1193.881
711,1.182867,1193.881
712,1.184533,1194.403
713,1.1862,1193.285
714,1.187867,1193.359
715,1.189533,1193.359
716,1.1912,1193.359
717,1.192867,1196.116
718,1.194533,1196.116
719,1.1962,1194.03
720,1.197867,1193.21
721,1.199583,1193.136
722,1.2012,1193.136
723,1.202867,1192.912
724,1.204533,1193.807
725,1.2062,1193.136
726,1.207867,1193.136
727,1.209533,1191.124
728,1.2112,1191.869
729,1.212867,1193.062
730,1.214533,1193.062
731,1.2162,1194.626
732,1.217867,1194.999
733,1.219533,1192.987
734,1.2212,1192.987
735,1.222867,1191.944
736,1.224533,1186.803
737,1.2262,1186.803
738,1.227867,1185.909
739,1.229533,1188.219
740,1.2312,1186.505
741,1.232983,1186.505
742,1.234533,1189.187
743,1.2362,1193.062
744,1.237867,1189.56
745,1.239533,1189.56
746,1.241217,1191.05
747,1.242867,1192.763
748,1.244533,1188.889
749,1.246183,1188.889
750,1.24785,1188.07
751,1.249533,1187.623
752,1.251183,1187.623
753,1.252867,1185.76
754,1.254517,1188.666
755,1.256183,1191.273
756,1.25785,1191.273
757,1.259517,1191.422
758,1.261183,1191.869
759,1.26285,1189.262
760,1.264517,1189.262
761,1.266183,1188.219
762,1.26785,1190.305
763,1.269517,1189.56
764,1.271183,1189.56
765,1.27285,1188.442
766,1.274517,1187.026
767,1.276183,1185.015
768,1.27785,1185.015
769,1.279517,1183.599
770,1.281183,1186.877
771,1.28285,1186.877
772,1.284517,1188.964
773,1.286183,1188.219
774,1.28785,1188.666
775,1.289517,1188.666
776,1.291183,1187.25
777,1.29285,1184.195
778,1.294517,1185.685
779,1.296183,1185.685
780,1.29785,1185.983
781,1.299517,1186.803
782,1.301183,1187.399
783,1.30285,1187.399
784,1.3045,1185.015
785,1.306167,1188.889
786,1.307833,1188.889
787,1.3095,1186.952
788,1.311167,1186.579
789,1.312867,1189.187
790,1.3145,1189.187
791,1.316167,1187.772
792,1.3179,1188.442
793,1.3195,1189.709
794,1.321167,1189.709
795,1.322833,1190.528
796,1.3245,1187.772
797,1.326167,1185.238
798,1.327833,1185.238
799,1.3295,1183.897
800,1.331167,1183.227
801,1.332833,1183.227
802,1.3345,1185.089
803,1.336167,1187.176
804,1.337833,1187.995
805,1.3395,1187.995
806,1.341167,1186.132
807,1.342833,1183.525
808,1.3445,1184.642
809,1.346167,1184.642
810,1.347833,1186.281
811,1.3495,1187.772
812,1.351217,1189.262
813,1.352833,1189.262
814,1.3545,1190.23
815,1.356167,1189.485
816,1.357833,1186.132
817,1.3595,1186.132
818,1.361167,1186.729
819,1.362833,1184.568
820,1.3645,1184.568
821,1.366167,1182.631
822,1.367817,1183.078
823,1.369483,1182.929
824,1.37115,1182.929
825,1.372817,1182.854
826,1.374483,1185.611
827,1.37615,1185.536
828,1.377817,1185.536
829,1.379483,1184.493
830,1.38115,1185.387
831,1.382817,1183.152
832,1.384483,1183.152
833,1.38615,1183.525
834,1.387817,1181.811
835,1.389483,1181.811
836,1.39115,1182.854
837,1.392817,1182.929
838,1.394467,1183.599
839,1.396133,1183.599
840,1.3978,1184.866
841,1.399467,1183.078
842,1.401133,1184.493
843,1.4028,1184.493
844,1.404467,1184.493
845,1.406133,1186.729
846,1.4078,1187.548
847,1.409467,1187.548
848,1.411133,1183.674
849,1.4128,1182.109
850,1.414467,1178.756
851,1.416133,1178.756
852,1.4178,1176.074
853,1.419467,1177.415
854,1.421133,1177.415
855,1.4228,1177.564
856,1.424467,1181.588
857,1.426117,1182.556
858,1.427783,1182.556
859,1.42945,1183.674
860,1.431117,1184.195
861,1.432783,1181.886
862,1.43445,1181.886
863,1.436183,1183.599
864,1.437783,1185.462
865,1.43945,1186.356
866,1.441117,1186.356
867,1.442783,1186.579
868,1.44445,1182.333
869,1.446117,1182.333
870,1.447783,1179.352
871,1.44945,1177.192
872,1.451117,1177.341
873,1.452783,1177.341
874,1.45445,1178.831
875,1.456117,1179.054
876,1.457783,1179.576
877,1.45945,1179.576
878,1.461117,1180.172
879,1.462783,1184.195
880,1.46445,1184.493
881,1.466117,1184.493
882,1.467783,1184.717
883,1.469567,1184.866
884,1.471117,1185.089
885,1.472783,1185.089
886,1.47445,1186.356
887,1.476117,1185.685
888,1.477783,1185.685
889,1.47945,1185.387
890,1.481117,1184.344
891,1.482783,1182.407
892,1.48445,1182.407
893,1.4861,1182.78
894,1.487767,1182.109
895,1.489433,1180.396
896,1.4911,1180.396
897,1.492767,1181.96
898,1.494433,1180.917
899,1.4961,1179.65
900,1.497767,1179.65
901,1.499433,1177.564
902,1.501117,1174.286
903,1.502767,1174.286
904,1.504433,1176.596
905,1.5061,1176.968
906,1.507767,1178.384
907,1.509433,1178.384
908,1.5111,1179.799
909,1.512767,1178.831
910,1.514433,1179.65
911,1.5161,1179.65
912,1.517767,1178.533
913,1.519433,1179.427
914,1.5211,1180.47
915,1.522767,1180.47
