"ID","sea_time","fid_signal"
1,0,1174.659
2,0.001633,1174.659
3,0.003333,1175.478
4,0.004967,1175.627
5,0.006633,1173.466
6,0.0083,1173.466
7,0.009967,1172.647
8,0.011633,1172.796
9,0.0133,1170.859
10,0.014983,1170.859
11,0.016633,1171.082
12,0.0183,1173.019
13,0.020017,1173.019
14,0.021633,1173.765
15,0.0233,1173.392
16,0.02495,1172.87
17,0.026617,1172.87
18,0.028283,1171.082
19,0.02995,1170.71
20,0.031617,1173.466
21,0.033283,1173.466
22,0.03495,1176.819
23,0.036717,1176.968
24,0.038283,1177.043
25,0.03995,1177.043
26,0.041617,1180.396
27,0.043283,1180.172
28,0.044933,1180.172
29,0.0466,1177.415
30,0.048267,1173.019
31,0.049933,1167.58
32,0.0516,1167.58
33,0.053267,1167.208
34,0.054933,1169.443
35,0.0566,1173.615
36,0.058267,1173.615
37,0.059933,1175.18
38,0.0616,1175.18
39,0.063267,1173.615
40,0.064933,1173.615
41,0.06660000000000001,1173.765
42,0.06826699999999999,1175.851
43,0.069933,1175.851
44,0.071617,1174.435
45,0.073267,1178.533
46,0.074933,1177.788
47,0.0766,1177.788
48,0.078267,1176.372
49,0.079933,1178.086
50,0.08160000000000001,1176.521
51,0.08326699999999999,1176.521
52,0.08493299999999999,1178.533
53,0.0866,1178.831
54,0.088267,1176.223
55,0.089933,1176.223
56,0.0916,1175.478
57,0.093267,1172.423
58,0.09495000000000001,1172.051
59,0.09660000000000001,1172.051
60,0.09826699999999999,1173.168
61,0.09993299999999999,1172.796
62,0.1016,1172.796
63,0.103267,1174.882
64,0.104917,1175.404
65,0.1066,1176.372
66,0.10825,1176.372
67,0.109917,1179.948
68,0.111583,1180.768
69,0.11325,1180.693
70,0.114917,1180.693
71,0.116583,1180.47
72,0.11825,1174.733
73,0.119917,1172.945
74,0.121617,1172.945
75,0.12325,1173.69
76,0.124917,1173.765
77,0.126583,1173.765
78,0.12825,1175.106
79,0.129917,1174.212
80,0.131583,1172.572
81,0.13325,1172.572
82,0.134917,1170.188
83,0.136583,1168.326
84,0.138317,1166.314
85,0.139917,1166.314
86,0.141583,1166.314
87,0.14325,1166.016
88,0.144917,1168.549
89,0.146583,1168.549
90,0.14825,1172.572
91,0.149917,1173.392
92,0.151583,1174.063
93,0.15325,1174.063
94,0.155033,1174.137
95,0.156583,1171.306
96,0.15825,1171.306
97,0.159917,1167.879
98,0.161583,1169.071
99,0.16325,1169.518
100,0.164917,1169.518
101,0.166583,1171.827
102,0.168233,1174.882
103,0.1699,1173.913
104,0.171567,1173.913
105,0.173233,1173.392
106,0.1749,1172.349
107,0.176567,1173.615
108,0.178233,1173.615
109,0.1799,1173.094
110,0.181567,1174.137
111,0.183233,1174.137
112,0.1849,1171.678
113,0.186567,1171.38
114,0.18825,1173.243
115,0.1899,1173.243
116,0.191567,1169.592
117,0.193233,1172.051
118,0.1949,1170.412
119,0.196567,1170.412
120,0.198233,1169.518
121,0.1999,1171.529
122,0.201567,1171.082
123,0.203233,1171.082
124,0.2049,1168.847
125,0.206567,1171.008
126,0.208233,1173.317
127,0.2099,1173.317
128,0.211567,1174.286
129,0.213233,1175.627
130,0.214917,1175.627
131,0.216567,1175.106
132,0.218233,1173.243
133,0.2199,1173.69
134,0.221567,1173.69
135,0.223233,1173.615
136,0.2249,1171.38
137,0.22655,1169.741
138,0.228217,1169.741
139,0.229883,1166.91
140,0.23155,1165.345
141,0.233217,1166.165
142,0.234883,1166.165
143,0.23655,1167.879
144,0.238217,1168.4
145,0.23995,1168.4
146,0.24155,1172.2
147,0.243217,1174.212
148,0.244883,1176.223
149,0.24655,1176.223
150,0.248217,1176.149
151,0.249883,1173.615
152,0.25155,1170.188
153,0.253217,1170.188
154,0.254883,1166.686
155,0.25655,1165.941
156,0.258217,1166.612
157,0.259883,1166.612
158,0.26155,1168.698
159,0.263217,1172.2
160,0.264883,1172.2
161,0.26655,1173.317
162,0.268217,1174.286
163,0.269883,1173.317
164,0.27155,1173.317
165,0.273267,1170.188
166,0.274883,1170.188
167,0.27655,1172.87
168,0.278217,1172.87
169,0.279883,1176.447
170,0.28155,1178.011
171,0.283217,1180.023
172,0.284867,1180.023
173,0.286533,1179.501
174,0.2882,1180.47
175,0.2899,1182.78
176,0.291533,1182.78
177,0.2932,1188.964
178,0.294867,1194.104
179,0.296533,1194.104
180,0.2982,1198.5
181,0.299867,1208.186
182,0.301533,1216.754
183,0.3032,1216.754
184,0.304867,1227.334
185,0.306533,1240.522
186,0.3082,1254.305
187,0.309867,1254.305
188,0.311533,1269.43
189,0.3132,1287.311
190,0.314867,1304.522
191,0.316517,1304.522
192,0.318183,1324.192
193,0.31985,1342.893
194,0.321517,1342.893
195,0.323183,1364.201
196,0.32485,1395.494
197,0.326517,1428.351
198,0.328183,1428.351
199,0.32985,1467.392
200,0.331517,1506.88
201,0.333183,1545.101
202,0.33485,1545.101
203,0.336517,1587.793
204,0.338183,1629.814
205,0.33985,1677.722
206,0.341517,1677.722
207,0.343183,1728.386
208,0.34485,1780.391
209,0.346533,1841.858
210,0.348167,1841.858
211,0.349833,1905.561
212,0.3515,1978.502
213,0.353183,1978.502
214,0.354883,2056.882
215,0.3565,2137.273
216,0.358167,2226.83
217,0.359833,2226.83
218,0.3615,2321.154
219,0.363167,2423.45
220,0.364833,2536.103
221,0.3665,2536.103
222,0.368167,2659.038
223,0.369833,2793.372
224,0.3715,2941.34
225,0.373167,2941.34
226,0.374833,3108.606
227,0.3765,3298.372
228,0.378167,3298.372
229,0.379833,3513.545
230,0.3815,3759.042
231,0.383167,4038.438
232,0.384833,4038.438
233,0.3865,4350.841
234,0.388167,4703.477
235,0.38985,5101.04
236,0.3916,5101.04
237,0.393167,5546.957
238,0.394833,6042.645
239,0.3965,6588.102
240,0.398167,6588.102
241,0.399833,7179.976
242,0.4015,7812.902
243,0.403167,7812.902
244,0.404833,8486.063
245,0.406483,9189.620999999999
246,0.40815,9924.322
247,0.409817,9924.322
248,0.411483,10674.67
249,0.41315,11434.63
250,0.414817,12192.949
251,0.416483,12192.949
252,0.41815,12930.78
253,0.419817,13642.162
254,0.421483,14306.381
255,0.42315,14306.381
256,0.424817,14913.529
257,0.426483,15448.183
258,0.42815,15894.249
259,0.429817,15894.249
260,0.431483,16245.916
261,0.43315,16493.871
262,0.434817,16493.871
263,0.436483,16635.135
264,0.43815,16671.344
265,0.439817,16599.895
266,0.441483,16599.895
267,0.44315,16423.018
268,0.444817,16149.357
269,0.446483,15783.831
270,0.44815,15783.831
271,0.449817,15338.511
272,0.451483,14831.722
273,0.45315,14267.563
274,0.454817,14267.563
275,0.456483,13665.408
276,0.45815,13035.908
277,0.459817,13035.908
278,0.461483,12384.504
279,0.46315,11725.873
280,0.464817,11059.27
281,0.466483,11059.27
282,0.468133,10396.764
283,0.4698,9744.093000000001
284,0.471467,9106.025
285,0.473133,9106.025
286,0.4748,8493.215
287,0.47655,7905.066
288,0.478133,7340.759
289,0.4798,7340.759
290,0.481467,6805.807
291,0.483133,6299.466
292,0.4848,5821.809
293,0.486467,5821.809
294,0.488133,5377.009
295,0.4898,4964.322
296,0.491483,4964.322
297,0.49315,4579.946
298,0.4948,4226.863
299,0.496467,3903.732
300,0.498133,3903.732
301,0.4998,3609.583
302,0.501467,3346.428
303,0.5031330000000001,3105.849
304,0.5048,3105.849
305,0.506467,2891.645
306,0.5081329999999999,2700.463
307,0.509917,2528.653
308,0.511467,2528.653
309,0.513133,2376.735
310,0.5148,2238.676
311,0.516467,2238.676
312,0.518133,2116.188
313,0.5198,2007.782
314,0.521467,1916.662
315,0.523133,1916.662
316,0.5248,1839.921
317,0.52645,1767.129
318,0.5281169999999999,1704.842
319,0.529783,1704.842
320,0.53145,1647.77
321,0.533117,1595.616
322,0.534783,1556.426
323,0.53645,1556.426
324,0.538117,1518.577
325,0.539783,1488.179
326,0.54145,1458.6
327,0.543117,1458.6
328,0.544783,1430.884
329,0.54645,1410.32
330,0.548117,1410.32
331,0.549783,1388.341
332,0.55145,1372.397
333,0.553117,1359.284
334,0.554783,1359.284
335,0.55645,1346.096
336,0.558117,1333.356
337,0.559783,1322.776
338,0.561467,1322.776
339,0.563117,1313.388
340,0.564783,1305.193
341,0.56645,1298.934
342,0.568117,1298.934
343,0.569783,1290.888
344,0.57145,1282.468
345,0.573117,1282.468
346,0.574783,1275.316
347,0.57645,1270.324
348,0.578117,1268.834
349,0.579783,1268.834
350,0.58145,1264.885
351,0.583117,1261.011
352,0.5847830000000001,1258.18
353,0.58645,1258.18
354,0.588117,1253.784
355,0.589767,1252.592
356,0.591433,1251.772
357,0.5931,1251.772
358,0.5948329999999999,1248.792
359,0.596433,1245.886
360,0.5981,1243.353
361,0.5997670000000001,1243.353
362,0.601433,1240.224
363,0.6031,1241.639
364,0.6047670000000001,1241.639
365,0.606417,1240.224
366,0.608083,1236.051
367,0.60975,1234.487
368,0.611417,1234.487
369,0.613083,1228.228
370,0.61475,1225.323
371,0.616417,1225.323
372,0.618083,1225.323
373,0.61975,1221.225
374,0.621417,1221.15
375,0.6230830000000001,1221.299
376,0.62475,1221.299
377,0.626417,1220.703
378,0.6282,1224.205
379,0.62975,1224.205
380,0.631417,1222.417
381,0.633083,1222.268
382,0.63475,1222.044
383,0.636417,1222.044
384,0.6381,1219.437
385,0.63975,1219.437
386,0.641417,1217.723
387,0.643083,1217.723
388,0.64475,1215.562
389,0.646417,1213.998
390,0.6480669999999999,1212.209
391,0.649733,1212.209
392,0.6514,1211.986
393,0.653067,1214.072
394,0.654733,1214.072
395,0.6564,1211.688
396,0.658067,1213.625
397,0.659733,1210.496
398,0.6614,1210.496
399,0.663067,1204.982
400,0.664733,1203.79
401,0.6664,1201.406
402,0.668067,1201.406
403,0.669733,1201.63
404,0.6714,1202.077
405,0.673067,1203.865
406,0.674733,1203.865
407,0.6764,1205.355
408,0.678067,1206.622
409,0.679733,1208.112
410,0.6814,1208.112
411,0.683067,1210.719
412,0.684733,1211.092
413,0.6864,1211.092
414,0.688067,1210.049
415,0.689733,1211.539
416,0.6914,1209.825
417,0.693067,1209.825
418,0.694733,1207.59
419,0.6964,1207.292
420,0.698067,1204.163
421,0.699733,1204.163
422,0.7014,1203.045
423,0.703067,1201.928
424,0.704767,1201.183
425,0.7064,1201.183
426,0.70805,1202.449
427,0.709717,1201.481
428,0.711383,1201.481
429,0.713067,1201.332
430,0.714717,1202.375
431,0.716383,1199.543
432,0.71805,1199.543
433,0.7197170000000001,1198.426
434,0.721383,1198.053
435,0.72305,1196.563
436,0.7247169999999999,1196.563
437,0.726383,1196.787
438,0.72805,1198.351
439,0.729817,1199.022
440,0.731383,1199.022
441,0.73305,1201.257
442,0.734717,1203.12
443,0.736383,1204.088
444,0.73805,1204.088
445,0.739717,1203.939
446,0.741383,1201.108
447,0.74305,1201.108
448,0.744717,1200.214
449,0.746467,1198.128
450,0.74805,1198.426
451,0.749717,1198.426
452,0.751383,1200.736
453,0.75305,1199.767
454,0.754717,1197.01
455,0.756383,1197.01
456,0.75805,1192.987
457,0.759717,1190.081
458,0.761383,1192.465
459,0.76315,1192.465
460,0.764717,1194.924
461,0.766367,1198.426
462,0.768033,1198.426
463,0.7697000000000001,1198.128
464,0.771367,1192.838
465,0.773033,1193.21
466,0.7747000000000001,1193.21
467,0.776367,1189.113
468,0.778033,1188.368
469,0.7796999999999999,1191.422
470,0.781367,1191.422
471,0.783033,1190.305
472,0.7847,1192.242
473,0.786367,1191.72
474,0.788033,1191.72
475,0.7897,1191.05
476,0.791367,1189.858
477,0.79305,1190.603
478,0.7947,1190.603
479,0.796367,1191.124
480,0.798033,1192.912
481,0.7997,1192.912
482,0.8013670000000001,1191.571
483,0.803033,1190.379
484,0.8047,1190.528
485,0.806383,1190.528
486,0.808033,1186.729
487,0.8097,1186.132
488,0.8113669999999999,1183.972
489,0.813033,1183.972
490,0.8147,1182.705
491,0.816367,1182.556
492,0.818033,1186.729
493,0.8197,1186.729
494,0.821367,1191.124
495,0.823033,1193.509
496,0.8247,1193.509
497,0.82635,1195.52
498,0.828017,1195.52
499,0.8296829999999999,1192.54
500,0.83135,1192.54
501,0.833017,1190.826
502,0.834683,1189.262
503,0.83635,1185.76
504,0.838017,1185.76
505,0.839683,1184.791
506,0.84135,1185.909
507,0.843017,1185.536
508,0.844683,1185.536
509,0.846383,1186.505
510,0.848133,1189.113
511,0.849683,1189.113
512,0.8513500000000001,1186.952
513,0.853017,1188.74
514,0.854683,1185.834
515,0.8563499999999999,1185.834
516,0.858017,1183.599
517,0.859683,1183.525
518,0.8613499999999999,1181.066
519,0.863017,1181.066
520,0.86475,1182.631
521,0.86635,1181.141
522,0.868017,1181.588
523,0.869683,1181.588
524,0.87135,1183.078
525,0.873017,1187.399
526,0.874683,1189.634
527,0.87635,1189.634
528,0.878017,1190.156
529,0.879683,1191.199
530,0.881367,1191.199
531,0.8830170000000001,1190.156
532,0.884683,1191.199
533,0.886333,1191.869
534,0.888,1191.869
535,0.889667,1190.603
536,0.891333,1190.826
537,0.893,1190.379
538,0.894667,1190.379
539,0.896333,1190.901
540,0.897983,1192.167
541,0.8996499999999999,1188.666
542,0.901317,1188.666
543,0.902983,1185.76
544,0.90465,1183.823
545,0.906317,1183.823
546,0.907983,1184.27
547,0.90965,1183.674
548,0.911317,1186.281
549,0.912983,1186.281
550,0.91465,1186.952
551,0.916317,1185.387
552,0.917983,1183.376
553,0.91965,1183.376
554,0.9213170000000001,1182.109
555,0.922983,1184.419
556,0.92465,1185.015
557,0.9263169999999999,1185.015
558,0.927983,1186.952
559,0.92965,1185.685
560,0.931317,1183.376
561,0.932983,1183.376
562,0.93465,1182.705
563,0.936317,1183.674
564,0.937983,1183.674
565,0.93965,1185.611
566,0.941317,1184.046
567,0.942983,1185.387
568,0.94465,1185.387
569,0.946317,1184.419
570,0.947967,1182.631
571,0.94965,1181.141
572,0.9513,1181.141
573,0.952967,1177.639
574,0.954633,1180.023
575,0.9563,1179.799
576,0.957967,1179.799
577,0.959633,1180.321
578,0.9613,1179.129
579,0.962967,1179.129
580,0.964633,1178.756
581,0.966367,1182.854
582,0.967983,1187.101
583,0.969633,1187.101
584,0.9713000000000001,1191.497
585,0.972967,1190.975
586,0.974633,1189.187
587,0.9762999999999999,1189.187
588,0.977967,1186.356
589,0.979633,1183.078
590,0.9813,1181.588
591,0.983017,1181.588
592,0.984633,1179.725
593,0.9863,1179.576
594,0.987967,1179.725
595,0.98965,1179.725
596,0.9913,1180.843
597,0.992967,1181.215
598,0.994633,1181.215
599,0.9963,1180.321
600,0.997967,1180.023
601,0.99975,1179.799
602,1.0013,1179.799
603,1.002967,1181.662
604,1.004633,1181.811
605,1.006283,1181.886
606,1.00795,1181.886
607,1.009617,1182.78
608,1.011283,1183.003
609,1.01295,1186.579
610,1.014617,1186.579
611,1.016283,1186.952
612,1.01795,1185.313
613,1.019617,1185.313
614,1.021283,1182.78
615,1.02295,1179.427
