"ID","sea_time","fid_signal"
1,0,139.758
2,0.001667,139.87
3,0.003317,139.989
4,0.004983,139.989
5,0.00665,140.391
6,0.008317,140.168
7,0.01,139.885
8,0.01165,139.885
9,0.013317,139.765
10,0.014983,139.803
11,0.01665,139.974
12,0.018317,139.974
13,0.019983,140.004
14,0.02165,140.22
15,0.023317,140.339
16,0.024983,140.339
17,0.02665,140.57
18,0.028317,140.496
19,0.029983,140.578
20,0.03165,140.578
21,0.033317,140.406
22,0.034983,140.57
23,0.03665,140.57
24,0.0383,140.838
25,0.039967,140.846
26,0.041633,140.674
27,0.043367,140.674
28,0.044967,140.414
29,0.046633,140.719
30,0.0483,140.801
31,0.049967,140.801
32,0.051633,140.607
33,0.0533,140.429
34,0.054967,139.892
35,0.056633,139.892
36,0.0583,139.534
37,0.059983,140.019
38,0.061633,140.019
39,0.0633,140.309
40,0.064967,140.607
41,0.066633,140.838
42,0.0683,140.838
43,0.069967,140.741
44,0.071633,140.563
45,0.0733,140.361
46,0.07496700000000001,140.361
47,0.07675,140.6
48,0.07829999999999999,140.831
49,0.079967,141.256
50,0.081633,141.256
51,0.0833,141.293
52,0.084967,141.01
53,0.086633,140.704
54,0.08831700000000001,140.704
55,0.08996700000000001,140.309
56,0.09163300000000001,140.339
57,0.09329999999999999,140.339
58,0.094967,140.458
59,0.096633,140.414
60,0.0983,140.473
61,0.09995,140.473
62,0.101617,140.57
63,0.103283,140.809
64,0.10495,140.764
65,0.106617,140.764
66,0.108283,140.756
67,0.10995,140.719
68,0.111617,140.451
69,0.113283,140.451
70,0.11495,140.838
71,0.116617,140.779
72,0.118283,140.779
73,0.11995,140.831
74,0.121617,140.764
75,0.123283,140.563
76,0.12495,140.563
77,0.126617,140.697
78,0.128283,140.674
79,0.12995,140.809
80,0.131617,140.809
81,0.133283,140.913
82,0.13495,140.89
83,0.136617,141.054
84,0.138283,141.054
85,0.13995,141.002
86,0.141617,140.928
87,0.143283,140.987
88,0.14495,140.987
89,0.146617,140.727
90,0.148283,140.779
91,0.14995,140.779
92,0.151617,140.861
93,0.153283,140.756
94,0.15495,140.734
95,0.156633,140.734
96,0.158283,140.674
97,0.159933,140.578
98,0.1616,140.51
99,0.163267,140.51
100,0.164933,140.443
101,0.1666,140.399
102,0.168267,140.376
103,0.169933,140.376
104,0.1716,140.652
105,0.173267,140.771
106,0.174933,140.771
107,0.1766,140.652
108,0.178267,140.749
109,0.179933,140.496
110,0.1816,140.496
111,0.183283,140.503
112,0.184933,140.667
113,0.1866,140.645
114,0.188267,140.645
115,0.189933,140.913
116,0.1916,141.189
117,0.193267,140.905
118,0.19505,140.905
119,0.1966,140.607
120,0.198267,140.473
121,0.199933,140.324
122,0.2016,140.324
123,0.203267,140.294
124,0.204933,140.54
125,0.2066,140.54
126,0.208267,140.443
127,0.209933,140.265
128,0.2116,140.704
129,0.213267,140.704
130,0.214933,140.63
131,0.2166,140.876
132,0.21825,140.987
133,0.219917,140.987
134,0.221583,140.697
135,0.22325,140.6
136,0.224917,140.347
137,0.226583,140.347
138,0.22825,140.399
139,0.229917,140.57
140,0.231583,140.57
141,0.23325,140.712
142,0.234917,140.794
143,0.236583,140.786
144,0.23825,140.786
145,0.239917,140.958
146,0.241583,140.965
147,0.24325,140.943
148,0.244917,140.943
149,0.246583,141.01
150,0.24825,140.898
151,0.249917,140.898
152,0.251583,140.898
153,0.25325,140.592
154,0.254917,140.294
155,0.256583,140.294
156,0.25825,140.138
157,0.259917,140.28
158,0.261583,140.347
159,0.26325,140.347
160,0.264917,140.414
161,0.266583,140.473
162,0.26825,140.22
163,0.269917,140.22
164,0.271583,140.451
165,0.27325,140.302
166,0.274917,140.518
167,0.276567,140.518
168,0.278233,140.898
169,0.279917,141.002
170,0.281567,141.338
171,0.283233,141.338
172,0.2849,141.181
173,0.286567,140.697
174,0.288233,140.697
175,0.2899,140.51
176,0.291567,140.324
177,0.293233,140.183
178,0.294883,140.183
179,0.2966,140.518
180,0.298217,140.66
181,0.299883,140.741
182,0.301567,140.741
183,0.303217,140.496
184,0.304883,140.16
185,0.30655,139.9
186,0.308217,139.9
187,0.309883,139.721
188,0.31155,140.056
189,0.313317,140.212
190,0.314883,140.212
191,0.31655,140.25
192,0.318217,140.51
193,0.319883,140.51
194,0.32155,140.704
195,0.323217,140.741
196,0.324883,140.92
197,0.32655,140.92
198,0.328217,140.652
199,0.329883,140.332
200,0.33155,140.317
201,0.333217,140.317
202,0.334883,140.384
203,0.33655,140.578
204,0.3382,140.622
205,0.339867,140.622
206,0.341533,140.853
207,0.3432,140.876
208,0.344867,140.876
209,0.346533,141.226
210,0.3482,141.293
211,0.349867,140.98
212,0.351533,140.98
213,0.3532,141.151
214,0.354867,140.913
215,0.356533,141.114
216,0.358217,141.114
217,0.359867,141.442
218,0.361533,141.27
219,0.3632,141.524
220,0.364867,141.524
221,0.366533,141.799
222,0.3682,142.381
223,0.369867,142.381
224,0.37155,143.252
225,0.3732,143.975
226,0.374867,145.085
227,0.376533,145.085
228,0.378233,145.942
229,0.379867,147.209
230,0.381533,149.243
231,0.3832,149.243
232,0.384867,151.254
233,0.386533,154.234
234,0.3882,157.52
235,0.389867,157.52
236,0.391533,161.074
237,0.3932,165.805
238,0.394867,165.805
239,0.396533,170.991
240,0.398267,177.16
241,0.39985,184.402
242,0.401517,184.402
243,0.403183,192.694
244,0.40485,202.224
245,0.406517,213.027
246,0.408183,213.027
247,0.40985,225.06
248,0.411517,238.121
249,0.413183,252.21
250,0.41485,252.21
251,0.416517,267.729
252,0.418183,284.351
253,0.41985,302.218
254,0.421517,302.218
255,0.423183,321.902
256,0.42485,342.362
257,0.426517,342.362
258,0.428183,364.207
259,0.42985,387.758
260,0.4316,412.479
261,0.433183,412.479
262,0.43485,438.549
263,0.436517,466.056
264,0.438183,494.502
265,0.43985,494.502
266,0.441517,524.26
267,0.443183,555.567
268,0.44485,587.896
269,0.446517,587.896
270,0.448183,621.773
271,0.44985,657.193
272,0.451517,657.193
273,0.453183,694.774
274,0.45485,735.216
275,0.456517,778.444
276,0.458183,778.444
277,0.459833,825.83
278,0.4615,878.155
279,0.463167,936.963
280,0.464833,936.963
281,0.4665,1004.1
282,0.468167,1081.578
283,0.469833,1172.297
284,0.4715,1172.297
285,0.473167,1279.466
286,0.474833,1406.26
287,0.4765,1556.605
288,0.478167,1556.605
289,0.479833,1734.063
290,0.4815,1941.606
291,0.483167,1941.606
292,0.484833,2183.609
293,0.4865,2462.104
294,0.488167,2780.035
295,0.489833,2780.035
296,0.4915,3139.339
297,0.493167,3540.188
298,0.494833,3983.401
299,0.4965,3983.401
300,0.498167,4467.428
301,0.499833,4990.906
302,0.5014999999999999,5551.167
303,0.503167,5551.167
304,0.504833,6145.165
305,0.5065,6769.888
306,0.508167,6769.888
307,0.509833,7421.233
308,0.5115,8096.248
309,0.513167,8790.18
310,0.51485,8790.18
311,0.516583,9498.313
312,0.51815,10215.662
313,0.519817,10937.154
314,0.521483,10937.154
315,0.52315,11657.223
316,0.524817,12370.035
317,0.526483,13069.786
318,0.52815,13069.786
319,0.529817,13749.331
320,0.531483,14402.024
321,0.53325,15019.834
322,0.534817,15019.834
323,0.536483,15594.684
324,0.53815,16117.35
325,0.539817,16117.35
326,0.541483,16576.924
327,0.54315,16963.02
328,0.544817,17263.322
329,0.5464830000000001,17263.322
330,0.54815,17465.576
331,0.549917,17558.455
332,0.5514829999999999,17531.262
333,0.55315,17531.262
334,0.554817,17375.781
335,0.5564829999999999,17086.789
336,0.55815,16663.447
337,0.559817,16663.447
338,0.561483,16111.262
339,0.56315,15441.753
340,0.564817,15441.753
341,0.566483,14672.07
342,0.56815,13825.044
343,0.569817,12924.209
344,0.571483,12924.209
345,0.57315,11994.504
346,0.574817,11059.798
347,0.576483,10140.441
348,0.5781500000000001,10140.441
349,0.5798,9253.912
350,0.581467,8412.897000000001
351,0.583133,7626.615
352,0.5847830000000001,7626.615
353,0.58645,6899.826
354,0.588133,6234.616
355,0.589817,5630.434
356,0.59145,5630.434
357,0.593117,5084.88
358,0.594783,4594.43
359,0.59645,4594.43
360,0.598117,4154.503
361,0.599783,3761.262
362,0.60145,3410.101
363,0.603117,3410.101
364,0.604783,3096.625
365,0.60645,2817.05
366,0.608117,2567.492
367,0.609783,2567.492
368,0.61145,2344.407
369,0.613117,2145.089
370,0.614783,1966.931
371,0.6164500000000001,1966.931
372,0.618117,1807.265
373,0.619783,1664.005
374,0.6214499999999999,1664.005
375,0.623117,1535.483
376,0.624783,1420.088
377,0.62645,1315.951
378,0.628117,1315.951
379,0.629783,1221.769
380,0.63145,1136.78
381,0.633117,1059.569
382,0.6348,1059.569
383,0.63645,989.772
384,0.6381,927.016
385,0.639767,869.744
386,0.641433,869.744
387,0.6431,817.753
388,0.644767,770.405
389,0.646433,770.405
390,0.6481,726.946
391,0.649767,687.458
392,0.651483,651.397
393,0.6531,651.397
394,0.654783,618.361
395,0.656433,588.015
396,0.6581,560.12
397,0.659767,560.12
398,0.661433,534.765
399,0.6631,511.229
400,0.664767,489.622
401,0.6664330000000001,489.622
402,0.6682169999999999,469.647
403,0.669767,451.289
404,0.6714329999999999,434.637
405,0.6731,434.637
406,0.674767,419.185
407,0.676433,404.805
408,0.6781,404.805
409,0.679767,391.17
410,0.681433,378.661
411,0.6831,367.358
412,0.684883,367.358
413,0.686433,357.002
414,0.6881,346.951
415,0.689767,337.757
416,0.691433,337.757
417,0.6931,328.98
418,0.694767,320.792
419,0.696433,313.684
420,0.698083,313.684
421,0.69975,306.942
422,0.701417,300.787
423,0.703083,300.787
424,0.70475,294.641
425,0.706417,289.09
426,0.708083,283.897
427,0.70975,283.897
428,0.711417,278.972
429,0.713083,274.293
430,0.71475,269.562
431,0.716417,269.562
432,0.718083,265.025
433,0.71975,260.845
434,0.721417,257.358
435,0.723083,257.358
436,0.72475,253.856
437,0.72645,250.526
438,0.728083,247.322
439,0.72975,247.322
440,0.731417,244.58
441,0.733083,241.987
442,0.73475,241.987
443,0.736417,239.268
444,0.738083,236.586
445,0.73975,233.583
446,0.741417,233.583
447,0.743083,230.789
448,0.74475,228.457
449,0.746417,226.125
450,0.7480830000000001,226.125
451,0.74975,223.964
452,0.751417,221.863
453,0.7531330000000001,219.733
454,0.75475,219.733
455,0.756417,217.803
456,0.758067,215.843
457,0.759733,215.843
458,0.761417,214.115
459,0.7630670000000001,212.386
460,0.764733,210.769
461,0.7664,210.769
462,0.7680670000000001,209.391
463,0.769767,207.834
464,0.7714,206.314
465,0.7730669999999999,206.314
466,0.774733,204.615
467,0.7764,202.82
468,0.778067,201.464
469,0.779733,201.464
470,0.7814,200.436
471,0.783067,199.34
472,0.784733,198.275
473,0.786467,198.275
474,0.788067,197.284
475,0.789733,195.824
476,0.7914,195.824
477,0.793067,194.766
478,0.794733,193.626
479,0.7964,192.165
480,0.798067,192.165
481,0.799733,191.323
482,0.8014,190.02
483,0.8032,189.126
484,0.80475,189.126
485,0.8064,188.529
486,0.808067,187.695
487,0.809733,187.054
488,0.8114,187.054
489,0.813067,186.451
490,0.814733,185.519
491,0.8164,185.519
492,0.8180500000000001,184.663
493,0.819717,183.895
494,0.821383,183.18
495,0.8230499999999999,183.18
496,0.824717,182.316
497,0.826383,181.302
498,0.82805,180.714
499,0.829717,180.714
500,0.831383,179.812
501,0.83305,179.142
502,0.834717,178.426
503,0.836383,178.426
504,0.83805,177.599
505,0.839717,176.81
506,0.841383,176.81
507,0.84305,176.139
508,0.8447170000000001,175.901
509,0.846383,175.409
510,0.84805,175.409
511,0.8497169999999999,174.917
512,0.851383,174.701
513,0.85305,174.098
514,0.8547169999999999,174.098
515,0.856383,173.703
516,0.85805,173.07
517,0.859717,172.116
518,0.861383,172.116
519,0.86305,171.557
520,0.864717,170.715
521,0.866383,170.641
522,0.86805,170.641
523,0.869717,170.454
524,0.871383,169.978
525,0.87305,169.978
526,0.874717,169.955
527,0.876367,169.583
528,0.878017,169.322
529,0.879683,169.322
530,0.88135,169.061
531,0.8830170000000001,168.532
532,0.884683,167.988
533,0.88635,167.988
534,0.88805,167.519
535,0.889683,166.975
536,0.89135,166.319
537,0.8930169999999999,166.319
538,0.894683,165.932
539,0.89635,165.723
540,0.898017,165.723
541,0.899683,165.634
542,0.90135,165.582
543,0.903017,165.142
544,0.904717,165.142
545,0.90635,164.583
546,0.908017,164.136
547,0.909683,164.032
548,0.91135,164.032
549,0.913017,164.106
550,0.914683,164.226
551,0.91635,164.002
552,0.918017,164.002
553,0.919683,163.898
554,0.92145,163.339
555,0.923017,163.078
556,0.924683,163.078
557,0.92635,162.914
558,0.928017,162.609
559,0.929683,162.609
560,0.93135,162.497
561,0.933017,162.147
562,0.934683,161.834
563,0.93635,161.834
564,0.9379999999999999,161.186
565,0.939667,160.873
566,0.941333,160.612
567,0.9429999999999999,160.612
568,0.944667,160.657
569,0.94635,160.679
570,0.9480499999999999,160.322
571,0.949667,160.322
572,0.951333,160.031
573,0.953,159.763
574,0.954667,159.763
575,0.956333,159.562
576,0.958,159.487
577,0.959667,159.241
578,0.961333,159.241
579,0.963,158.913
580,0.9646670000000001,158.697
581,0.966333,158.772
582,0.968,158.772
583,0.9696669999999999,158.69
584,0.971333,158.623
585,0.973,158.37
586,0.974667,158.37
587,0.976333,158.191
588,0.978,158.034
589,0.979667,157.677
590,0.981333,157.677
591,0.983,157.706
592,0.984667,157.721
593,0.986333,157.721
594,0.988,157.654
595,0.989667,157.438
596,0.991333,157.088
597,0.993,157.088
598,0.994667,156.76
599,0.996333,156.648
600,0.998,156.544
601,0.99965,156.544
602,1.001317,156.477
603,1.002983,156.216
604,1.00465,155.948
605,1.006383,155.948
606,1.007983,155.903
607,1.00965,155.613
608,1.011317,155.613
609,1.013017,155.292
610,1.01465,155.054
611,1.016317,154.823
612,1.017983,154.823
613,1.01965,154.674
614,1.021317,154.778
615,1.022983,154.749
616,1.02465,154.749
617,1.026317,154.629
618,1.027983,154.719
619,1.02965,154.555
620,1.031317,154.555
621,1.032983,154.227
622,1.03465,153.922
623,1.036317,153.922
624,1.037983,153.854
625,1.039767,153.638
626,1.041317,153.72
627,1.042983,153.72
628,1.04465,153.974
629,1.046317,153.81
630,1.047983,153.974
631,1.04965,153.974
632,1.051317,153.951
633,1.052983,153.683
634,1.05465,153.452
635,1.0563,153.452
636,1.057967,153.348
637,1.059633,153.482
638,1.0613,153.594
639,1.062967,153.594
640,1.064633,153.787
641,1.0663,153.862
642,1.067967,153.862
643,1.069633,153.489
644,1.0713,153.214
645,1.072967,152.893
646,1.074633,152.893
647,1.0763,152.804
648,1.077967,152.647
649,1.079633,152.618
650,1.0813,152.618
651,1.082967,152.335
652,1.084633,151.865
653,1.0863,151.873
654,1.087967,151.873
655,1.089633,151.709
656,1.0913,151.582
657,1.092967,151.582
658,1.094633,151.716
659,1.0963,151.597
660,1.097967,151.545
661,1.099633,151.545
662,1.101317,151.716
663,1.102967,151.545
664,1.104633,151.336
665,1.1063,151.336
666,1.107967,151.448
667,1.109633,151.157
668,1.1113,151.105
669,1.112967,151.105
670,1.114633,151.016
671,1.1163,150.733
672,1.11795,150.666
673,1.119617,150.666
674,1.121283,150.472
675,1.12295,150.464
676,1.1247,150.464
677,1.126283,150.204
678,1.12795,150.368
679,1.129617,150.368
680,1.131283,150.368
681,1.13295,150.524
682,1.134617,150.695
683,1.136283,150.45
684,1.13795,150.45
685,1.139617,150.39
686,1.141283,150.308
687,1.14295,150.397
688,1.144617,150.397
689,1.146283,150.621
690,1.14795,150.338
691,1.149617,150.338
692,1.151283,150.345
693,1.15295,150.353
694,1.154617,150.286
695,1.156283,150.286
696,1.15805,150.383
697,1.159617,150.159
698,1.161283,149.988
699,1.16295,149.988
700,1.164617,149.883
701,1.166283,149.839
702,1.167933,149.854
703,1.1696,149.854
704,1.171267,149.705
705,1.172933,149.496
706,1.1746,149.496
707,1.176267,149.257
708,1.177917,148.922
709,1.179583,148.989
710,1.18125,148.989
711,1.182917,149.272
712,1.184583,149.481
713,1.18625,149.526
714,1.187917,149.526
715,1.189583,149.28
716,1.19125,148.825
717,1.192933,148.401
718,1.194583,148.401
719,1.19625,148.341
720,1.197917,148.408
721,1.199583,148.647
722,1.20125,148.647
723,1.202917,148.885
724,1.204583,149.027
725,1.20625,149.027
726,1.207917,148.945
727,1.209583,148.743
728,1.21125,148.728
729,1.212917,148.728
730,1.214583,148.594
731,1.21625,148.609
732,1.217917,148.922
733,1.219583,148.922
734,1.22125,148.833
735,1.222917,148.758
736,1.224583,148.647
737,1.22625,148.647
738,1.227917,148.244
739,1.229583,148.207
740,1.23125,148.207
741,1.232917,148.162
742,1.234583,147.909
743,1.236233,147.969
744,1.237917,147.969
745,1.239567,148.17
746,1.241233,148.289
747,1.242967,148.378
748,1.244567,148.378
749,1.246233,148.207
750,1.2479,148.237
751,1.249567,148.289
752,1.251233,148.289
753,1.2529,148.453
754,1.254567,148.445
755,1.256233,148.021
756,1.2579,148.021
757,1.259567,147.916
758,1.261233,147.775
759,1.2629,147.775
760,1.264567,147.7
761,1.266233,147.849
762,1.2679,147.723
763,1.269567,147.723
764,1.271233,147.685
765,1.2729,147.693
766,1.274567,147.678
767,1.276317,147.678
768,1.277917,147.723
769,1.279567,147.611
770,1.281233,147.752
771,1.2829,147.752
772,1.284567,147.536
773,1.286233,147.656
774,1.2879,147.656
775,1.289567,148.013
776,1.291233,147.775
777,1.2929,147.663
778,1.294567,147.663
779,1.296233,147.104
780,1.297883,146.747
781,1.299567,146.814
782,1.30125,146.814
783,1.302883,146.94
784,1.30455,147.074
785,1.306217,146.97
786,1.307883,146.97
787,1.30955,146.672
788,1.311217,146.605
789,1.312883,146.598
790,1.31455,146.598
791,1.316217,146.508
792,1.317883,146.873
793,1.31955,146.873
794,1.321217,147.164
795,1.322883,147.305
796,1.32455,147.462
797,1.326217,147.462
798,1.327883,147.514
799,1.32955,147.142
800,1.331217,147.067
801,1.332883,147.067
802,1.33455,146.903
803,1.336217,146.776
804,1.337883,146.843
805,1.33955,146.843
806,1.341217,146.747
807,1.342883,146.739
808,1.34455,146.739
809,1.346217,146.65
810,1.347883,146.456
811,1.34955,146.471
812,1.351217,146.471
813,1.352883,146.464
814,1.35455,146.508
815,1.356217,146.605
816,1.357867,146.605
817,1.359533,146.59
818,1.3613,146.434
819,1.362867,146.016
820,1.364533,146.016
821,1.3662,145.763
822,1.367883,145.569
823,1.369533,145.629
824,1.3712,145.629
825,1.372867,145.867
826,1.374533,146.285
827,1.3762,146.285
828,1.37795,146.404
829,1.379533,146.277
830,1.3812,146.136
831,1.382867,146.136
832,1.384533,145.838
833,1.3862,145.994
834,1.387867,146.225
835,1.389533,146.225
836,1.3912,146.419
837,1.392883,146.873
838,1.394633,146.903
839,1.3962,146.903
840,1.397867,146.65
841,1.399533,146.523
842,1.4012,146.523
843,1.402867,145.957
844,1.404533,145.711
845,1.4062,145.696
846,1.407867,145.696
847,1.409533,145.778
848,1.4112,145.83
849,1.412867,145.726
850,1.414533,145.726
851,1.4162,145.674
852,1.41785,145.428
853,1.419517,145.48
854,1.421183,145.48
855,1.42285,145.704
856,1.424517,145.756
857,1.426183,145.756
858,1.42785,145.815
859,1.429517,146.069
860,1.431183,145.733
861,1.43285,145.733
862,1.434517,145.718
863,1.436183,145.718
864,1.437867,145.286
865,1.439533,145.286
866,1.441183,145.458
867,1.44285,145.644
868,1.444517,145.86
869,1.446183,145.86
870,1.44785,145.994
871,1.449517,145.935
872,1.451183,145.748
873,1.45285,145.748
874,1.454517,145.219
875,1.456183,145.1
876,1.45785,145.1
877,1.4595,145.16
878,1.461167,145.122
879,1.462833,145.413
880,1.4645,145.413
881,1.466167,145.398
882,1.467833,145.197
883,1.4695,145.189
884,1.471167,145.189
885,1.472833,145.078
886,1.4745,144.862
887,1.476167,144.742
888,1.477817,144.742
889,1.479533,144.534
890,1.48115,144.437
891,1.482817,144.437
892,1.484483,144.586
893,1.48615,144.929
894,1.487817,145.376
895,1.489483,145.376
896,1.49115,145.324
897,1.492817,145.338
898,1.494483,145.219
899,1.49615,145.219
900,1.497817,144.877
901,1.499483,145.07
902,1.50115,145.055
903,1.502817,145.055
904,1.504483,145.003
905,1.50615,145.16
906,1.507817,145.115
907,1.5095,145.115
908,1.51115,145.055
909,1.512867,145.055
910,1.514483,145.055
911,1.51615,145.003
912,1.517817,144.877
913,1.519483,145.063
914,1.52115,145.063
915,1.522817,144.958
916,1.524483,144.839
917,1.52615,144.854
918,1.527817,144.854
919,1.529583,145.011
920,1.53115,144.817
921,1.532817,144.899
922,1.534483,144.899
923,1.53615,145.182
924,1.537817,144.757
925,1.539467,144.757
926,1.541133,144.891
927,1.5428,144.973
928,1.544467,144.795
929,1.546133,144.795
930,1.5478,145.078
931,1.549467,145.078
932,1.551133,144.847
933,1.5528,144.847
934,1.554467,144.884
935,1.556133,144.415
936,1.5578,144.169
937,1.559467,144.169
938,1.561133,144.131
939,1.5628,144.064
940,1.564467,144.549
941,1.566133,144.549
942,1.567817,144.802
943,1.569467,144.966
944,1.571133,144.966
945,1.5728,145.033
946,1.574467,144.854
947,1.57615,144.765
948,1.5778,144.765
949,1.579467,144.37
950,1.581133,144.012
951,1.5828,144.079
952,1.584467,144.079
953,1.586133,144.102
954,1.587817,144.4
955,1.589467,144.601
956,1.591133,144.601
957,1.5928,144.631
958,1.594467,144.824
959,1.596117,144.824
