"ID","sea_time","fid_signal"
1,0,1186.207
2,0.001667,1191.944
3,0.003333,1194.85
4,0.005,1194.85
5,0.006667,1194.552
6,0.008333,1190.528
7,0.01,1181.811
8,0.011667,1181.811
9,0.013333,1175.553
10,0.015117,1175.18
11,0.01665,1176.149
12,0.018317,1176.149
13,0.019983,1180.321
14,0.02165,1185.387
15,0.023317,1185.387
16,0.024983,1186.207
17,0.02665,1189.858
18,0.028317,1188.517
19,0.029983,1188.517
20,0.03165,1186.281
21,0.033317,1185.015
22,0.034983,1184.642
23,0.03665,1184.642
24,0.038317,1186.654
25,0.039983,1187.623
26,0.04165,1190.901
27,0.043317,1190.901
28,0.044983,1190.305
29,0.04665,1190.379
30,0.048317,1190.752
31,0.049983,1190.752
32,0.05165,1187.623
33,0.053317,1185.611
34,0.054983,1185.611
35,0.056667,1186.803
36,0.058317,1185.164
37,0.059983,1185.164
38,0.06165,1185.164
39,0.063317,1185.387
40,0.064983,1183.227
41,0.06665,1184.046
42,0.068317,1184.046
43,0.069983,1183.823
44,0.07165000000000001,1185.611
45,0.07331699999999999,1187.25
46,0.07498299999999999,1187.25
47,0.07663300000000001,1188.07
48,0.07829999999999999,1189.485
49,0.079967,1189.485
50,0.081633,1187.176
51,0.0833,1184.121
52,0.084967,1185.834
53,0.086633,1185.834
54,0.0883,1187.548
55,0.08996700000000001,1187.25
56,0.09163300000000001,1188.219
57,0.09329999999999999,1188.219
58,0.094967,1186.579
59,0.096633,1183.972
60,0.0983,1184.94
61,0.099983,1184.94
62,0.101633,1185.164
63,0.1033,1183.748
64,0.104967,1183.227
65,0.106633,1183.227
66,0.1083,1182.78
67,0.109967,1184.344
68,0.111633,1184.344
69,0.1133,1185.462
70,0.114967,1185.089
71,0.116633,1185.611
72,0.1183,1185.611
73,0.119967,1184.791
74,0.121633,1183.823
75,0.1233,1182.854
76,0.124967,1182.854
77,0.126633,1183.897
78,0.1283,1181.364
79,0.129967,1182.78
80,0.131633,1182.78
81,0.133433,1186.729
82,0.13495,1185.536
83,0.136617,1185.536
84,0.138283,1189.485
85,0.13995,1188.368
86,0.141617,1184.493
87,0.143283,1184.493
88,0.14495,1183.003
89,0.146617,1181.215
90,0.148283,1184.791
91,0.14995,1184.791
92,0.151633,1190.007
93,0.153283,1190.901
94,0.15495,1192.316
95,0.156617,1192.316
96,0.158283,1189.783
97,0.15995,1186.132
98,0.161617,1187.921
99,0.163283,1187.921
100,0.16495,1188.144
101,0.166617,1190.23
102,0.168283,1190.23
103,0.16995,1189.336
104,0.171617,1186.207
105,0.173283,1184.642
106,0.17495,1184.642
107,0.176617,1184.866
108,0.178283,1188.368
109,0.17995,1191.422
110,0.181617,1191.422
111,0.183283,1190.677
112,0.18495,1187.697
113,0.186617,1184.568
114,0.188283,1184.568
115,0.18995,1182.78
116,0.191617,1181.066
117,0.193267,1181.066
118,0.19495,1179.129
119,0.1966,1178.682
120,0.1983,1182.035
121,0.199933,1182.035
122,0.2016,1185.536
123,0.203267,1190.603
124,0.204933,1190.23
125,0.2066,1190.23
126,0.208267,1186.803
127,0.209933,1185.834
128,0.2116,1182.333
129,0.213267,1182.333
130,0.214933,1180.172
131,0.2166,1179.725
132,0.218267,1179.725
133,0.219933,1178.458
134,0.2216,1181.439
135,0.223267,1184.344
136,0.224917,1184.344
137,0.226583,1186.729
138,0.22825,1189.485
139,0.229917,1185.76
140,0.231583,1185.76
141,0.23325,1188.591
142,0.235017,1188.293
143,0.236583,1181.96
144,0.23825,1181.96
145,0.239917,1182.109
146,0.241583,1178.831
147,0.24325,1177.713
148,0.244917,1177.713
149,0.246583,1179.725
150,0.24825,1180.172
151,0.249917,1180.172
152,0.251683,1184.121
153,0.253233,1185.909
154,0.2549,1186.356
155,0.256567,1186.356
156,0.258233,1185.313
157,0.2599,1183.525
158,0.261567,1183.972
159,0.263233,1183.972
160,0.2649,1188.74
161,0.266567,1189.262
162,0.26835,1188.293
163,0.2699,1188.293
164,0.271567,1185.387
165,0.273233,1179.203
166,0.2749,1179.203
167,0.276567,1179.799
168,0.278233,1180.396
169,0.2799,1181.588
170,0.281567,1181.588
171,0.283233,1185.238
172,0.2849,1189.56
173,0.286567,1192.242
174,0.288233,1192.242
175,0.2899,1197.383
176,0.291567,1202.151
177,0.293233,1207.516
178,0.2949,1207.516
179,0.296567,1213.7
180,0.298233,1219.958
181,0.2999,1228.526
182,0.301567,1228.526
183,0.303233,1237.914
184,0.3049,1251.623
185,0.306567,1251.623
186,0.308233,1266.226
187,0.3099,1283.363
188,0.311567,1302.808
189,0.313217,1302.808
190,0.314883,1323.149
191,0.31655,1344.085
192,0.318217,1369.864
193,0.319883,1369.864
194,0.32155,1396.611
195,0.323217,1427.978
196,0.324883,1466.572
197,0.326567,1466.572
198,0.328217,1503.229
199,0.329883,1541.674
200,0.33155,1541.674
201,0.33325,1581.907
202,0.334883,1627.728
203,0.33655,1678.318
204,0.338217,1678.318
205,0.339883,1736.581
206,0.34155,1796.26
207,0.343217,1859.665
208,0.344883,1859.665
209,0.346567,1927.912
210,0.348217,1998.022
211,0.349883,2074.689
212,0.35155,2074.689
213,0.353283,2158.135
214,0.354883,2247.17
215,0.35655,2346.337
216,0.358217,2346.337
217,0.359883,2454.072
218,0.36155,2571.642
219,0.363217,2571.642
220,0.364883,2705.231
221,0.36655,2853.87
222,0.368217,3027.171
223,0.369967,3027.171
224,0.37155,3230.721
225,0.373217,3471.598
226,0.374867,3756.359
227,0.376533,3756.359
228,0.3782,4099.384
229,0.379867,4507.899
230,0.381533,4999.936
231,0.3832,4999.936
232,0.384867,5593.002
233,0.386617,6299.168
234,0.3882,6299.168
235,0.389867,7127.375
236,0.391533,8098.93
237,0.3932,9224.713
238,0.394867,9224.713
239,0.396533,10517.537
240,0.3982,12000.874
241,0.399867,13680.979
242,0.401533,13680.979
243,0.4032,15580.207
244,0.404867,17714.352
245,0.406533,20082.816
246,0.408233,20082.816
247,0.409867,22681.057
248,0.411533,25478.303
249,0.4132,25478.303
250,0.414867,28426.275
251,0.416533,31474.232
252,0.4182,34553.781
253,0.419867,34553.781
254,0.421533,37589.816
255,0.4232,40507.613
256,0.424867,43226.332
257,0.426533,43226.332
258,0.4282,45671.387
259,0.429867,47782.137
260,0.431533,49506.723
261,0.433233,49506.723
262,0.43485,50812.141
263,0.436517,51675.141
264,0.438183,52088.648
265,0.43985,52088.648
266,0.441517,52046.926
267,0.443183,51565.469
268,0.44485,51565.469
269,0.446517,50673.113
270,0.448183,49396.977
271,0.44985,47791.676
272,0.451517,47791.676
273,0.453183,45899.152
274,0.45485,43768.957
275,0.456517,41456.668
276,0.458183,41456.668
277,0.45985,39014.07
278,0.461517,36497.637
279,0.463183,33953.039
280,0.46485,33953.039
281,0.466517,31432.584
282,0.468183,28975.68
283,0.46985,28975.68
284,0.471533,26611.537
285,0.473183,24370.328
286,0.47485,22259.877
287,0.476517,22259.877
288,0.478183,20295.902
289,0.479867,18480.793
290,0.481517,16815.365
291,0.483183,16815.365
292,0.48485,15296.936
293,0.486517,13908.595
294,0.488183,12643.188
295,0.48985,12643.188
296,0.491517,11489.168
297,0.493183,10438.114
298,0.494833,9485.558000000001
299,0.4965,9485.558000000001
300,0.498167,8617.862999999999
301,0.499833,7829.442
302,0.5014999999999999,7829.442
303,0.503167,7117.391
304,0.5049670000000001,6472.394
305,0.5065,5890.951
306,0.508167,5890.951
307,0.509833,5367.771
308,0.5115,4895.553
309,0.513167,4469.454
310,0.514817,4469.454
311,0.516483,4091.859
312,0.51815,3756.285
313,0.519817,3461.763
314,0.521483,3461.763
315,0.52315,3205.091
316,0.524817,2977.326
317,0.526483,2977.326
318,0.52815,2776.906
319,0.529817,2596.155
320,0.531483,2435.371
321,0.53315,2435.371
322,0.534817,2299.696
323,0.536483,2178.326
324,0.53815,2071.634
325,0.539817,2071.634
326,0.541483,1980.29
327,0.54315,1894.161
328,0.544817,1822.934
329,0.5464830000000001,1822.934
330,0.54815,1766.086
331,0.549817,1716.986
332,0.5515,1677.2
333,0.55315,1677.2
334,0.5548,1639.873
335,0.556467,1601.8
336,0.558133,1601.8
337,0.5598,1566.932
338,0.561467,1535.788
339,0.563133,1511.127
340,0.5648,1511.127
341,0.5664670000000001,1491.234
342,0.568133,1471.937
343,0.5698,1455.694
344,0.5714669999999999,1455.694
345,0.573133,1439.825
346,0.5748,1425.296
347,0.576467,1415.834
348,0.578133,1415.834
349,0.5798,1404.807
350,0.581467,1393.482
351,0.583133,1393.482
352,0.5848,1383.945
353,0.586467,1372.099
354,0.588133,1363.009
355,0.5898,1363.009
356,0.591467,1359.06
357,0.593133,1353.547
358,0.5948,1351.908
359,0.596467,1351.908
360,0.598133,1349.3
361,0.5998,1340.657
362,0.601467,1334.474
363,0.60315,1334.474
364,0.6048,1327.321
365,0.606467,1320.913
366,0.608133,1320.913
367,0.6098,1317.71
368,0.611467,1316.518
369,0.613133,1311.451
370,0.614783,1311.451
371,0.6164500000000001,1310.855
372,0.618117,1308.173
373,0.619783,1302.213
374,0.6214499999999999,1302.213
375,0.623233,1300.722
376,0.624783,1297.146
377,0.62645,1295.432
378,0.6281330000000001,1295.432
379,0.629783,1295.954
380,0.63145,1294.538
381,0.633117,1291.782
382,0.634783,1291.782
383,0.63645,1286.864
384,0.638117,1285.151
385,0.639783,1285.151
386,0.64145,1284.033
387,0.643117,1281.872
388,0.644783,1284.033
389,0.64645,1284.033
390,0.6481170000000001,1282.096
391,0.649783,1280.084
392,0.65145,1278.967
393,0.6531169999999999,1278.967
394,0.654783,1275.39
395,0.65645,1274.496
396,0.658117,1272.708
397,0.659783,1272.708
398,0.66145,1269.653
399,0.663117,1266.524
400,0.664783,1266.524
401,0.66645,1264.364
402,0.668117,1260.042
403,0.669783,1259.372
404,0.67145,1259.372
405,0.673117,1261.085
406,0.674767,1259.744
407,0.676433,1259.893
408,0.6781,1259.893
409,0.679767,1255.423
410,0.681433,1252.368
411,0.6831,1249.909
412,0.684783,1249.909
413,0.686433,1249.239
414,0.6881,1253.188
415,0.689767,1250.133
416,0.691433,1250.133
417,0.693133,1248.941
418,0.694767,1250.505
419,0.696433,1250.505
420,0.6981000000000001,1246.706
421,0.699767,1246.482
422,0.701433,1244.769
423,0.7030999999999999,1244.769
424,0.704767,1239.926
425,0.706433,1238.361
426,0.708167,1236.498
427,0.709767,1236.498
428,0.711433,1234.636
429,0.7131,1234.71
430,0.714767,1238.286
431,0.716433,1238.286
432,0.7181,1239.33
433,0.719767,1240.596
434,0.721433,1240.596
435,0.7231,1242.459
436,0.7247670000000001,1239.628
437,0.726433,1240.596
438,0.7281,1240.596
439,0.7297670000000001,1242.161
440,0.731433,1240.522
441,0.7331,1240.373
442,0.7347669999999999,1240.373
443,0.736417,1238.436
444,0.738083,1238.286
445,0.73975,1239.702
446,0.741483,1239.702
447,0.743083,1239.106
448,0.74475,1239.031
449,0.746417,1235.902
450,0.7480830000000001,1235.902
451,0.74975,1232.699
452,0.751417,1229.569
453,0.7530829999999999,1229.569
454,0.75475,1227.26
455,0.756417,1227.409
456,0.758083,1229.42
457,0.75975,1229.42
458,0.761417,1233.593
459,0.763083,1235.977
460,0.76475,1233.816
461,0.766433,1233.816
462,0.768083,1232.326
463,0.76975,1232.251
464,0.771417,1232.177
465,0.773083,1232.177
466,0.77475,1232.773
467,0.776417,1231.283
468,0.778083,1231.283
469,0.7797500000000001,1227.26
470,0.781417,1227.409
471,0.7831,1227.93
472,0.7847499999999999,1227.93
473,0.786417,1227.334
474,0.788083,1228.228
475,0.78975,1228.079
476,0.791417,1228.079
477,0.793083,1226.44
478,0.79475,1227.483
479,0.7964,1226.291
480,0.798067,1226.291
481,0.799733,1221.299
482,0.8014,1220.778
483,0.803067,1220.778
484,0.804733,1220.703
485,0.806383,1221.597
486,0.80805,1224.354
487,0.809717,1224.354
488,0.811383,1227.334
489,0.8130500000000001,1224.354
490,0.814717,1223.311
491,0.816383,1223.311
492,0.8180500000000001,1220.033
493,0.819717,1214.296
494,0.821383,1216.605
495,0.8230499999999999,1216.605
496,0.824717,1216.009
497,0.826433,1219.287
498,0.82805,1221.97
499,0.829717,1221.97
500,0.831383,1220.778
501,0.83305,1219.884
502,0.834717,1219.884
503,0.836383,1219.287
504,0.838067,1219.064
505,0.839767,1216.382
506,0.841383,1216.382
507,0.84305,1215.041
508,0.8447170000000001,1212.88
509,0.846383,1212.656
510,0.84805,1212.656
511,0.8497169999999999,1213.849
512,0.851383,1215.115
513,0.85305,1214.445
514,0.8547169999999999,1214.445
515,0.856367,1213.029
516,0.858033,1211.986
517,0.8598170000000001,1211.762
518,0.861367,1211.762
519,0.8630330000000001,1213.998
520,0.8647,1214.668
521,0.866367,1214.668
522,0.8680330000000001,1214.519
523,0.8697,1216.084
524,0.871367,1213.178
525,0.8730329999999999,1213.178
526,0.8747,1213.104
527,0.876367,1213.104
528,0.878033,1212.135
529,0.8797,1212.135
530,0.881367,1213.253
531,0.883033,1211.166
532,0.8847,1209.9
533,0.886367,1209.9
534,0.888033,1209.006
535,0.8897,1210.719
536,0.891367,1210.719
537,0.893033,1213.923
538,0.8947000000000001,1216.903
539,0.896367,1218.468
540,0.898033,1218.468
541,0.8997000000000001,1215.935
542,0.901367,1211.688
543,0.903033,1208.037
544,0.9046999999999999,1208.037
545,0.906367,1206.473
546,0.908033,1208.186
547,0.909733,1211.762
548,0.911367,1211.762
549,0.913033,1212.88
550,0.9147,1211.241
551,0.91635,1211.241
552,0.918017,1209.453
553,0.919683,1207.441
554,0.92135,1208.484
555,0.923033,1208.484
556,0.924683,1210.198
557,0.92635,1208.186
558,0.928017,1207.963
559,0.929683,1207.963
560,0.93135,1204.759
561,0.933017,1206.026
562,0.934683,1208.335
563,0.93635,1208.335
564,0.938017,1207.069
565,0.939683,1210.943
566,0.94135,1207.367
567,0.943017,1207.367
568,0.944717,1208.112
569,0.94635,1210.645
570,0.948017,1210.645
571,0.9496830000000001,1210.123
572,0.95135,1209.453
573,0.953017,1208.41
574,0.9546829999999999,1208.41
575,0.95635,1206.249
576,0.958033,1201.779
577,0.959683,1200.065
578,0.9614,1200.065
579,0.963017,1198.202
580,0.964683,1199.394
581,0.96635,1201.332
582,0.968017,1201.332
583,0.969683,1204.461
584,0.97135,1204.163
585,0.973017,1204.163
586,0.974683,1199.022
587,0.976333,1197.755
588,0.9781,1195.669
589,0.979667,1195.669
590,0.981333,1195.967
591,0.983,1197.755
592,0.984667,1199.245
593,0.986333,1199.245
594,0.988,1200.214
595,0.989667,1199.99
596,0.991333,1202.077
597,0.993,1202.077
598,0.994667,1201.928
599,0.996333,1200.959
600,0.998,1200.959
601,0.999667,1200.512
602,1.001333,1200.289
603,1.003,1198.798
604,1.004667,1198.798
605,1.006333,1198.724
606,1.008,1199.916
607,1.009667,1199.171
608,1.011333,1199.171
609,1.013,1199.32
610,1.014667,1200.885
611,1.016333,1201.481
612,1.018,1201.481
613,1.019667,1200.736
614,1.021333,1200.363
615,1.023,1197.979
