"ID","sea_time","fid_signal"
1,0,1161.918
2,0.001667,1160.8
3,0.003333,1161.471
4,0.005,1161.471
5,0.006667,1162.589
6,0.008333,1162.663
7,0.01,1164.004
8,0.011667,1164.004
9,0.013333,1164.377
10,0.015,1164.824
11,0.016667,1166.314
12,0.018333,1166.314
13,0.02,1168.027
14,0.021667,1168.251
15,0.02345,1164.898
16,0.025,1164.898
17,0.026667,1162.961
18,0.028333,1162.142
19,0.03,1162.142
20,0.031667,1160.502
21,0.033333,1162.216
22,0.035,1163.781
23,0.036667,1163.781
24,0.038333,1164.749
25,0.04,1168.326
26,0.041667,1171.529
27,0.043317,1171.529
28,0.044983,1171.082
29,0.04665,1170.114
30,0.048317,1170.114
31,0.049983,1170.114
32,0.05165,1168.4
33,0.0533,1168.922
34,0.054967,1168.922
35,0.056633,1171.604
36,0.0583,1168.996
37,0.059967,1166.016
38,0.061633,1166.016
39,0.063317,1164.973
40,0.064967,1166.388
41,0.066633,1167.133
42,0.0683,1167.133
43,0.069967,1170.263
44,0.071633,1172.274
45,0.0733,1169.965
46,0.07496700000000001,1169.965
47,0.07663300000000001,1168.102
48,0.07829999999999999,1168.251
49,0.079967,1168.698
50,0.081633,1168.698
51,0.0833,1166.761
52,0.084967,1169.071
53,0.086633,1169.071
54,0.0883,1166.239
55,0.08996700000000001,1165.196
56,0.09163300000000001,1164.079
57,0.09329999999999999,1164.079
58,0.094967,1163.855
59,0.096633,1161.546
60,0.0983,1162.365
61,0.099967,1162.365
62,0.101633,1164.377
63,0.103317,1165.643
64,0.104967,1169.965
65,0.106633,1169.965
66,0.1083,1169.965
67,0.109967,1172.349
68,0.111633,1172.349
69,0.113283,1173.69
70,0.114967,1171.529
71,0.11665,1169.741
72,0.118283,1169.741
73,0.11995,1167.432
74,0.121617,1166.835
75,0.123283,1166.388
76,0.12495,1166.388
77,0.126617,1168.847
78,0.128283,1166.537
79,0.12995,1165.941
80,0.131617,1165.941
81,0.133283,1166.761
82,0.13495,1165.271
83,0.136617,1165.271
84,0.138283,1170.486
85,0.13995,1171.678
86,0.141717,1172.423
87,0.143283,1172.423
88,0.14495,1170.412
89,0.146617,1165.122
90,0.148283,1161.918
91,0.14995,1161.918
92,0.151617,1161.322
93,0.153283,1159.385
94,0.15495,1162.067
95,0.156617,1162.067
96,0.158283,1161.546
97,0.15995,1161.471
98,0.161617,1167.953
99,0.163283,1167.953
100,0.16495,1168.4
101,0.166617,1168.4
102,0.168283,1168.4
103,0.16995,1168.326
104,0.171617,1165.196
105,0.173267,1164.302
106,0.174933,1164.302
107,0.1766,1164.898
108,0.178267,1163.408
109,0.179933,1165.718
110,0.1816,1165.718
111,0.183267,1165.494
112,0.184933,1165.122
113,0.1866,1166.463
114,0.188267,1166.463
115,0.18995,1162.216
116,0.1916,1165.047
117,0.193267,1165.047
118,0.194933,1166.165
119,0.1966,1165.643
120,0.198267,1164.302
121,0.199933,1164.302
122,0.2016,1158.267
123,0.203267,1156.181
124,0.204933,1155.585
125,0.2066,1155.585
126,0.208267,1159.459
127,0.209933,1166.016
128,0.2116,1169.294
129,0.213267,1169.294
130,0.214933,1169.741
131,0.2166,1168.475
132,0.218267,1164.079
133,0.219933,1164.079
134,0.2216,1165.196
135,0.223267,1169.22
136,0.224933,1169.22
137,0.226633,1169.965
138,0.228267,1173.615
139,0.229933,1169.667
140,0.231583,1169.667
141,0.233283,1167.953
142,0.234917,1168.698
143,0.236583,1163.781
144,0.23825,1163.781
145,0.239917,1164.675
146,0.241583,1161.769
147,0.243317,1159.981
148,0.244917,1159.981
149,0.246583,1162.887
150,0.24825,1163.408
151,0.249917,1163.408
152,0.251583,1164.302
153,0.25325,1164.898
154,0.254917,1164.004
155,0.256583,1164.004
156,0.25825,1162.514
157,0.260033,1165.494
158,0.261583,1164.898
159,0.263267,1164.898
160,0.264917,1164.6
161,0.266583,1169.443
162,0.26825,1166.761
163,0.269917,1166.761
164,0.271583,1165.494
165,0.27325,1167.282
166,0.274917,1167.059
167,0.27665,1167.059
168,0.27825,1166.91
169,0.279917,1168.698
170,0.281583,1168.698
171,0.28325,1168.4
172,0.284917,1165.196
173,0.286583,1164.526
174,0.28825,1164.526
175,0.289917,1165.494
176,0.291583,1166.612
177,0.293233,1166.537
178,0.2949,1166.537
179,0.296567,1169.294
180,0.298233,1171.976
181,0.2999,1170.412
182,0.301567,1170.412
183,0.303233,1169.592
184,0.3049,1168.027
185,0.306567,1168.027
186,0.308233,1162.887
187,0.3099,1165.047
188,0.311567,1166.016
189,0.313233,1166.016
190,0.3149,1165.792
191,0.316567,1166.239
192,0.318233,1163.855
193,0.3199,1163.855
194,0.321567,1162.663
195,0.32325,1163.185
196,0.3249,1164.153
197,0.326567,1164.153
198,0.328233,1163.557
199,0.3299,1162.887
200,0.331583,1161.695
201,0.333233,1161.695
202,0.334883,1161.993
203,0.33655,1164.004
204,0.338217,1164.004
205,0.339883,1167.804
206,0.34155,1170.784
207,0.343217,1169.369
208,0.3449,1169.369
209,0.34655,1170.114
210,0.348217,1167.357
211,0.349883,1166.239
212,0.351533,1166.239
213,0.3532,1167.282
214,0.354867,1166.463
215,0.356533,1166.984
216,0.3582,1166.984
217,0.359867,1168.549
218,0.3616,1169.443
219,0.3632,1169.443
220,0.364867,1168.251
221,0.366533,1169.592
222,0.3682,1166.984
223,0.369867,1166.984
224,0.371533,1167.879
225,0.3732,1170.933
226,0.374867,1168.996
227,0.376533,1168.996
228,0.3783,1171.231
229,0.379867,1173.168
230,0.381533,1171.157
231,0.3832,1171.157
232,0.384867,1175.776
233,0.386533,1177.862
234,0.3882,1177.862
235,0.389867,1179.054
236,0.391533,1184.344
237,0.3932,1187.697
238,0.394967,1187.697
239,0.396533,1191.199
240,0.3982,1195.222
241,0.399867,1194.254
242,0.401533,1194.254
243,0.4032,1193.285
244,0.404867,1192.763
245,0.406533,1195.818
246,0.408217,1195.818
247,0.409867,1197.234
248,0.411517,1196.936
249,0.413183,1198.724
250,0.41485,1198.724
251,0.416517,1199.022
252,0.418183,1202.226
253,0.41985,1202.226
254,0.421517,1209.006
255,0.423183,1212.433
256,0.42485,1214.892
257,0.426517,1214.892
258,0.428183,1220.629
259,0.42985,1223.236
260,0.431517,1223.46
261,0.433183,1223.46
262,0.43485,1221.97
263,0.436517,1221.299
264,0.438183,1222.491
265,0.43985,1222.491
266,0.441517,1223.46
267,0.443183,1224.13
268,0.44485,1224.13
269,0.446517,1224.652
270,0.448183,1221.374
271,0.44985,1220.405
272,0.451517,1220.405
273,0.453183,1218.244
274,0.45485,1214.743
275,0.456517,1210.496
276,0.458183,1210.496
277,0.45985,1209.825
278,0.461517,1208.931
279,0.463183,1208.037
280,0.46485,1208.037
281,0.466517,1209.676
282,0.468183,1204.759
283,0.46985,1203.12
284,0.4715,1203.12
285,0.473167,1200.065
286,0.474833,1197.83
287,0.4765,1197.83
288,0.478183,1197.085
289,0.4799,1197.532
290,0.4815,1197.085
291,0.483167,1197.085
292,0.484833,1196.563
293,0.4865,1195.595
294,0.488167,1190.081
295,0.489833,1190.081
296,0.4915,1187.772
297,0.493167,1185.536
298,0.494833,1185.76
299,0.49655,1185.76
300,0.498167,1186.356
301,0.499833,1185.536
302,0.5014999999999999,1185.536
303,0.503167,1186.729
304,0.504833,1184.195
305,0.506517,1184.419
306,0.508167,1184.419
307,0.509833,1184.493
308,0.5115,1181.737
309,0.513267,1182.407
310,0.514833,1182.407
311,0.5165,1182.258
312,0.518167,1178.086
313,0.519833,1178.011
314,0.5215,1178.011
315,0.523167,1179.203
316,0.524833,1179.799
317,0.5265,1179.799
318,0.5281670000000001,1186.729
319,0.529833,1191.05
320,0.5315,1189.858
321,0.53315,1189.858
322,0.534817,1189.858
323,0.536483,1189.634
324,0.53815,1185.834
325,0.539817,1185.834
326,0.541483,1187.548
327,0.54315,1187.026
328,0.544817,1184.717
329,0.5464830000000001,1184.717
330,0.54815,1185.983
331,0.549817,1185.685
332,0.5514829999999999,1186.132
333,0.55315,1186.132
334,0.554817,1189.038
335,0.5564829999999999,1190.752
336,0.55815,1190.752
337,0.559817,1190.528
338,0.561483,1193.21
339,0.56315,1191.05
340,0.564817,1191.05
341,0.566483,1188.74
342,0.56815,1187.324
343,0.569817,1184.419
344,0.571483,1184.419
345,0.57315,1184.717
346,0.574817,1185.313
347,0.576483,1187.176
348,0.5781500000000001,1187.176
349,0.579817,1187.474
350,0.581483,1189.038
351,0.5831499999999999,1189.038
352,0.584817,1190.379
353,0.586483,1194.03
354,0.58815,1197.01
355,0.589817,1197.01
356,0.591467,1200.214
357,0.593133,1204.312
358,0.5948,1204.386
359,0.596467,1204.386
360,0.598167,1207.665
361,0.5998,1212.06
362,0.601467,1217.723
363,0.603133,1217.723
364,0.6048,1227.632
365,0.606467,1236.275
366,0.608133,1241.788
367,0.6098,1241.788
368,0.611467,1249.462
369,0.613133,1258.552
370,0.6148670000000001,1258.552
371,0.616467,1268.908
372,0.618133,1285.076
373,0.6198,1299.828
374,0.621467,1299.828
375,0.62315,1319.647
376,0.6248,1341.85
377,0.62645,1363.307
378,0.628117,1363.307
379,0.629783,1389.682
380,0.6315499999999999,1417.547
381,0.633117,1448.84
382,0.634783,1448.84
383,0.63645,1483.858
384,0.638117,1524.016
385,0.639783,1524.016
386,0.64145,1565.665
387,0.643117,1615.658
388,0.644783,1669.973
389,0.64645,1669.973
390,0.6481170000000001,1727.79
391,0.649783,1789.778
392,0.651433,1857.43
393,0.6531,1857.43
394,0.654767,1933.277
395,0.656433,2016.351
396,0.6581,2103.075
397,0.659767,2103.075
398,0.661433,2193.525
399,0.6631,2290.532
400,0.664767,2389.103
401,0.6664330000000001,2389.103
402,0.6681,2497.136
403,0.669767,2609.044
404,0.6714329999999999,2609.044
405,0.6731,2725.571
406,0.674767,2846.643
407,0.676433,2973.08
408,0.6781,2973.08
409,0.679767,3107.19
410,0.68145,3243.908
411,0.68315,3386.289
412,0.684767,3386.289
413,0.686433,3530.383
414,0.6881,3674.999
415,0.689767,3824.01
416,0.691433,3824.01
417,0.6931,3979.504
418,0.694767,4138.052
419,0.69645,4138.052
420,0.6981000000000001,4300.475
421,0.699767,4464.686
422,0.701433,4630.834
423,0.7030999999999999,4630.834
424,0.704767,4803.24
425,0.706433,4977.211
426,0.7081,5150.661
427,0.70975,5150.661
428,0.711417,5324.259
429,0.713083,5496.293
430,0.71475,5669.817
431,0.716417,5669.817
432,0.718083,5844.608
433,0.71975,6019.995
434,0.721417,6019.995
435,0.723083,6197.393
436,0.72475,6376.058
437,0.726417,6559.715
438,0.728083,6559.715
439,0.72975,6744.042
440,0.731417,6928.891
441,0.733083,7111.505
442,0.73475,7111.505
443,0.736417,7290.095
444,0.738083,7469.803
445,0.73975,7649.884
446,0.741417,7649.884
447,0.743083,7832.944
448,0.74475,8014.589
449,0.746417,8196.905000000001
450,0.7480830000000001,8196.905000000001
451,0.74985,8378.849
452,0.751417,8556.619000000001
453,0.7530829999999999,8556.619000000001
454,0.75475,8734.612999999999
455,0.756417,8910.671
456,0.758083,9086.579
457,0.75975,9086.579
458,0.761417,9263.232
459,0.763083,9443.09
460,0.76475,9621.903
461,0.766417,9621.903
462,0.768083,9797.364
463,0.76975,9974.391
464,0.7714,10147.914
465,0.7730669999999999,10147.914
466,0.774733,10322.332
467,0.7764,10496.899
468,0.778067,10496.899
469,0.779733,10670.572
470,0.7814,10843.873
471,0.783067,11012.182
472,0.784733,11012.182
473,0.7864,11181.235
474,0.788083,11348.054
475,0.789733,11515.543
476,0.7914,11515.543
477,0.793067,11684.001
478,0.794733,11850.521
479,0.7964,12015.03
480,0.798067,12015.03
481,0.799733,12175.664
482,0.8014,12336.671
483,0.803067,12492.836
484,0.804733,12492.836
485,0.8064,12649.745
486,0.808067,12808.666
487,0.809733,12808.666
488,0.8114,12963.042
489,0.813067,13115.257
490,0.814733,13262.331
491,0.8164,13262.331
492,0.818067,13409.853
493,0.819733,13554.841
494,0.821417,13700.574
495,0.823067,13700.574
496,0.824733,13846.01
497,0.8264,13982.207
498,0.828067,14118.329
499,0.8297330000000001,14118.329
500,0.831383,14246.255
501,0.83305,14368.892
502,0.8347830000000001,14489.145
503,0.836383,14489.145
504,0.83805,14599.785
505,0.839717,14703.349
506,0.841383,14703.349
507,0.84305,14795.885
508,0.8447170000000001,14870.391
509,0.846383,14931.56
510,0.84805,14931.56
511,0.8497169999999999,14976.71
512,0.851383,14995.188
513,0.85305,14980.957
514,0.8547169999999999,14980.957
515,0.856383,14920.831
516,0.85805,14799.759
517,0.859717,14602.021
518,0.861383,14602.021
519,0.86305,14311.299
520,0.864717,13900.623
521,0.866383,13900.623
522,0.86815,13348.386
523,0.869717,12647.882
524,0.871383,11797.249
525,0.87305,11797.249
526,0.874717,10823.607
527,0.876383,9773.374
528,0.87805,8699.596
529,0.879717,8699.596
530,0.881383,7653.758
531,0.88305,6683.32
532,0.884717,5816.966
533,0.886383,5816.966
534,0.88805,5065.948
535,0.889717,4440.844
536,0.891383,4440.844
537,0.893033,3926.531
538,0.8947000000000001,3510.341
539,0.896367,3181.249
540,0.898033,3181.249
541,0.899717,2915.561
542,0.901367,2703.294
543,0.903033,2536.401
544,0.9046999999999999,2536.401
545,0.906367,2397.671
546,0.908033,2287.179
547,0.909717,2199.337
548,0.911367,2199.337
549,0.913033,2120.435
550,0.9147,2055.094
551,0.916367,1996.756
552,0.918017,1996.756
553,0.919683,1946.315
554,0.92135,1902.282
555,0.923017,1902.282
556,0.924683,1866.892
557,0.92635,1831.725
558,0.928017,1797.005
559,0.929683,1797.005
560,0.93135,1769.587
561,0.933017,1740.679
562,0.934683,1717.806
563,0.93635,1717.806
564,0.938017,1697.54
565,0.939683,1678.765
566,0.94135,1656.19
567,0.943017,1656.19
568,0.9446830000000001,1635.253
569,0.94635,1615.956
570,0.948017,1615.956
571,0.9496830000000001,1596.287
572,0.95135,1584.589
573,0.953067,1574.755
574,0.954667,1574.755
575,0.956333,1566.485
576,0.958,1554.489
577,0.959667,1543.239
578,0.961333,1543.239
579,0.963,1530.051
580,0.964683,1516.193
581,0.966333,1507.923
582,0.968,1507.923
583,0.9696669999999999,1497.492
584,0.971333,1489.893
585,0.973,1489.893
586,0.974667,1477.376
587,0.976333,1466.274
588,0.978,1455.098
589,0.979667,1455.098
590,0.981333,1445.562
591,0.983,1441.24
592,0.984667,1435.131
593,0.986383,1435.131
594,0.988,1429.617
595,0.989667,1422.018
596,0.991333,1412.928
597,0.993,1412.928
598,0.994667,1407.117
599,0.996333,1399.294
600,0.998,1396.164
601,0.999667,1396.164
602,1.001333,1395.047
603,1.003,1388.639
604,1.004667,1388.639
605,1.006333,1385.286
606,1.008,1377.985
607,1.009667,1370.832
608,1.011317,1370.832
609,1.012983,1366.884
610,1.01465,1362.935
611,1.016317,1360.849
612,1.017983,1360.849
613,1.01965,1357.719
614,1.021317,1352.28
615,1.022983,1348.034
616,1.02465,1348.034
617,1.026317,1343.563
618,1.027983,1339.391
619,1.02965,1339.391
620,1.031317,1335.964
621,1.033017,1332.238
622,1.03465,1327.991
623,1.036317,1327.991
624,1.037983,1323
625,1.03965,1320.243
626,1.041317,1317.635
627,1.042983,1317.635
628,1.04465,1313.612
629,1.046317,1310.706
630,1.047983,1306.534
631,1.04965,1306.534
632,1.051317,1304.597
633,1.052983,1301.542
634,1.05465,1301.914
635,1.056317,1301.914
636,1.057983,1301.169
637,1.05965,1300.648
638,1.061317,1300.648
639,1.062983,1299.158
640,1.06465,1296.177
641,1.066317,1295.06
642,1.067983,1295.06
643,1.06965,1293.421
644,1.07135,1294.091
645,1.072967,1289.844
646,1.074633,1289.844
647,1.0763,1286.343
648,1.077967,1283.214
649,1.079633,1279.265
650,1.0813,1279.265
651,1.082967,1279.935
652,1.08465,1280.233
653,1.0863,1280.233
654,1.088033,1277.626
655,1.089633,1275.092
656,1.0913,1273.453
657,1.092967,1273.453
658,1.094633,1270.92
659,1.0963,1269.504
660,1.097967,1268.387
661,1.099633,1268.387
662,1.1013,1269.206
663,1.102967,1269.057
664,1.104733,1266.599
665,1.106333,1266.599
666,1.107967,1266.45
667,1.109633,1261.979
668,1.1113,1260.042
669,1.112967,1260.042
670,1.114633,1257.583
671,1.1163,1256.913
672,1.117967,1256.913
673,1.119633,1255.572
674,1.1213,1253.858
675,1.122967,1254.082
676,1.124633,1254.082
677,1.1263,1250.953
678,1.127967,1252.368
679,1.129617,1249.909
680,1.131283,1249.909
681,1.13295,1246.855
682,1.134617,1247.823
683,1.136283,1244.694
684,1.13795,1244.694
685,1.139617,1246.259
686,1.141283,1247.749
687,1.14295,1247.749
688,1.144617,1247.972
689,1.146283,1249.313
690,1.14795,1247.451
691,1.149617,1247.451
692,1.151283,1244.62
693,1.15295,1240.671
694,1.154617,1235.828
695,1.156283,1235.828
696,1.15795,1237.169
697,1.159617,1237.02
698,1.161283,1235.53
699,1.16295,1235.53
700,1.164617,1234.934
701,1.166283,1232.326
702,1.16795,1232.326
703,1.169617,1233.891
704,1.171283,1236.2
705,1.17295,1238.584
706,1.174617,1238.584
707,1.1763,1238.212
708,1.17795,1234.487
709,1.179617,1232.773
710,1.181283,1232.773
711,1.18295,1228.452
712,1.184617,1226.217
713,1.186283,1229.197
714,1.18795,1229.197
715,1.1896,1229.197
716,1.191267,1229.271
717,1.192933,1228.973
718,1.1946,1228.973
719,1.196267,1226.068
720,1.197933,1223.013
721,1.1996,1223.013
722,1.201267,1223.832
723,1.202933,1223.013
724,1.2046,1221.597
725,1.206317,1221.597
726,1.207917,1220.182
727,1.209583,1220.256
728,1.21125,1220.256
729,1.212917,1220.256
730,1.214583,1220.927
731,1.21625,1220.48
732,1.217917,1219.139
733,1.219583,1219.139
734,1.22125,1219.139
735,1.223,1215.711
736,1.224583,1215.711
737,1.22625,1216.009
738,1.227917,1215.637
739,1.229583,1213.327
740,1.23125,1213.327
741,1.232917,1215.488
742,1.234583,1215.935
743,1.23625,1215.935
744,1.237917,1215.935
745,1.2397,1216.531
746,1.24125,1214.221
747,1.242917,1212.806
748,1.244583,1212.806
749,1.24625,1212.507
750,1.247917,1212.507
751,1.249583,1212.954
752,1.251267,1212.954
753,1.252967,1209.453
754,1.254567,1206.026
755,1.256233,1206.026
756,1.2579,1203.492
757,1.259583,1202.673
758,1.261233,1207.292
759,1.2629,1207.292
760,1.264567,1206.473
761,1.266233,1207.143
762,1.2679,1207.888
763,1.269567,1207.888
764,1.271233,1206.026
765,1.2729,1206.026
766,1.274567,1208.633
767,1.276233,1208.633
768,1.2779,1208.782
769,1.279567,1207.218
770,1.281233,1207.218
771,1.2829,1211.315
772,1.284567,1209.676
773,1.286233,1207.441
774,1.2879,1207.441
775,1.289567,1209.304
776,1.291233,1206.1
777,1.2929,1206.547
778,1.294567,1206.547
779,1.296233,1207.367
780,1.2979,1206.174
781,1.299567,1207.888
782,1.301233,1207.888
783,1.3029,1205.355
784,1.304567,1203.865
785,1.306233,1203.865
786,1.307933,1206.249
787,1.309567,1205.653
788,1.311233,1208.41
789,1.312917,1208.41
790,1.31455,1212.731
791,1.31625,1212.507
792,1.317883,1212.954
793,1.31955,1212.954
794,1.321217,1211.241
795,1.322883,1208.261
796,1.324617,1206.92
797,1.326217,1206.92
798,1.327883,1205.131
799,1.32955,1203.716
800,1.331217,1203.045
801,1.332883,1203.045
802,1.33455,1203.343
803,1.336217,1201.704
804,1.337883,1201.704
805,1.33955,1201.63
806,1.341267,1201.183
807,1.342883,1197.532
808,1.34455,1197.532
809,1.346217,1201.034
810,1.347883,1200.438
811,1.34955,1200.363
812,1.351217,1200.363
813,1.352883,1201.034
814,1.35455,1194.85
815,1.356217,1196.116
816,1.357967,1196.116
817,1.35955,1195.744
818,1.361217,1193.956
819,1.362883,1193.956
820,1.36455,1197.234
821,1.366217,1194.924
822,1.367883,1194.03
823,1.36955,1194.03
824,1.3712,1194.924
825,1.372867,1191.944
826,1.374533,1193.657
827,1.3762,1193.657
828,1.377867,1194.85
829,1.379533,1196.489
830,1.3812,1198.351
831,1.382867,1198.351
832,1.384533,1197.755
833,1.3862,1200.14
834,1.387883,1198.128
835,1.389533,1198.128
836,1.3912,1198.947
837,1.392867,1198.5
838,1.394533,1198.5
839,1.3962,1194.552
840,1.397867,1194.179
841,1.399533,1196.712
842,1.4012,1196.712
843,1.402883,1195.744
844,1.404533,1196.489
845,1.4062,1195.52
846,1.407867,1195.52
847,1.409533,1191.199
848,1.4112,1190.901
849,1.412867,1189.56
850,1.414533,1189.56
851,1.4162,1188.591
852,1.417867,1188.666
853,1.419533,1188.666
854,1.4212,1188.293
855,1.422867,1191.348
856,1.424533,1194.626
857,1.4262,1194.626
858,1.427867,1194.403
859,1.429533,1193.956
860,1.4312,1192.242
861,1.43285,1192.242
862,1.434517,1190.454
863,1.436183,1188.889
864,1.43785,1190.603
865,1.439517,1190.603
866,1.441183,1190.752
867,1.442883,1190.081
868,1.444517,1192.912
869,1.446183,1192.912
870,1.44785,1193.732
871,1.449517,1195.073
872,1.451183,1195.073
873,1.45285,1197.606
874,1.454517,1199.842
875,1.456183,1199.022
876,1.457883,1199.022
877,1.459533,1196.116
878,1.461183,1192.838
879,1.46285,1190.975
880,1.464517,1190.975
881,1.466183,1191.273
882,1.46785,1193.136
883,1.469517,1196.787
884,1.471183,1196.787
885,1.47285,1196.489
886,1.474517,1194.477
887,1.4763,1193.062
888,1.47785,1193.062
889,1.479517,1188.591
890,1.481183,1187.25
891,1.48285,1187.25
892,1.484517,1187.697
893,1.486183,1186.654
894,1.48785,1190.454
895,1.4895,1190.454
896,1.4912,1191.05
897,1.492833,1192.391
898,1.4945,1194.403
899,1.496167,1194.403
900,1.497833,1194.701
901,1.499483,1194.924
902,1.50115,1194.924
903,1.502817,1193.732
904,1.504483,1192.838
905,1.50615,1190.156
906,1.507817,1190.156
907,1.509483,1187.474
908,1.51115,1185.685
909,1.512817,1185.685
910,1.514483,1185.685
911,1.51615,1185.834
912,1.517817,1188.293
913,1.519483,1188.815
914,1.52115,1188.815
915,1.522817,1189.858
916,1.524483,1189.858
917,1.52615,1186.43
918,1.527817,1186.43
