"ID","sea_time","fid_signal"
1,0,1174.882
2,0.001617,1174.882
3,0.003283,1172.572
4,0.00495,1172.572
5,0.006617,1171.753
6,0.008267,1173.392
7,0.009933000000000001,1173.392
8,0.0116,1174.957
9,0.013267,1177.49
10,0.014933,1177.341
11,0.016717,1177.341
12,0.018267,1177.937
13,0.019933,1178.607
14,0.0216,1177.788
15,0.023267,1177.788
16,0.024933,1178.458
17,0.0266,1179.725
18,0.028267,1180.321
19,0.02995,1180.321
20,0.031667,1178.086
21,0.033267,1175.404
22,0.034933,1173.541
23,0.0366,1173.541
24,0.038267,1169.443
25,0.039933,1170.337
26,0.0416,1170.337
27,0.043267,1172.721
28,0.044933,1173.168
29,0.0466,1178.16
30,0.048267,1178.16
31,0.049933,1178.98
32,0.0516,1175.404
33,0.053267,1175.627
34,0.054933,1175.627
35,0.0566,1172.796
36,0.058267,1173.392
37,0.059933,1177.043
38,0.0616,1177.043
39,0.063267,1177.862
40,0.064933,1178.607
41,0.06660000000000001,1178.607
42,0.06825000000000001,1178.756
43,0.06991700000000001,1177.937
44,0.07158299999999999,1173.466
45,0.07325,1173.466
46,0.074917,1173.168
47,0.076583,1172.796
48,0.07825,1171.678
49,0.079917,1171.678
50,0.081583,1172.498
51,0.08325,1171.976
52,0.08491700000000001,1169.741
53,0.08658299999999999,1169.741
54,0.08825,1168.698
55,0.089917,1169.741
56,0.091583,1172.87
57,0.09325,1172.87
58,0.094917,1175.404
59,0.096583,1175.329
60,0.09825,1175.329
61,0.09993299999999999,1176.074
62,0.101667,1173.615
63,0.10325,1173.615
64,0.104917,1173.615
65,0.106583,1176.521
66,0.10825,1176.521
67,0.109917,1178.309
68,0.111583,1178.309
69,0.11325,1178.756
70,0.114917,1178.309
71,0.116583,1178.309
72,0.118267,1178.309
73,0.119917,1179.65
74,0.121583,1177.117
75,0.12325,1177.117
76,0.124917,1179.576
77,0.126583,1179.576
78,0.128233,1178.086
79,0.1299,1178.086
80,0.131567,1181.662
81,0.133233,1176.67
82,0.135033,1176.372
83,0.136567,1176.372
84,0.138233,1174.659
85,0.1399,1171.678
86,0.141567,1171.455
87,0.143233,1171.455
88,0.1449,1170.039
89,0.146567,1168.922
90,0.148233,1172.498
91,0.1499,1172.498
92,0.151567,1175.776
93,0.153233,1177.639
94,0.1549,1177.639
95,0.156567,1176.968
96,0.158233,1174.212
97,0.159883,1174.807
98,0.16155,1174.807
99,0.163217,1174.435
100,0.164883,1174.212
101,0.16655,1174.882
102,0.168217,1174.882
103,0.169883,1172.945
104,0.171567,1172.721
105,0.173283,1174.51
106,0.174883,1174.51
107,0.17655,1172.647
108,0.178233,1170.486
109,0.179883,1170.486
110,0.18155,1171.38
111,0.183217,1171.753
112,0.184883,1174.659
113,0.186533,1174.659
114,0.1882,1177.266
115,0.189867,1175.702
116,0.191533,1173.466
117,0.1932,1173.466
118,0.194867,1173.094
119,0.196533,1175.851
120,0.1982,1178.011
121,0.199867,1178.011
122,0.201533,1180.768
123,0.2032,1178.98
124,0.204867,1178.98
125,0.206533,1175.925
126,0.2082,1174.957
127,0.209867,1173.765
128,0.211533,1173.765
129,0.2132,1175.925
130,0.214867,1174.957
131,0.216533,1174.063
132,0.2182,1174.063
133,0.219867,1174.063
134,0.221533,1172.945
135,0.2232,1171.38
136,0.224867,1171.38
137,0.226533,1171.678
138,0.2282,1173.019
139,0.229867,1173.019
140,0.231533,1173.019
141,0.2332,1176.968
142,0.234867,1175.627
143,0.2366,1175.627
144,0.2382,1173.019
145,0.239867,1172.498
146,0.241533,1169.667
147,0.2432,1169.667
148,0.2449,1172.2
149,0.246517,1176.596
150,0.248183,1177.49
151,0.24985,1177.49
152,0.251517,1178.533
153,0.253283,1176.521
154,0.25485,1174.063
155,0.256517,1174.063
156,0.258183,1176.074
157,0.25985,1179.278
158,0.261517,1179.278
159,0.263183,1181.886
160,0.26485,1182.035
161,0.266517,1177.937
162,0.268183,1177.937
163,0.26985,1174.286
164,0.271517,1175.255
165,0.273183,1174.063
166,0.27485,1174.063
167,0.276517,1173.765
168,0.278183,1174.212
169,0.27985,1172.647
170,0.281517,1172.647
171,0.283183,1173.243
172,0.28485,1176.745
173,0.286517,1176.074
174,0.288183,1176.074
175,0.28985,1175.925
176,0.291517,1179.799
177,0.293183,1179.799
178,0.29485,1179.129
179,0.296517,1183.823
180,0.298183,1185.834
181,0.29985,1185.834
182,0.301517,1186.058
183,0.303183,1191.273
184,0.30485,1195.297
185,0.306517,1195.297
186,0.308167,1200.065
187,0.309833,1207.143
188,0.3115,1213.7
189,0.313167,1213.7
190,0.314833,1222.566
191,0.316567,1234.636
192,0.318167,1234.636
193,0.319833,1251.325
194,0.3215,1271.367
195,0.323167,1292.378
196,0.324833,1292.378
197,0.3265,1316.22
198,0.328167,1339.689
199,0.329833,1366.213
200,0.3315,1366.213
201,0.333167,1400.113
202,0.334833,1436.919
203,0.3365,1478.717
204,0.338233,1478.717
205,0.339833,1523.644
206,0.3415,1568.794
207,0.343167,1617.223
208,0.344833,1617.223
209,0.3465,1664.311
210,0.348167,1713.634
211,0.349833,1713.634
212,0.3515,1767.054
213,0.353167,1822.934
214,0.354833,1884.401
215,0.3565,1884.401
216,0.358167,1949.966
217,0.359833,2016.947
218,0.3615,2088.398
219,0.363167,2088.398
220,0.364833,2163.798
221,0.366483,2242.476
222,0.36815,2325.997
223,0.369817,2325.997
224,0.371617,2417.713
225,0.37315,2515.018
226,0.374817,2515.018
227,0.376483,2622.977
228,0.37815,2746.209
229,0.379817,2877.265
230,0.381483,2877.265
231,0.38315,3031.269
232,0.384817,3211.647
233,0.386483,3420.338
234,0.38815,3420.338
235,0.389833,3675.148
236,0.391567,3975.555
237,0.39315,4333.854
238,0.394817,4333.854
239,0.396483,4760.027
240,0.39815,5261.674
241,0.399817,5851.91
242,0.401483,5851.91
243,0.40315,6531.03
244,0.404817,7306.04
245,0.4065,7306.04
246,0.40815,8177.534
247,0.409817,9140.074000000001
248,0.411483,10187.402
249,0.41315,10187.402
250,0.414817,11305.586
251,0.416483,12479.126
252,0.41815,13685.45
253,0.419817,13685.45
254,0.421483,14904.589
255,0.42315,16111.881
256,0.424817,17279.461
257,0.426467,17279.461
258,0.42815,18380.807
259,0.4298,19383.58
260,0.431467,19383.58
261,0.433133,20264.982
262,0.4348,21001.473
263,0.436467,21575.02
264,0.438133,21575.02
265,0.4398,21971.391
266,0.441467,22182.912
267,0.443133,22207.572
268,0.4448,22207.572
269,0.446467,22053.197
270,0.448133,21732.449
271,0.449783,21255.836
272,0.45145,21255.836
273,0.453117,20639.375
274,0.454783,19904.896
275,0.456517,19074.23
276,0.458117,19074.23
277,0.459783,18168.24
278,0.46145,17213.896
279,0.463117,17213.896
280,0.464783,16224.906
281,0.46645,15221.76
282,0.468117,14225.617
283,0.469783,14225.617
284,0.47145,13243.109
285,0.473117,12286.901
286,0.474783,11365.041
287,0.47645,11365.041
288,0.478117,10480.881
289,0.479783,9647.085999999999
290,0.48145,8864.626
291,0.483117,8864.626
292,0.484783,8134.917
293,0.48645,7459.67
294,0.4881,7459.67
295,0.4899,6836.802
296,0.491433,6264.448
297,0.4931,5744.696
298,0.494767,5744.696
299,0.496433,5272.627
300,0.4981,4841.164
301,0.499767,4451.647
302,0.501433,4451.647
303,0.5031,4098.341
304,0.504767,3781.393
305,0.506433,3501.698
306,0.5081,3501.698
307,0.509767,3254.115
308,0.511433,3034.398
309,0.5131,3034.398
310,0.514767,2838.299
311,0.516433,2665.222
312,0.5181,2509.952
313,0.519767,2509.952
314,0.521433,2372.414
315,0.5231,2251.193
316,0.524767,2141.371
317,0.526433,2141.371
318,0.5281,2046.227
319,0.529767,1961.589
320,0.531433,1889.02
321,0.5331,1889.02
322,0.534817,1825.69
323,0.536433,1768.097
324,0.5381,1716.316
325,0.539767,1716.316
326,0.5414330000000001,1671.836
327,0.5431,1630.038
328,0.544767,1630.038
329,0.5464329999999999,1592.115
330,0.548083,1559.034
331,0.54975,1524.389
332,0.551417,1524.389
333,0.553083,1498.237
334,0.55475,1475.141
335,0.5564170000000001,1453.385
336,0.558083,1453.385
337,0.55975,1436.695
338,0.5614170000000001,1419.634
339,0.563083,1404.509
340,0.56475,1404.509
341,0.5664169999999999,1395.196
342,0.568083,1384.467
343,0.56975,1384.467
344,0.571417,1373.515
345,0.573083,1360.849
346,0.5748,1346.841
347,0.576417,1346.841
348,0.578083,1334.474
349,0.57975,1324.862
350,0.581433,1319.796
351,0.583083,1319.796
352,0.58475,1316.518
353,0.586417,1313.612
354,0.588083,1308.098
355,0.58975,1308.098
356,0.591417,1302.883
357,0.593083,1296.476
358,0.59475,1289.77
359,0.596417,1289.77
360,0.598083,1285.374
361,0.59975,1283.064
362,0.601417,1283.064
363,0.603083,1278.222
364,0.60475,1275.837
365,0.606417,1272.559
366,0.608133,1272.559
367,0.609733,1267.418
368,0.6114000000000001,1266.822
369,0.613067,1267.344
370,0.614733,1267.344
371,0.6163999999999999,1265.332
372,0.618067,1263.917
373,0.619733,1258.925
374,0.6214,1258.925
375,0.623067,1254.529
376,0.624733,1252.666
377,0.6264,1252.666
378,0.628067,1250.058
379,0.629733,1251.549
380,0.6314,1248.717
381,0.633067,1248.717
382,0.634733,1246.259
383,0.6364,1243.651
384,0.6380670000000001,1240.075
385,0.639733,1240.075
386,0.6414,1239.33
387,0.6430670000000001,1237.989
388,0.644733,1234.71
389,0.6464,1234.71
390,0.6480669999999999,1233.369
391,0.649733,1231.581
392,0.6514,1231.581
393,0.653067,1229.942
394,0.654733,1230.985
395,0.6564,1228.75
396,0.658067,1228.75
397,0.659733,1226.217
398,0.6614,1224.577
399,0.663067,1225.62
400,0.664733,1225.62
401,0.6664,1227.707
402,0.66805,1227.483
403,0.669717,1224.279
404,0.671383,1224.279
405,0.67305,1220.852
406,0.674733,1217.797
407,0.676383,1218.692
408,0.67805,1218.692
409,0.679717,1223.758
410,0.681383,1224.13
411,0.68305,1224.13
412,0.684717,1223.609
413,0.686383,1223.385
414,0.6880500000000001,1221.001
415,0.689717,1221.001
416,0.691383,1219.734
417,0.6931,1220.48
418,0.694717,1218.021
419,0.696383,1218.021
420,0.6980499999999999,1215.86
421,0.699717,1214.594
422,0.701383,1210.198
423,0.70305,1210.198
424,0.704717,1210.272
425,0.706383,1210.347
426,0.70805,1210.347
427,0.7098,1210.645
428,0.711383,1212.284
429,0.71305,1212.507
430,0.714717,1212.507
431,0.716383,1213.253
432,0.71805,1215.041
433,0.7197170000000001,1215.86
434,0.721383,1215.86
435,0.72305,1212.433
436,0.7247169999999999,1212.433
437,0.72645,1211.837
438,0.728033,1211.837
439,0.7297,1209.974
440,0.731367,1211.39
441,0.733033,1208.112
442,0.7347,1208.112
443,0.736367,1205.653
444,0.7380330000000001,1204.237
445,0.7397,1204.237
446,0.74135,1202.971
447,0.743017,1202.896
448,0.744683,1201.481
449,0.74635,1201.481
450,0.74805,1200.661
451,0.749683,1200.885
452,0.75135,1200.661
453,0.753017,1200.661
454,0.754683,1202.896
455,0.756367,1203.567
456,0.7580170000000001,1202.002
457,0.759683,1202.002
458,0.76135,1203.418
459,0.7630169999999999,1201.853
460,0.764683,1201.853
461,0.76635,1204.535
462,0.7680169999999999,1207.888
463,0.769683,1205.355
464,0.771367,1205.355
465,0.773017,1205.355
466,0.774683,1201.853
467,0.77635,1199.469
468,0.778017,1199.469
469,0.779683,1201.034
470,0.78135,1198.798
471,0.783017,1199.543
472,0.784683,1199.543
473,0.7863329999999999,1197.83
474,0.788,1196.563
475,0.789667,1196.563
476,0.791333,1197.532
477,0.793,1195.744
478,0.794667,1197.606
479,0.796333,1197.606
480,0.798,1197.681
481,0.799667,1197.532
482,0.801333,1197.681
483,0.803,1197.681
484,0.804667,1196.563
485,0.806333,1194.328
486,0.8080000000000001,1192.614
487,0.8097,1192.614
488,0.811333,1193.285
489,0.8129999999999999,1192.987
490,0.814667,1192.391
491,0.816333,1192.391
492,0.8179999999999999,1192.987
493,0.819667,1193.657
494,0.821333,1193.657
495,0.823,1189.56
496,0.824667,1191.199
497,0.826333,1193.807
498,0.828067,1193.807
499,0.829667,1194.477
500,0.831333,1201.63
501,0.833,1202.673
502,0.834667,1202.673
503,0.836333,1201.332
504,0.838,1198.798
505,0.8396670000000001,1193.21
506,0.841333,1193.21
507,0.843,1190.305
508,0.84475,1189.336
509,0.846333,1189.336
510,0.847983,1189.932
511,0.84965,1189.113
512,0.851317,1189.932
513,0.852983,1189.932
514,0.85465,1189.783
515,0.856317,1190.007
516,0.8579830000000001,1192.987
517,0.85965,1192.987
518,0.8614000000000001,1193.657
519,0.8629829999999999,1194.104
520,0.86465,1192.391
521,0.866333,1192.391
522,0.8679829999999999,1193.136
523,0.86965,1194.552
524,0.871317,1194.924
525,0.872983,1194.924
526,0.87465,1196.34
527,0.876317,1192.316
528,0.877983,1192.316
529,0.87965,1188.293
530,0.881317,1185.834
531,0.882983,1185.015
532,0.88465,1185.015
533,0.886317,1187.921
534,0.887983,1190.007
535,0.8896500000000001,1188.74
536,0.891317,1188.74
537,0.892983,1186.058
538,0.8946499999999999,1184.121
539,0.896317,1184.046
540,0.897983,1184.046
541,0.8996499999999999,1186.579
542,0.901317,1188.889
543,0.902983,1188.889
544,0.90465,1187.623
545,0.906317,1186.058
546,0.907967,1184.419
547,0.909633,1184.419
548,0.9113,1183.301
549,0.912967,1185.76
550,0.914633,1188.666
551,0.9163,1188.666
552,0.917967,1191.571
553,0.919633,1191.646
554,0.9213,1191.795
555,0.922967,1191.795
556,0.924633,1188.964
557,0.9263,1186.729
558,0.927967,1189.187
559,0.929633,1189.187
560,0.9313,1189.709
561,0.932967,1190.081
562,0.934633,1190.081
563,0.9363,1186.803
564,0.937967,1183.45
565,0.9396330000000001,1182.184
566,0.9413,1182.184
567,0.942967,1181.364
568,0.9446329999999999,1185.536
569,0.946367,1187.548
570,0.947967,1187.548
571,0.9496329999999999,1186.207
572,0.9513,1188.74
573,0.952967,1190.305
574,0.954633,1190.305
575,0.9563,1191.348
576,0.957967,1193.657
577,0.959633,1193.657
578,0.9613,1194.477
579,0.963,1191.72
580,0.964633,1188.219
581,0.9663,1188.219
582,0.96795,1186.654
583,0.969617,1187.026
584,0.971283,1185.983
585,0.97295,1185.983
586,0.974617,1186.877
587,0.976283,1187.101
588,0.97795,1184.568
589,0.979733,1184.568
590,0.981283,1185.164
591,0.98295,1188.144
592,0.984633,1188.666
593,0.986283,1188.666
594,0.98795,1187.25
595,0.989617,1185.313
596,0.991283,1185.313
597,0.99295,1182.482
598,0.994617,1182.78
599,0.996283,1184.27
600,0.99795,1184.27
601,0.999617,1185.76
602,1.001283,1184.642
603,1.00295,1181.662
604,1.004617,1181.662
605,1.006283,1181.886
606,1.00795,1181.737
607,1.009617,1184.493
608,1.011283,1184.493
609,1.01295,1184.791
610,1.014617,1184.493
611,1.016283,1184.493
612,1.01795,1185.983
613,1.019617,1184.046
614,1.021283,1181.29
