"ID","sea_time","fid_signal"
1,0,1170.71
2,0.001667,1170.71
3,0.003333,1173.392
4,0.005,1172.87
5,0.006667,1172.87
6,0.008333,1173.168
7,0.010017,1173.466
8,0.011667,1170.263
9,0.013333,1170.263
10,0.015,1166.463
11,0.016667,1163.036
12,0.018333,1162.738
13,0.02005,1162.738
14,0.021667,1162.589
15,0.023333,1166.016
16,0.025,1167.059
17,0.026667,1167.059
18,0.028333,1168.624
19,0.03,1168.4
20,0.031667,1168.4
21,0.033317,1166.314
22,0.034983,1165.643
23,0.036667,1162.291
24,0.038317,1162.291
25,0.039983,1163.334
26,0.04165,1163.93
27,0.043317,1164.004
28,0.044983,1164.004
29,0.04665,1166.239
30,0.048317,1166.761
31,0.049983,1168.549
32,0.05165,1168.549
33,0.05345,1168.102
34,0.054983,1167.208
35,0.05665,1167.208
36,0.058317,1166.388
37,0.059983,1164.6
38,0.06165,1165.271
39,0.063317,1165.271
40,0.064983,1165.271
41,0.06665,1165.122
42,0.068317,1163.781
43,0.069983,1163.781
44,0.07165000000000001,1166.09
45,0.07331699999999999,1167.506
46,0.07498299999999999,1169.741
47,0.07665,1169.741
48,0.078317,1171.306
49,0.079983,1169.071
50,0.08165,1171.678
51,0.083317,1171.678
52,0.084983,1169.89
53,0.08665,1169.518
54,0.08831700000000001,1169.518
55,0.08998299999999999,1168.549
56,0.09165,1163.855
57,0.093317,1165.196
58,0.094967,1165.196
59,0.096633,1164.377
60,0.0983,1165.196
61,0.099967,1166.09
62,0.101633,1166.09
63,0.1033,1163.781
64,0.104967,1164.377
65,0.106633,1165.941
66,0.1083,1165.941
67,0.109967,1165.271
68,0.111633,1167.58
69,0.1133,1167.58
70,0.114967,1169.741
71,0.116633,1169.965
72,0.118283,1170.412
73,0.11995,1170.412
74,0.121617,1169.592
75,0.123283,1163.855
76,0.12495,1161.471
77,0.126617,1161.471
78,0.128283,1161.844
79,0.12995,1160.875
80,0.131617,1163.259
81,0.133333,1163.259
82,0.13495,1164.6
83,0.136617,1166.835
84,0.13835,1167.282
85,0.13995,1167.282
86,0.141617,1167.357
87,0.143283,1167.282
88,0.14495,1167.282
89,0.146617,1164.749
90,0.148283,1164.451
91,0.14995,1164.675
92,0.151617,1164.675
93,0.153267,1166.463
94,0.154933,1166.537
95,0.1566,1168.326
96,0.158267,1168.326
97,0.159933,1169.22
98,0.1616,1171.008
99,0.163267,1173.466
100,0.164933,1173.466
101,0.1666,1172.274
102,0.168267,1171.157
103,0.169933,1171.157
104,0.171633,1166.91
105,0.173267,1163.781
106,0.174933,1164.451
107,0.1766,1164.451
108,0.178267,1167.879
109,0.179933,1168.996
110,0.1816,1169.145
111,0.183267,1169.145
112,0.18495,1168.624
113,0.1866,1165.643
114,0.188267,1166.463
115,0.189933,1166.463
116,0.1916,1166.91
117,0.193267,1166.612
118,0.194933,1168.847
119,0.1966,1168.847
120,0.198267,1167.506
121,0.199933,1167.133
122,0.2016,1167.133
123,0.203267,1166.91
124,0.204933,1164.526
125,0.206617,1163.483
126,0.208283,1163.483
127,0.209933,1165.718
128,0.211583,1169.071
129,0.21325,1169.592
130,0.214917,1169.592
131,0.216583,1171.529
132,0.21825,1171.827
133,0.219917,1169.145
134,0.221583,1169.145
135,0.22325,1169.443
136,0.224917,1168.027
137,0.226583,1168.027
138,0.22825,1164.749
139,0.229917,1163.557
140,0.231583,1164.526
141,0.23325,1164.526
142,0.234917,1165.047
143,0.236583,1167.208
144,0.23825,1168.027
145,0.239917,1168.027
146,0.241583,1167.059
147,0.24325,1168.624
148,0.244917,1167.357
149,0.246583,1167.357
150,0.24825,1166.612
151,0.249917,1166.463
152,0.251583,1166.463
153,0.25325,1164.153
154,0.254917,1167.208
155,0.25665,1168.922
156,0.25825,1168.922
157,0.259917,1169.071
158,0.261583,1167.133
159,0.26325,1162.365
160,0.264917,1162.365
161,0.266583,1164.824
162,0.26825,1164.377
163,0.269917,1167.58
164,0.271583,1167.58
165,0.273233,1168.326
166,0.274933,1164.079
167,0.276633,1163.855
168,0.278233,1163.855
169,0.2799,1164.824
170,0.281567,1167.357
171,0.283233,1167.357
172,0.2849,1170.263
173,0.286567,1171.455
174,0.288233,1170.859
175,0.2899,1170.859
176,0.291567,1170.933
177,0.293233,1168.922
178,0.2949,1170.263
179,0.296567,1170.263
180,0.298233,1169.965
181,0.2999,1169.443
182,0.301567,1171.604
183,0.303233,1171.604
184,0.3049,1169.89
185,0.306567,1170.933
186,0.308233,1170.933
187,0.3099,1169.89
188,0.311567,1166.984
189,0.313233,1167.357
190,0.3149,1167.357
191,0.316567,1166.612
192,0.318233,1168.177
193,0.3199,1172.349
194,0.321567,1172.349
195,0.323233,1172.572
196,0.3249,1171.902
197,0.326567,1170.263
198,0.328233,1170.263
199,0.3299,1165.569
200,0.331567,1165.047
201,0.333217,1164.898
202,0.334883,1164.898
203,0.33655,1167.208
204,0.338217,1167.655
205,0.339883,1167.655
206,0.34155,1168.177
207,0.343217,1168.326
208,0.344883,1167.655
209,0.34655,1167.655
210,0.348217,1170.412
211,0.349883,1172.945
212,0.35155,1172.498
213,0.353217,1172.498
214,0.354883,1174.063
215,0.35655,1171.678
216,0.358217,1169.89
217,0.359883,1169.89
218,0.36155,1168.102
219,0.363217,1165.643
220,0.364883,1165.643
221,0.36655,1166.686
222,0.368217,1165.792
223,0.369883,1169.22
224,0.37155,1169.22
225,0.373217,1172.274
226,0.374883,1173.69
227,0.37655,1173.541
228,0.378217,1173.541
229,0.379883,1176.074
230,0.38155,1174.882
231,0.383217,1176.447
232,0.384883,1176.447
233,0.38655,1179.129
234,0.388217,1179.427
235,0.389883,1183.525
236,0.391633,1183.525
237,0.3932,1187.324
238,0.394867,1189.56
239,0.396533,1189.56
240,0.3982,1192.093
241,0.399867,1193.583
242,0.401533,1196.265
243,0.4032,1196.265
244,0.404867,1199.842
245,0.406533,1204.908
246,0.408283,1208.931
247,0.40985,1208.931
248,0.411517,1209.825
249,0.413183,1216.233
250,0.41485,1220.703
251,0.416517,1220.703
252,0.418183,1225.248
253,0.41985,1229.271
254,0.421517,1229.271
255,0.423183,1230.836
256,0.42485,1231.432
257,0.426517,1233.593
258,0.428183,1233.593
259,0.42985,1237.541
260,0.431517,1239.479
261,0.433183,1241.416
262,0.43485,1241.416
263,0.436517,1241.714
264,0.438183,1242.384
265,0.43985,1246.11
266,0.441517,1246.11
267,0.4432,1245.514
268,0.44485,1244.172
269,0.446517,1244.172
270,0.448183,1243.427
271,0.44985,1236.498
272,0.451517,1235.157
273,0.453167,1235.157
274,0.454833,1234.636
275,0.4565,1230.687
276,0.458167,1229.048
277,0.459833,1229.048
278,0.4615,1225.397
279,0.463167,1222.119
280,0.464833,1223.683
281,0.4665,1223.683
282,0.468167,1225.844
283,0.469833,1226.738
284,0.4715,1225.77
285,0.473167,1225.77
286,0.474833,1219.213
287,0.4765,1215.935
288,0.478167,1215.935
289,0.479833,1213.476
290,0.4815,1212.954
291,0.483167,1214.892
292,0.484833,1214.892
293,0.4865,1207.665
294,0.488167,1204.833
295,0.489833,1200.959
296,0.4915,1200.959
297,0.4932,1197.606
298,0.494833,1202.002
299,0.4965,1200.363
300,0.498167,1200.363
301,0.499833,1197.308
302,0.5014999999999999,1195.297
303,0.503167,1195.297
304,0.504833,1193.807
305,0.5065,1190.826
306,0.508167,1191.497
307,0.509883,1191.497
308,0.5115,1193.807
309,0.51315,1191.646
310,0.514817,1194.924
311,0.516483,1194.924
312,0.51815,1196.563
313,0.519817,1194.775
314,0.521483,1194.701
315,0.52315,1194.701
316,0.524817,1192.391
317,0.52655,1191.646
318,0.52815,1194.477
319,0.529817,1194.477
320,0.531483,1197.383
321,0.53315,1200.661
322,0.534817,1200.661
323,0.536483,1201.779
324,0.53815,1199.767
325,0.539817,1199.096
326,0.541483,1199.096
327,0.54325,1196.638
328,0.544817,1195.371
329,0.5464830000000001,1194.924
330,0.54815,1194.924
331,0.549817,1196.787
332,0.5514829999999999,1198.351
333,0.55315,1197.755
334,0.554817,1197.755
335,0.5564829999999999,1196.116
336,0.55815,1193.509
337,0.559817,1193.509
338,0.561483,1191.422
339,0.56315,1190.975
340,0.564817,1191.273
341,0.566483,1191.273
342,0.56815,1191.348
343,0.569817,1193.732
344,0.5714669999999999,1193.062
345,0.573133,1193.062
346,0.5748,1194.328
347,0.576467,1192.54
348,0.578133,1189.634
349,0.5798,1189.634
350,0.581467,1192.093
351,0.583133,1195.371
352,0.5848,1199.171
353,0.586467,1199.171
354,0.58815,1203.641
355,0.5898,1205.876
356,0.591467,1205.876
357,0.593133,1206.845
358,0.5948,1211.241
359,0.596467,1217.574
360,0.598133,1217.574
361,0.5998,1226.515
362,0.601467,1235.306
363,0.603133,1245.961
364,0.6048,1245.961
365,0.606483,1256.689
366,0.608133,1269.206
367,0.6098,1282.096
368,0.611467,1282.096
369,0.613133,1294.911
370,0.6148,1312.271
371,0.616467,1312.271
372,0.618133,1329.78
373,0.6198,1353.323
374,0.621467,1377.91
375,0.623133,1377.91
376,0.6248,1405.776
377,0.626467,1437.292
378,0.628167,1473.948
379,0.6298,1473.948
380,0.631467,1515.746
381,0.633117,1558.736
382,0.634783,1610.741
383,0.636483,1610.741
384,0.638117,1662.374
385,0.639783,1719.445
386,0.64145,1719.445
387,0.643117,1785.979
388,0.644817,1852.81
389,0.64645,1931.339
390,0.6481170000000001,1931.339
391,0.649783,2014.264
392,0.65145,2101.585
393,0.6531169999999999,2196.208
394,0.654783,2196.208
395,0.65645,2295.077
396,0.658117,2399.385
397,0.659783,2507.791
398,0.66155,2507.791
399,0.663117,2622.008
400,0.664783,2743.378
401,0.66645,2873.093
402,0.668117,2873.093
403,0.669783,3004.521
404,0.67145,3140.122
405,0.673117,3140.122
406,0.674783,3275.797
407,0.67645,3416.017
408,0.678117,3564.358
409,0.679783,3564.358
410,0.68145,3718.138
411,0.683117,3877.878
412,0.684783,4036.799
413,0.68645,4036.799
414,0.688117,4199.52
415,0.689783,4365.667
416,0.69145,4533.38
417,0.6931,4533.38
418,0.694767,4706.979
419,0.6964669999999999,4879.236
420,0.6981000000000001,4879.236
421,0.69975,5054.697
422,0.701417,5227.774
423,0.703083,5404.055
424,0.70475,5404.055
425,0.706417,5582.124
426,0.708083,5760.417
427,0.70975,5943.999
428,0.711417,5943.999
429,0.713083,6126.017
430,0.71475,6312.058
431,0.716417,6497.428
432,0.718083,6497.428
433,0.71975,6683.618
434,0.721417,6870.702
435,0.723083,7058.233
436,0.72475,7058.233
437,0.726417,7245.243
438,0.728083,7430.762
439,0.72975,7430.762
440,0.731417,7616.803
441,0.733083,7802.844
442,0.73475,7990.226
443,0.736417,7990.226
444,0.738083,8176.714
445,0.73975,8364.319
446,0.741417,8552
447,0.743083,8552
448,0.74475,8736.625
449,0.746417,8919.984
450,0.7480830000000001,9100.512000000001
451,0.74975,9100.512000000001
452,0.751417,9279.922
453,0.753067,9460.896000000001
454,0.754733,9460.896000000001
455,0.7564,9645.819
456,0.758067,9832.605
457,0.759733,10016.858
458,0.7614,10016.858
459,0.763083,10202.452
460,0.764733,10386.705
461,0.7664,10567.978
462,0.7680670000000001,10567.978
463,0.769733,10749.549
464,0.7714,10929.257
465,0.7730669999999999,11105.463
466,0.774733,11105.463
467,0.7764,11284.276
468,0.778067,11465.103
469,0.779833,11645.406
470,0.7814,11645.406
471,0.783067,11823.178
472,0.7847499999999999,11996.553
473,0.7864,11996.553
474,0.788067,12167.543
475,0.789733,12336.448
476,0.7914,12508.333
477,0.793067,12508.333
478,0.794733,12680.516
479,0.7964,12853.965
480,0.798067,13024.36
481,0.799733,13024.36
482,0.8014,13195.351
483,0.803067,13364.702
484,0.804733,13531.372
485,0.8064,13531.372
486,0.808067,13700.724
487,0.809733,13865.903
488,0.8114,13865.903
489,0.8130500000000001,14031.455
490,0.814717,14196.262
491,0.816383,14357.716
492,0.8180500000000001,14357.716
493,0.819717,14521.107
494,0.821383,14683.529
495,0.8230499999999999,14843.047
496,0.824717,14843.047
497,0.826383,15006.065
498,0.82805,15165.582
499,0.829717,15322.938
500,0.831383,15322.938
501,0.83305,15483.424
502,0.834717,15640.109
503,0.836383,15640.109
504,0.83805,15799.403
505,0.839717,15956.313
506,0.841383,16109.272
507,0.84305,16109.272
508,0.8447170000000001,16261.936
509,0.846383,16410.574
510,0.84805,16561.672
511,0.84975,16561.672
512,0.851383,16710.832
513,0.85305,16859.248
514,0.8547169999999999,17007.664
515,0.856383,17007.664
516,0.85805,17153.547
517,0.859717,17303.004
518,0.861383,17450.824
519,0.86305,17450.824
520,0.864833,17598.346
521,0.866383,17747.283
522,0.86805,17747.283
523,0.869717,17893.762
524,0.871383,18038.602
525,0.8730329999999999,18181.279
526,0.8747,18181.279
527,0.876367,18324.033
528,0.878033,18460.527
529,0.8797,18600.002
530,0.881367,18600.002
531,0.883033,18738.658
532,0.8847,18869.414
533,0.886367,19003.674
534,0.888033,19003.674
535,0.8897,19133.91
536,0.891367,19263.252
537,0.893033,19263.252
538,0.8947000000000001,19391.551
539,0.896367,19517.84
540,0.898133,19640.848
541,0.8997000000000001,19640.848
542,0.901367,19757.748
543,0.903033,19875.914
544,0.9046999999999999,19986.928
545,0.906367,19986.928
546,0.908033,20094.813
547,0.9097,20197.406
548,0.911367,20284.877
549,0.913033,20284.877
550,0.9147,20357.371
551,0.916367,20396.039
552,0.918033,20386.727
553,0.9197,20386.727
554,0.921367,20299.107
555,0.923033,20068.287
556,0.9247,20068.287
557,0.9263670000000001,19618.721
558,0.92805,18849.746
559,0.9297,17673.598
560,0.9313669999999999,17673.598
561,0.933017,16081.557
562,0.934683,14147.461
563,0.93635,12029.707
564,0.938017,12029.707
565,0.939683,9934.231
566,0.94135,8032.248
567,0.943017,6426.051
568,0.9446830000000001,6426.051
569,0.94635,5153.79
570,0.948017,4189.983
571,0.9496830000000001,4189.983
572,0.95135,3482.848
573,0.953017,2981.722
574,0.9546829999999999,2628.639
575,0.95635,2628.639
576,0.958017,2381.802
577,0.959683,2207.235
578,0.96135,2081.469
579,0.963017,2081.469
580,0.964683,1990.497
581,0.96635,1922.995
582,0.968017,1869.276
583,0.969683,1869.276
584,0.97135,1827.329
585,0.973017,1792.833
586,0.974683,1760.274
587,0.9763500000000001,1760.274
588,0.978017,1733.974
589,0.979683,1707.822
590,0.9813499999999999,1707.822
591,0.983067,1683.086
592,0.984683,1662.448
593,0.9863499999999999,1644.716
594,0.988017,1644.716
595,0.989683,1627.803
596,0.991333,1612.604
597,0.9929829999999999,1599.267
598,0.99465,1599.267
599,0.99635,1587.272
600,0.9980329999999999,1576.692
601,0.99965,1567.155
602,1.001317,1567.155
603,1.002983,1554.713
604,1.00465,1541.6
605,1.006317,1541.6
606,1.007983,1530.945
607,1.00965,1516.789
608,1.011317,1509.488
609,1.012983,1509.488
610,1.01465,1503.453
611,1.016417,1495.555
612,1.017983,1488.104
613,1.01965,1488.104
614,1.021317,1478.866
615,1.022983,1471.043
616,1.02465,1464.039
617,1.026317,1464.039
618,1.027983,1458.526
619,1.02965,1449.063
620,1.031317,1449.063
621,1.032983,1441.464
622,1.03465,1434.237
623,1.036317,1429.319
624,1.037983,1429.319
625,1.03965,1428.872
626,1.041317,1422.912
627,1.042983,1416.653
628,1.04465,1416.653
629,1.046317,1410.693
630,1.047983,1402.944
631,1.04965,1399.219
632,1.051317,1399.219
633,1.052967,1392.812
634,1.054633,1387.969
635,1.0563,1384.616
636,1.057967,1384.616
637,1.059633,1381.934
638,1.0613,1379.773
639,1.062967,1379.773
640,1.064633,1375.973
641,1.0663,1373.142
642,1.067967,1366.213
643,1.069633,1366.213
644,1.0713,1361.966
645,1.072967,1361.445
646,1.074633,1358.464
647,1.0763,1358.464
648,1.077967,1358.092
649,1.079633,1354.367
650,1.0813,1350.269
651,1.082967,1350.269
652,1.084633,1348.406
653,1.0863,1343.116
654,1.087967,1343.116
655,1.089633,1341.999
656,1.0913,1339.987
657,1.092967,1336.113
658,1.094633,1336.113
659,1.0963,1334.995
660,1.097967,1331.121
661,1.099633,1325.458
662,1.10135,1325.458
663,1.102967,1321.584
664,1.104633,1320.839
665,1.1063,1320.913
666,1.107967,1320.913
667,1.109633,1318.604
668,1.1113,1314.357
669,1.11295,1308.247
670,1.114617,1308.247
671,1.116283,1306.906
672,1.118017,1307.8
673,1.119617,1307.8
674,1.121283,1307.8
675,1.12295,1306.534
676,1.124617,1301.542
677,1.126283,1301.542
678,1.12795,1297.221
679,1.129617,1293.942
680,1.131283,1294.613
681,1.13295,1294.613
682,1.134717,1295.73
683,1.136283,1295.805
684,1.13795,1297.146
685,1.139617,1297.146
686,1.141283,1295.507
687,1.14295,1294.315
688,1.144617,1294.315
689,1.146283,1289.919
690,1.147967,1285.896
691,1.149617,1284.48
692,1.151283,1284.48
693,1.15295,1283.884
694,1.154617,1288.205
695,1.156283,1287.833
696,1.15795,1287.833
697,1.159617,1284.555
698,1.161283,1280.084
699,1.16295,1271.516
700,1.164617,1271.516
701,1.166283,1270.25
702,1.16795,1270.175
703,1.169617,1270.026
704,1.171283,1270.026
705,1.172933,1274.198
706,1.1746,1273.304
707,1.176267,1273.304
708,1.177933,1274.645
709,1.1796,1271.591
710,1.181267,1268.908
711,1.182933,1268.908
712,1.1846,1269.43
713,1.186267,1266.45
714,1.187933,1269.877
715,1.1896,1269.877
716,1.191267,1271.74
717,1.192933,1268.163
718,1.1946,1266.077
719,1.196267,1266.077
720,1.197933,1262.203
721,1.1996,1258.105
722,1.201267,1258.105
723,1.202933,1257.36
724,1.2046,1255.125
725,1.206267,1255.348
726,1.207933,1255.348
727,1.209633,1252.294
728,1.211267,1253.113
729,1.212933,1253.635
730,1.2146,1253.635
731,1.216267,1252.07
732,1.217933,1256.317
733,1.219617,1255.05
734,1.221267,1255.05
735,1.222933,1252.443
736,1.2246,1253.039
737,1.226267,1253.039
738,1.227933,1248.792
739,1.2296,1246.408
740,1.231267,1248.643
741,1.232917,1248.643
742,1.234583,1244.545
743,1.236367,1244.769
744,1.237917,1245.365
745,1.239583,1245.365
746,1.24125,1241.267
747,1.242917,1239.553
748,1.244583,1238.137
749,1.24625,1238.137
750,1.247917,1238.137
751,1.249583,1240.447
752,1.25125,1243.576
753,1.252983,1243.576
754,1.254583,1242.608
755,1.25625,1240.82
756,1.257917,1240.82
757,1.259583,1238.584
758,1.26125,1237.318
759,1.262917,1241.341
760,1.264583,1241.341
761,1.26625,1243.502
762,1.267917,1243.576
763,1.269683,1243.278
764,1.27125,1243.278
765,1.272917,1237.765
766,1.274583,1236.573
767,1.27625,1236.349
768,1.277917,1236.349
769,1.279583,1236.647
770,1.28125,1238.286
771,1.2829,1238.286
772,1.284567,1235.902
773,1.286233,1235.604
774,1.2879,1234.487
775,1.289583,1234.487
776,1.291233,1232.103
777,1.292883,1229.867
778,1.29455,1228.005
779,1.296217,1228.005
780,1.297883,1225.024
781,1.29955,1224.13
782,1.301217,1224.279
783,1.302883,1224.279
784,1.30455,1222.938
785,1.306217,1223.311
786,1.307883,1225.471
787,1.30955,1225.471
788,1.311217,1227.632
789,1.312883,1227.483
790,1.31455,1227.483
791,1.316217,1229.644
792,1.317883,1225.993
793,1.31955,1224.577
794,1.321217,1224.577
795,1.322883,1224.801
796,1.32455,1221.597
797,1.326217,1223.013
798,1.327883,1223.013
799,1.32955,1220.182
800,1.331217,1218.393
801,1.332883,1215.86
802,1.33455,1215.86
803,1.336217,1211.539
804,1.337883,1214.072
805,1.33955,1214.072
806,1.341217,1214.519
807,1.342883,1216.68
808,1.34455,1220.405
809,1.346217,1220.405
810,1.347883,1219.139
811,1.34955,1220.778
812,1.351217,1224.13
813,1.352867,1224.13
814,1.3546,1225.695
815,1.3562,1225.024
816,1.357867,1223.758
817,1.359533,1223.758
818,1.3612,1220.48
819,1.362867,1218.319
820,1.364533,1219.437
821,1.3662,1219.437
822,1.367867,1221.97
823,1.369533,1220.852
824,1.371283,1220.852
825,1.372867,1219.734
826,1.374533,1217.574
827,1.3762,1215.637
828,1.377867,1215.637
829,1.379533,1216.009
830,1.3812,1217.052
831,1.382867,1218.692
832,1.384533,1218.692
833,1.3862,1215.711
834,1.387967,1212.88
835,1.389533,1212.209
836,1.3912,1212.209
837,1.392867,1210.794
838,1.39455,1212.209
839,1.3962,1212.209
840,1.397867,1215.115
841,1.399533,1216.084
842,1.4012,1216.084
843,1.402867,1216.084
844,1.404533,1214.519
845,1.4062,1214.147
846,1.407867,1209.825
847,1.409533,1209.825
848,1.4112,1208.931
849,1.41285,1210.719
850,1.414517,1208.633
851,1.416183,1208.633
852,1.41785,1209.676
853,1.419517,1211.39
854,1.421183,1211.39
855,1.42285,1211.166
856,1.424517,1211.986
857,1.426183,1211.837
858,1.427883,1211.837
859,1.429517,1207.739
860,1.431183,1208.037
861,1.43285,1206.547
862,1.434517,1206.547
863,1.436183,1207.069
864,1.43785,1210.868
865,1.439517,1207.963
866,1.441183,1207.963
867,1.44285,1209.602
868,1.444517,1207.367
869,1.446183,1204.163
870,1.44785,1204.163
871,1.449517,1204.386
872,1.451183,1202.524
873,1.45285,1202.524
874,1.454517,1207.516
875,1.456183,1209.155
876,1.45785,1207.516
877,1.459517,1207.516
878,1.461183,1206.696
879,1.46285,1204.908
880,1.464517,1205.578
881,1.466183,1205.578
882,1.46785,1206.696
883,1.469517,1206.845
884,1.471183,1201.481
885,1.4729,1201.481
886,1.4745,1196.712
887,1.476167,1197.383
888,1.477833,1197.383
889,1.4795,1196.638
890,1.481167,1200.438
891,1.482833,1201.704
892,1.4845,1201.704
893,1.486167,1199.618
894,1.487833,1200.14
895,1.48955,1198.575
896,1.491167,1198.575
897,1.492833,1198.351
898,1.4945,1199.096
899,1.496167,1199.916
900,1.497833,1199.916
901,1.4995,1198.724
902,1.501167,1201.63
903,1.502833,1201.332
904,1.5045,1201.332
905,1.506283,1200.661
906,1.507833,1202.077
907,1.5095,1202.077
908,1.511167,1200.438
909,1.512833,1200.736
910,1.5145,1200.14
911,1.516167,1200.14
912,1.517833,1199.693
