"ID","sea_time","fid_signal"
1,0,1185.313
2,0.001667,1185.313
3,0.003383,1183.897
4,0.005,1183.748
5,0.006667,1186.877
6,0.008333,1186.877
7,0.01,1187.25
8,0.011667,1186.579
9,0.013333,1186.579
10,0.015,1185.089
11,0.016667,1184.866
12,0.018333,1187.026
13,0.02005,1187.026
14,0.021683,1189.634
15,0.023333,1192.838
16,0.025,1190.528
17,0.026667,1190.528
18,0.028333,1186.281
19,0.03,1185.238
20,0.031667,1185.685
21,0.033333,1185.685
22,0.035,1187.399
23,0.03675,1191.944
24,0.038317,1191.199
25,0.039983,1191.199
26,0.04165,1190.081
27,0.043317,1190.23
28,0.044983,1190.23
29,0.04665,1186.207
30,0.048317,1186.952
31,0.049983,1187.548
32,0.05165,1187.548
33,0.053317,1188.815
34,0.054983,1192.093
35,0.05665,1190.603
36,0.058317,1190.603
37,0.059983,1187.101
38,0.06165,1186.729
39,0.063317,1186.058
40,0.064983,1186.058
41,0.06665,1189.038
42,0.068317,1191.348
43,0.069983,1191.348
44,0.07165000000000001,1190.23
45,0.07331699999999999,1187.995
46,0.07498299999999999,1185.462
47,0.07665,1185.462
48,0.078317,1184.046
49,0.079983,1185.387
50,0.08165,1190.528
51,0.083317,1190.528
52,0.084983,1191.497
53,0.08665,1192.167
54,0.08833299999999999,1192.614
55,0.08998299999999999,1192.614
56,0.09165,1188.815
57,0.093317,1190.528
58,0.095,1190.081
59,0.09665,1190.081
60,0.0983,1186.877
61,0.099967,1186.803
62,0.101633,1186.803
63,0.1033,1185.015
64,0.104967,1185.462
65,0.106633,1185.238
66,0.1083,1185.238
67,0.109967,1186.803
68,0.111633,1187.548
69,0.1133,1189.262
70,0.114967,1189.262
71,0.116633,1192.391
72,0.1183,1189.709
73,0.119967,1187.623
74,0.121633,1187.623
75,0.1233,1184.791
76,0.124967,1181.811
77,0.126633,1181.811
78,0.1283,1182.184
79,0.129967,1184.493
80,0.131633,1187.25
81,0.1333,1187.25
82,0.134967,1189.932
83,0.136633,1191.571
84,0.1384,1189.932
85,0.139967,1189.932
86,0.141633,1189.262
87,0.1433,1188.815
88,0.144967,1189.932
89,0.146633,1189.932
90,0.1483,1187.846
91,0.149967,1185.015
92,0.151633,1182.929
93,0.1533,1182.929
94,0.155067,1181.141
95,0.156633,1183.674
96,0.158283,1183.674
97,0.15995,1184.27
98,0.161617,1184.866
99,0.163283,1184.493
100,0.16495,1184.493
101,0.166617,1180.246
102,0.168283,1178.309
103,0.169967,1180.023
104,0.17175,1180.023
105,0.173283,1183.078
106,0.17495,1189.411
107,0.176617,1195.073
108,0.178283,1195.073
109,0.17995,1191.869
110,0.181617,1186.729
111,0.183283,1186.729
112,0.18495,1182.78
113,0.186617,1179.725
114,0.1883,1183.599
115,0.18995,1183.599
116,0.191617,1185.536
117,0.193283,1185.611
118,0.19495,1186.952
119,0.196617,1186.952
120,0.198283,1186.281
121,0.19995,1188.591
122,0.201617,1190.007
123,0.203283,1190.007
124,0.20495,1190.305
125,0.206617,1186.654
126,0.208283,1186.654
127,0.20995,1184.27
128,0.211617,1187.846
129,0.213283,1185.387
130,0.21495,1185.387
131,0.2166,1184.568
132,0.218267,1185.387
133,0.219933,1182.78
134,0.2216,1182.78
135,0.223267,1183.525
136,0.224933,1185.834
137,0.2266,1184.568
138,0.228267,1184.568
139,0.229933,1185.76
140,0.2316,1185.611
141,0.233267,1182.929
142,0.234933,1182.929
143,0.2366,1182.482
144,0.238267,1180.768
145,0.239933,1180.768
146,0.241633,1179.576
147,0.243267,1181.662
148,0.244933,1183.376
149,0.2466,1183.376
150,0.248267,1183.823
151,0.249933,1185.387
152,0.2516,1184.568
153,0.253267,1184.568
154,0.254933,1183.972
155,0.256667,1181.737
156,0.258267,1183.227
157,0.259933,1183.227
158,0.2616,1184.493
159,0.263267,1181.811
160,0.264933,1181.811
161,0.2666,1182.929
162,0.268267,1180.47
163,0.269933,1181.066
164,0.2716,1181.066
165,0.27335,1183.227
166,0.274933,1179.427
167,0.276583,1178.682
168,0.27825,1178.682
169,0.279917,1177.266
170,0.281583,1176.819
171,0.283233,1183.003
172,0.2849,1183.003
173,0.286567,1184.866
174,0.288233,1185.76
175,0.29,1186.356
176,0.291567,1186.356
177,0.293233,1183.823
178,0.2949,1187.101
179,0.296567,1187.101
180,0.298233,1190.007
181,0.2999,1192.763
182,0.301567,1197.308
183,0.303233,1197.308
184,0.3049,1200.065
185,0.306567,1205.578
186,0.30825,1213.476
187,0.3099,1213.476
188,0.311567,1223.46
189,0.313233,1235.977
190,0.3149,1252.592
191,0.316567,1252.592
192,0.318233,1271.442
193,0.3199,1290.143
194,0.321567,1290.143
195,0.323233,1310.036
196,0.3249,1328.96
197,0.326567,1354.516
198,0.328233,1354.516
199,0.3299,1386.479
200,0.331567,1422.167
201,0.333233,1461.804
202,0.3349,1461.804
203,0.336567,1503.229
204,0.338217,1546.815
205,0.339883,1594.871
206,0.34155,1594.871
207,0.343217,1648.217
208,0.344883,1702.607
209,0.34655,1760.349
210,0.348217,1760.349
211,0.349883,1823.306
212,0.35155,1887.158
213,0.353217,1887.158
214,0.354883,1955.852
215,0.35655,2028.346
216,0.358217,2099.723
217,0.359883,2099.723
218,0.36155,2179.965
219,0.363233,2263.635
220,0.364883,2353.117
221,0.36655,2353.117
222,0.368217,2453.253
223,0.369883,2558.976
224,0.37155,2677.739
225,0.373217,2677.739
226,0.37495,2812.892
227,0.37655,2970.174
228,0.378217,2970.174
229,0.379883,3162.25
230,0.38155,3399.402
231,0.383217,3699.437
232,0.384883,3699.437
233,0.38655,4084.483
234,0.388217,4570.037
235,0.389883,5187.318
236,0.3916,5187.318
237,0.393217,5963.594
238,0.394883,6929.189
239,0.396533,8115.769
240,0.3982,8115.769
241,0.399867,9550.825000000001
242,0.401533,11263.489
243,0.4032,11263.489
244,0.404867,13273.284
245,0.406533,15600.025
246,0.408317,18252.582
247,0.409867,18252.582
248,0.411533,21233.633
249,0.4132,24540.945
250,0.414867,28154.105
251,0.416533,28154.105
252,0.4182,32039.359
253,0.419867,36146.195
254,0.421533,40396.004
255,0.4232,40396.004
256,0.424867,44705.422
257,0.426533,48972.742
258,0.4282,53074.957
259,0.429867,53074.957
260,0.431533,56897.477
261,0.4332,60323.848
262,0.434867,60323.848
263,0.436533,63249.469
264,0.4382,65590.07000000001
265,0.439867,67273.898
266,0.441533,67273.898
267,0.4432,68257.75
268,0.444867,68515.242
269,0.446533,68050.54700000001
270,0.4482,68050.54700000001
271,0.449867,66901.82000000001
272,0.451533,65125.375
273,0.4532,62800.945
274,0.4549,62800.945
275,0.456517,60027.539
276,0.458183,56899.488
277,0.45985,56899.488
278,0.461517,53517.594
279,0.463183,49986.691
280,0.46485,46389.848
281,0.466517,46389.848
282,0.468183,42806.566
283,0.46985,39307.027
284,0.471517,35939.215
285,0.473183,35939.215
286,0.47485,32744.184
287,0.476517,29750.168
288,0.478183,26965.662
289,0.47985,26965.662
290,0.481517,24398.268
291,0.483183,22041.053
292,0.48485,19891.486
293,0.486517,19891.486
294,0.488183,17938.242
295,0.489867,16167.015
296,0.491517,16167.015
297,0.493183,14569.61
298,0.49485,13130.009
299,0.496517,11837.408
300,0.498183,11837.408
301,0.49985,10676.31
302,0.501517,9636.134
303,0.503183,8707.047
304,0.50485,8707.047
305,0.506517,7880.703
306,0.5081830000000001,7144.585
307,0.50985,6489.828
308,0.511517,6489.828
309,0.5131829999999999,5910.173
310,0.514833,5392.06
311,0.5165,5392.06
312,0.518167,4936.233
313,0.519833,4533.008
314,0.5215,4173.964
315,0.523167,4173.964
316,0.524833,3858.954
317,0.526617,3582.612
318,0.5281670000000001,3339.201
319,0.529833,3339.201
320,0.531533,3125.146
321,0.5331669999999999,2937.093
322,0.534833,2766.997
323,0.5365,2766.997
324,0.538167,2617.463
325,0.539833,2486.482
326,0.5415,2367.944
327,0.543167,2367.944
328,0.544833,2262.965
329,0.5465,2173.036
330,0.548167,2173.036
331,0.549833,2088.845
332,0.5515,2013.519
333,0.553167,1950.935
334,0.554833,1950.935
335,0.5565,1890.585
336,0.558167,1837.835
337,0.559833,1791.12
338,0.5615,1791.12
339,0.563167,1749.62
340,0.564833,1715.273
341,0.5665,1682.937
342,0.568167,1682.937
343,0.569833,1655.444
344,0.5715,1628.25
345,0.573167,1628.25
346,0.574833,1603.514
347,0.576467,1581.609
348,0.578133,1559.779
349,0.5798,1559.779
350,0.581467,1538.917
351,0.583133,1517.758
352,0.5848,1500.919
353,0.586467,1500.919
354,0.588133,1485.795
355,0.5898,1473.501
356,0.591467,1465.306
357,0.593133,1465.306
358,0.5948,1453.608
359,0.596467,1444.668
360,0.598133,1444.668
361,0.5998,1434.46
362,0.601467,1421.571
363,0.603133,1413.45
364,0.6048,1413.45
365,0.606467,1405.627
366,0.608133,1400.113
367,0.6098,1396.388
368,0.611467,1396.388
369,0.613133,1389.98
370,0.6148,1382.008
371,0.616467,1374.632
372,0.618133,1374.632
373,0.6198,1364.35
374,0.621467,1359.582
375,0.623133,1354.739
376,0.6248,1354.739
377,0.626467,1351.312
378,0.6281330000000001,1349.524
379,0.6298,1349.524
380,0.631467,1346.096
381,0.6331329999999999,1343.563
382,0.6348,1337.826
383,0.636467,1337.826
384,0.638117,1334.026
385,0.639783,1329.705
386,0.64145,1324.713
387,0.643117,1324.713
388,0.6449,1320.839
389,0.64645,1320.317
390,0.6481170000000001,1319.572
391,0.649783,1319.572
392,0.65145,1321.807
393,0.6531169999999999,1318.678
394,0.654783,1318.678
395,0.65645,1316.294
396,0.658117,1313.165
397,0.659783,1307.428
398,0.66145,1307.428
399,0.663117,1307.875
400,0.664783,1302.51
401,0.66645,1297.221
402,0.668133,1297.221
403,0.669783,1296.923
404,0.67145,1294.166
405,0.673117,1289.323
406,0.674783,1289.323
407,0.67645,1288.578
408,0.678117,1286.715
409,0.679783,1286.864
410,0.68145,1286.864
411,0.683117,1289.174
412,0.684783,1287.833
413,0.68645,1287.833
414,0.688117,1286.119
415,0.689783,1281.947
416,0.69145,1278.818
417,0.693117,1278.818
418,0.694783,1280.084
419,0.69645,1277.998
420,0.6981000000000001,1278.743
421,0.699767,1278.743
422,0.701433,1280.904
423,0.7030999999999999,1277.253
424,0.704767,1275.241
425,0.706433,1275.241
426,0.7081,1275.092
427,0.709767,1271.814
428,0.711433,1271.814
429,0.7131,1272.485
430,0.714767,1271.293
431,0.716433,1266.897
432,0.7181,1266.897
433,0.719767,1265.556
434,0.721433,1261.905
435,0.7231,1260.117
436,0.7247670000000001,1260.117
437,0.726433,1259.074
438,0.7281,1254.827
439,0.729817,1251.772
440,0.731433,1251.772
441,0.7331,1252.741
442,0.7347669999999999,1254.007
443,0.736433,1256.019
444,0.7381,1256.019
445,0.739767,1256.168
446,0.741433,1254.976
447,0.7431,1254.976
448,0.744817,1252.815
449,0.746433,1250.953
450,0.7481,1251.176
451,0.749767,1251.176
452,0.751433,1249.76
453,0.7531,1250.058
454,0.754767,1248.717
455,0.756433,1248.717
456,0.758083,1250.505
457,0.75975,1251.698
458,0.761417,1249.984
459,0.763217,1249.984
460,0.76475,1250.058
461,0.766433,1246.333
462,0.768083,1246.333
463,0.76975,1242.906
464,0.771417,1241.788
465,0.773083,1241.192
466,0.77475,1241.192
467,0.776417,1244.321
468,0.778083,1243.055
469,0.7797500000000001,1242.012
470,0.781417,1242.012
471,0.783083,1241.714
472,0.7847499999999999,1238.734
473,0.786417,1239.851
474,0.788083,1239.851
475,0.78975,1241.49
476,0.791417,1239.851
477,0.793083,1238.137
478,0.79475,1238.137
479,0.796417,1234.859
480,0.798083,1231.059
481,0.79975,1231.059
482,0.801417,1228.526
483,0.803083,1227.558
484,0.80475,1228.75
485,0.8064170000000001,1228.75
486,0.808083,1226.738
487,0.80975,1227.185
488,0.8114170000000001,1228.452
489,0.813083,1228.452
490,0.81475,1228.675
491,0.8164169999999999,1228.75
492,0.818083,1230.538
493,0.819733,1230.538
494,0.821433,1232.028
495,0.823067,1232.475
496,0.824733,1232.475
497,0.8264,1235.306
498,0.828067,1235.306
499,0.8297330000000001,1232.103
500,0.8314,1232.103
501,0.833067,1226.962
502,0.8347329999999999,1225.62
503,0.8364,1223.534
504,0.838067,1223.534
505,0.839733,1224.95
506,0.8414,1226.813
507,0.843067,1225.024
508,0.844733,1225.024
509,0.8464,1223.981
510,0.848117,1221.821
511,0.849733,1221.821
512,0.8514,1225.099
513,0.853067,1225.397
514,0.854733,1224.726
515,0.8564000000000001,1224.726
516,0.858067,1223.087
517,0.859733,1220.256
518,0.8614000000000001,1219.511
519,0.863067,1219.511
520,0.864783,1220.331
521,0.866383,1221.299
522,0.86805,1219.511
523,0.869717,1219.511
524,0.871383,1218.17
525,0.87305,1217.35
526,0.874717,1215.264
527,0.876367,1215.264
528,0.878033,1213.998
529,0.8797,1215.488
530,0.881483,1216.009
531,0.883033,1216.009
532,0.8847,1217.052
533,0.886367,1216.829
534,0.888033,1216.829
535,0.8897,1212.507
536,0.891367,1209.825
537,0.893033,1207.59
538,0.894717,1207.59
539,0.89645,1208.708
540,0.898033,1213.774
541,0.8997000000000001,1216.605
542,0.901367,1216.605
543,0.903033,1216.903
544,0.9046999999999999,1216.754
545,0.906367,1216.754
546,0.908033,1212.954
547,0.9097,1214.594
548,0.911367,1217.574
549,0.913033,1217.574
550,0.9147,1218.84
551,0.916367,1217.276
552,0.918033,1213.029
553,0.9197,1213.029
554,0.921367,1211.464
555,0.923033,1209.155
556,0.9247,1210.868
557,0.9263670000000001,1210.868
558,0.928033,1210.123
559,0.9297,1209.9
560,0.9313669999999999,1211.166
561,0.933033,1211.166
562,0.9347,1209.602
563,0.93635,1210.645
564,0.938017,1210.645
565,0.939683,1211.464
566,0.941367,1208.708
567,0.943017,1210.645
568,0.9446830000000001,1210.645
569,0.94635,1210.049
570,0.948017,1206.398
571,0.9496830000000001,1209.527
572,0.95135,1209.527
573,0.953017,1208.261
574,0.9546829999999999,1206.622
575,0.95635,1209.378
576,0.958017,1209.378
577,0.959683,1209.08
578,0.96135,1209.08
579,0.96305,1209.08
580,0.9647,1210.198
581,0.966383,1208.633
582,0.968017,1204.908
583,0.969683,1204.908
584,0.97135,1204.833
585,0.973017,1207.963
586,0.974683,1206.845
587,0.9763500000000001,1206.845
588,0.978017,1206.845
589,0.979683,1209.155
590,0.9813499999999999,1207.814
591,0.983117,1207.814
592,0.984683,1207.963
593,0.9863499999999999,1207.888
594,0.988017,1207.888
595,0.989683,1206.696
596,0.99135,1202.747
597,0.993017,1205.504
598,0.994667,1205.504
599,0.996333,1206.026
600,0.998,1206.622
601,0.999717,1209.08
602,1.001333,1209.08
603,1.003,1207.292
604,1.004667,1209.229
605,1.006333,1205.504
606,1.008,1205.504
607,1.009667,1205.504
608,1.011333,1203.939
609,1.013,1203.045
610,1.014667,1203.045
611,1.016467,1204.163
612,1.018,1202.524
613,1.019667,1202.524
614,1.021333,1204.982
615,1.023,1202.375
