"ID","sea_time","fid_signal"
1,0,143.044
2,0.001667,143.021
3,0.003333,143.237
4,0.005,143.655
5,0.006667,143.655
6,0.008333,143.312
7,0.009983000000000001,143.081
8,0.01165,142.939
9,0.013317,142.939
10,0.014983,142.373
11,0.01665,142.232
12,0.018317,142.276
13,0.019983,142.276
14,0.02165,142.038
15,0.023317,142.06
16,0.02505,142.06
17,0.02665,141.971
18,0.028317,142.209
19,0.029983,142.395
20,0.03165,142.395
21,0.033317,142.552
22,0.034983,142.649
23,0.03665,142.545
24,0.038317,142.545
25,0.039983,142.604
26,0.041733,142.82
27,0.043317,142.924
28,0.044983,142.924
29,0.04665,143.155
30,0.048317,143.245
31,0.05,143.29
32,0.05165,143.29
33,0.053317,143.297
34,0.054983,142.939
35,0.05665,142.939
36,0.058417,142.649
37,0.059983,142.559
38,0.06165,142.351
39,0.063317,142.351
40,0.064983,142.612
41,0.06665,142.82
42,0.068317,142.515
43,0.069967,142.515
44,0.071633,142.649
45,0.0733,142.269
46,0.07496700000000001,142.254
47,0.07663300000000001,142.254
48,0.07829999999999999,142.485
49,0.079967,142.664
50,0.081633,142.664
51,0.0833,143.074
52,0.084967,143.088
53,0.086633,143.044
54,0.088283,143.044
55,0.08995,142.969
56,0.091617,142.783
57,0.093283,142.694
58,0.09495000000000001,142.694
59,0.09661699999999999,142.433
60,0.098283,142.515
61,0.09995,142.537
62,0.101617,142.537
63,0.103283,142.88
64,0.10495,143.126
65,0.106617,143.126
66,0.108283,142.708
67,0.10995,142.701
68,0.111617,142.06
69,0.113283,142.06
70,0.11495,141.852
71,0.116617,142.03
72,0.118283,141.814
73,0.11995,141.814
74,0.121617,142.246
75,0.123283,142.634
76,0.12495,142.783
77,0.12665,142.783
78,0.128283,142.939
79,0.129933,142.731
80,0.1316,142.656
81,0.133267,142.656
82,0.134933,142.671
83,0.1366,142.582
84,0.138283,142.582
85,0.139933,142.686
86,0.1416,142.448
87,0.143333,142.522
88,0.144933,142.522
89,0.1466,142.641
90,0.148283,142.291
91,0.149933,142.425
92,0.1516,142.425
93,0.153267,142.269
94,0.154933,142.448
95,0.1566,142.835
96,0.158267,142.835
97,0.159983,142.954
98,0.1616,143.006
99,0.163267,143.006
100,0.164933,142.463
101,0.1666,142.276
102,0.168267,141.717
103,0.169933,141.717
104,0.1716,141.777
105,0.173267,142.075
106,0.174933,142.157
107,0.176717,142.157
108,0.178267,142.545
109,0.179933,142.53
110,0.1816,142.738
111,0.183267,142.738
112,0.184933,142.694
113,0.1866,142.641
114,0.18825,142.641
115,0.189917,142.708
116,0.191583,142.694
117,0.19325,142.746
118,0.194917,142.746
119,0.196583,142.738
120,0.19825,142.686
121,0.199917,142.418
122,0.201583,142.418
123,0.20325,142.269
124,0.204917,142.232
125,0.206583,142.053
126,0.20825,142.053
127,0.209917,142.053
128,0.211583,142.001
129,0.21325,142.142
130,0.214917,142.142
131,0.2166,142.567
132,0.218267,142.41
133,0.219983,142.41
134,0.221583,142.738
135,0.22325,142.872
136,0.224917,142.567
137,0.226583,142.567
138,0.22825,142.686
139,0.229917,142.552
140,0.231583,142.485
141,0.23325,142.485
142,0.234917,142.366
143,0.236583,142.485
144,0.23825,142.232
145,0.239917,142.232
146,0.241583,141.926
147,0.24325,142.016
148,0.244917,142.016
149,0.246583,141.807
150,0.248233,142.217
151,0.2499,142.209
152,0.251567,142.209
153,0.253233,142.202
154,0.2549,142.552
155,0.256567,142.805
156,0.258233,142.805
157,0.2599,143.111
158,0.261567,143.2
159,0.263233,143.17
160,0.2649,143.17
161,0.266567,142.567
162,0.268233,142.418
163,0.2699,142.097
164,0.271567,142.097
165,0.273233,141.934
166,0.2749,142.001
167,0.276567,142.001
168,0.278283,142.269
169,0.2799,142.492
170,0.281567,142.425
171,0.283233,142.425
172,0.2849,142.679
173,0.286567,142.679
174,0.288233,143.237
175,0.2899,143.237
176,0.291567,143.707
177,0.293233,144.489
178,0.295033,145.465
179,0.296567,145.465
180,0.298233,146.665
181,0.2999,149.019
182,0.301567,149.019
183,0.303233,151.694
184,0.3049,155.129
185,0.306567,159.793
186,0.308217,159.793
187,0.309883,164.926
188,0.31155,171.721
189,0.313217,180.304
190,0.314883,180.304
191,0.31655,190.124
192,0.318217,202.335
193,0.319883,216.104
194,0.32155,216.104
195,0.323217,231.944
196,0.324883,250.317
197,0.32655,270.68
198,0.328217,270.68
199,0.329883,293.776
200,0.33155,319.391
201,0.333217,319.391
202,0.334883,347.346
203,0.33655,377.528
204,0.338217,410.244
205,0.339883,410.244
206,0.34155,445.321
207,0.343217,482.559
208,0.344883,522.427
209,0.34655,522.427
210,0.348217,564.545
211,0.349883,608.824
212,0.35155,655.621
213,0.353217,655.621
214,0.354883,705.063
215,0.35655,757.046
216,0.358217,757.046
217,0.359883,811.4349999999999
218,0.36155,868.633
219,0.363217,928.923
220,0.364883,928.923
221,0.36655,992.514
222,0.3682,1059.92
223,0.3699,1131.14
224,0.371533,1131.14
225,0.3732,1206.808
226,0.374867,1287.624
227,0.376533,1374.282
228,0.3782,1374.282
229,0.379933,1468.517
230,0.381517,1571.424
231,0.383183,1571.424
232,0.38485,1684.345
233,0.386517,1810.26
234,0.388183,1950.927
235,0.38985,1950.927
236,0.391517,2109.103
237,0.393183,2288.289
238,0.39485,2491.087
239,0.396517,2491.087
240,0.398183,2720.602
241,0.39985,2979.405
242,0.401517,3268.689
243,0.403183,3268.689
244,0.40485,3589.861
245,0.406517,3942.042
246,0.408183,4324.093
247,0.40985,4324.093
248,0.411517,4733.615
249,0.413283,5164.847
250,0.41485,5164.847
251,0.416517,5612.776
252,0.418183,6069.161
253,0.41985,6525.561
254,0.421517,6525.561
255,0.423183,6972.85
256,0.42485,7399.864
257,0.4265,7797.397
258,0.428167,7797.397
259,0.429833,8155.338
260,0.431517,8464.999
261,0.433167,8720.391
262,0.434833,8720.391
263,0.4365,8915.029
264,0.438167,9044.326999999999
265,0.439833,9044.326999999999
266,0.4415,9106.300999999999
267,0.443167,9100.303
268,0.444833,9027.34
269,0.4465,9027.34
270,0.448167,8891.246999999999
271,0.449833,8696.735000000001
272,0.4515,8448.861000000001
273,0.453167,8448.861000000001
274,0.454833,8155.406
275,0.4565,7823.661
276,0.458167,7461.138
277,0.459833,7461.138
278,0.4615,7075.615
279,0.4632,6673.783
280,0.464833,6262.772
281,0.4665,6262.772
282,0.468167,5849.294
283,0.469833,5438.857
284,0.4715,5438.857
285,0.473167,5036.652
286,0.474833,4646.599
287,0.4765,4271.515
288,0.478167,4271.515
289,0.479833,3914.58
290,0.4815,3577.597
291,0.483167,3261.767
292,0.484833,3261.767
293,0.4865,2968.006
294,0.48815,2696.209
295,0.489817,2446.16
296,0.491483,2446.16
297,0.49315,2217.025
298,0.494817,2007.984
299,0.496483,2007.984
300,0.498167,1818.232
301,0.499817,1646.891
302,0.501483,1492.761
303,0.50315,1492.761
304,0.504817,1354.352
305,0.506483,1230.061
306,0.50815,1118.265
307,0.509817,1118.265
308,0.511483,1018.226
309,0.51315,929.2140000000001
310,0.514817,849.955
311,0.516483,849.955
312,0.51815,779.942
313,0.519817,717.6849999999999
314,0.521483,662.111
315,0.52315,662.111
316,0.524817,612.9
317,0.526483,569.1420000000001
318,0.52815,569.1420000000001
319,0.529817,530.198
320,0.531583,495.568
321,0.53315,464.819
322,0.534817,464.819
323,0.536483,437.275
324,0.53815,412.762
325,0.539817,391.006
326,0.541483,391.006
327,0.54315,371.441
328,0.544817,353.888
329,0.5464830000000001,338.189
330,0.54815,338.189
331,0.5498,323.899
332,0.551467,311.464
333,0.553133,311.464
334,0.5548,299.998
335,0.556467,289.693
336,0.558133,280.76
337,0.5598,280.76
338,0.561467,272.17
339,0.563133,264.786
340,0.5648,258.133
341,0.5664670000000001,258.133
342,0.568133,251.882
343,0.5698,246.279
344,0.5714669999999999,240.9
345,0.573133,240.9
346,0.5748,235.751
347,0.576467,231.043
348,0.578133,226.945
349,0.5798,226.945
350,0.581467,223.145
351,0.583133,219.703
352,0.5848,219.703
353,0.586467,216.611
354,0.588133,213.712
355,0.5898,210.874
356,0.591467,210.874
357,0.593133,208.415
358,0.594817,206.076
359,0.596467,203.714
360,0.598133,203.714
361,0.5998,201.59
362,0.601467,199.541
363,0.603133,197.656
364,0.6048,197.656
365,0.606467,195.943
366,0.608117,194.423
367,0.609783,194.423
368,0.61145,192.836
369,0.613117,191.405
370,0.614783,189.96
371,0.616533,189.96
372,0.618117,188.582
373,0.619783,187.397
374,0.6214499999999999,185.862
375,0.623117,185.862
376,0.624783,184.834
377,0.62645,184
378,0.628117,183.441
379,0.629783,183.441
380,0.63145,182.837
381,0.633117,182.092
382,0.634783,182.092
383,0.63645,181.243
384,0.638117,180.244
385,0.639783,179.35
386,0.64145,179.35
387,0.643117,178.173
388,0.644783,177.115
389,0.64645,176.251
390,0.6481170000000001,176.251
391,0.649833,175.603
392,0.65145,175.402
393,0.6531169999999999,174.969
394,0.654783,174.969
395,0.65645,174.582
396,0.658117,174.344
397,0.659783,173.599
398,0.66145,173.599
399,0.663117,173.084
400,0.664783,172.153
401,0.66645,172.153
402,0.668117,171.095
403,0.669767,170.268
404,0.671417,169.799
405,0.673083,169.799
406,0.67475,169.426
407,0.676417,169.471
408,0.678083,169.128
409,0.67975,169.128
410,0.6814170000000001,168.592
411,0.683083,168.093
412,0.68475,167.325
413,0.6864170000000001,167.325
414,0.688083,167.295
415,0.68975,167.072
416,0.6914169999999999,167.072
417,0.693083,167.064
418,0.69475,166.878
419,0.696417,166.595
420,0.698083,166.595
421,0.69975,166.498
422,0.701417,166.148
423,0.703083,165.902
424,0.70475,165.902
425,0.706417,165.544
426,0.708083,165.209
427,0.70975,164.703
428,0.711417,164.703
429,0.713083,164.203
430,0.71475,163.853
431,0.71645,163.399
432,0.718083,163.399
433,0.71975,163.108
434,0.721417,162.885
435,0.723083,162.885
436,0.72475,162.423
437,0.726417,162.11
438,0.728067,161.864
439,0.729733,161.864
440,0.7314000000000001,161.7
441,0.733067,161.402
442,0.73475,161.126
443,0.7364000000000001,161.126
444,0.738067,160.97
445,0.739733,160.843
446,0.7413999999999999,160.784
447,0.743067,160.784
448,0.744733,160.359
449,0.7464,160.001
450,0.748067,160.001
451,0.749733,159.808
452,0.7514999999999999,159.845
453,0.753067,160.024
454,0.754733,160.024
455,0.7564,160.098
456,0.758067,159.554
457,0.759733,159.368
458,0.7614,159.368
459,0.7630670000000001,159.018
460,0.764733,158.653
461,0.7664,158.601
462,0.768167,158.601
463,0.76975,157.915
464,0.7714,157.811
465,0.7730669999999999,157.855
466,0.774733,157.855
467,0.7764,157.96
468,0.778067,158.042
469,0.779733,158.042
470,0.7814,157.729
471,0.783067,157.528
472,0.784833,157.103
473,0.7864,157.103
474,0.78805,156.827
475,0.789717,156.879
476,0.7913829999999999,156.589
477,0.79305,156.589
478,0.794717,156.686
479,0.7964,156.485
480,0.79805,156.298
481,0.799783,156.298
482,0.801383,156.201
483,0.80305,156.075
484,0.804717,156.075
485,0.806383,156.06
486,0.80805,155.702
487,0.809717,155.486
488,0.811383,155.486
489,0.8130500000000001,155.285
490,0.814717,155.136
491,0.816383,155.181
492,0.8180500000000001,155.181
493,0.819717,155.181
494,0.821383,154.763
495,0.8230499999999999,154.786
496,0.824717,154.786
497,0.826383,154.622
498,0.82805,154.316
499,0.829717,154.316
500,0.831383,154.205
501,0.83305,153.862
502,0.834717,153.951
503,0.836383,153.951
504,0.83805,154.041
505,0.839717,154.1
506,0.841383,154.339
507,0.84305,154.339
508,0.8447170000000001,154.227
509,0.846383,154.294
510,0.848033,154.354
511,0.8497,154.354
512,0.851367,154.003
513,0.853083,153.787
514,0.8547,153.4
515,0.856367,153.4
516,0.858033,153.08
517,0.8597,153.027
518,0.861367,153.027
519,0.8630330000000001,152.692
520,0.8647,152.521
521,0.866433,152.29
522,0.8680330000000001,152.29
523,0.869767,152.104
524,0.871367,152.245
525,0.8730329999999999,152.327
526,0.8747,152.327
527,0.876367,152.58
528,0.878033,152.633
529,0.8797,152.417
530,0.881367,152.417
531,0.883033,152.394
532,0.8847,152.029
533,0.886433,151.947
534,0.888033,151.947
535,0.8897,151.791
536,0.891367,151.508
537,0.893033,151.508
538,0.8947000000000001,151.746
539,0.896367,151.649
540,0.898033,151.634
541,0.8997000000000001,151.634
542,0.901367,151.686
543,0.9031,151.396
544,0.9046999999999999,151.165
545,0.906367,151.165
546,0.908033,151.485
547,0.909683,151.351
548,0.91135,151.232
549,0.913017,151.232
550,0.914683,151.388
551,0.91635,151.046
552,0.918017,151.046
553,0.919683,150.874
554,0.92135,151.053
555,0.923017,150.718
556,0.924683,150.718
557,0.92635,150.539
558,0.928017,150.554
559,0.929683,150.226
560,0.93135,150.226
561,0.933017,150.621
562,0.934683,150.621
563,0.93635,150.844
564,0.938017,150.844
565,0.939683,151.142
566,0.941383,150.718
567,0.943017,150.718
568,0.9446830000000001,150.792
569,0.94635,150.442
570,0.948017,150.137
571,0.9496830000000001,150.137
572,0.95135,150.196
573,0.953017,150.04
574,0.9546829999999999,150.33
575,0.95635,150.33
576,0.958017,150.211
577,0.959683,149.973
578,0.96135,149.794
579,0.963,149.794
580,0.9646670000000001,149.421
581,0.966333,149.287
582,0.967983,149.287
583,0.96965,149.518
584,0.971317,149.511
585,0.972983,149.429
586,0.97465,149.429
587,0.976317,149.727
588,0.977983,149.623
589,0.97965,149.727
590,0.981317,149.727
591,0.9829830000000001,149.794
592,0.98465,149.846
593,0.986317,149.727
594,0.988017,149.727
595,0.98965,149.518
596,0.991317,149.548
597,0.9929829999999999,149.041
598,0.99465,149.041
599,0.996317,149.027
600,0.997983,149.287
601,0.99965,149.287
602,1.001317,149.28
603,1.002983,149.295
604,1.0047,149.332
605,1.006317,149.332
606,1.007983,149.012
607,1.00965,148.676
608,1.01135,148.691
609,1.012983,148.691
610,1.01465,148.542
611,1.016317,148.535
612,1.017983,148.706
613,1.01965,148.706
614,1.021417,148.952
615,1.022983,148.989
616,1.02465,148.989
617,1.026317,148.982
618,1.027967,148.989
619,1.029633,148.848
620,1.0313,148.848
621,1.032967,148.594
622,1.034633,148.609
623,1.0363,148.483
624,1.037967,148.483
625,1.039633,148.483
626,1.0413,148.647
627,1.042967,148.699
628,1.044633,148.699
629,1.0463,148.766
630,1.047967,148.632
631,1.049633,148.453
632,1.0513,148.453
633,1.052967,148.356
634,1.054633,148.222
635,1.0563,148.222
636,1.057967,148.05
637,1.059633,147.931
638,1.0613,147.551
639,1.062967,147.551
640,1.064633,147.291
641,1.0663,147.082
642,1.067967,146.985
643,1.069633,146.985
644,1.0713,147.186
645,1.072967,147.469
646,1.074633,147.939
647,1.076317,147.939
648,1.077967,148.319
649,1.079633,148.103
650,1.0813,148.103
651,1.082983,147.633
652,1.084633,147.186
653,1.0863,147.074
654,1.08795,147.074
655,1.089617,147.231
656,1.091283,147.358
657,1.09295,147.38
658,1.094617,147.38
659,1.096283,147.186
660,1.09795,147.097
661,1.099617,147.171
662,1.101283,147.171
663,1.10295,147.216
664,1.104617,147.454
665,1.106283,147.626
666,1.10795,147.626
667,1.109617,147.887
668,1.111283,147.864
669,1.11295,147.864
670,1.114617,147.663
671,1.116283,147.656
672,1.11795,147.596
673,1.119617,147.596
674,1.121283,147.559
675,1.12295,147.454
676,1.124617,147.305
677,1.126283,147.305
678,1.12795,147.06
679,1.129617,147.119
680,1.131283,147.365
681,1.13295,147.365
682,1.134617,147.603
683,1.136283,147.7
684,1.13795,147.7
685,1.139617,147.76
686,1.141283,147.551
687,1.14295,147.268
688,1.144617,147.268
689,1.146283,147.276
690,1.147933,147.022
691,1.1496,146.925
692,1.151267,146.925
693,1.152933,147.209
694,1.154617,147.35
695,1.156267,147.775
696,1.157933,147.775
697,1.1596,147.954
698,1.161267,147.618
699,1.162933,147.209
700,1.1646,147.209
701,1.166267,146.836
702,1.167933,146.553
703,1.1696,146.553
704,1.171267,146.262
705,1.17295,146.285
706,1.1746,145.905
707,1.176283,145.905
708,1.177933,145.637
709,1.1796,146.113
710,1.181267,146.158
711,1.182933,146.158
712,1.1846,146.538
713,1.186267,146.754
714,1.187933,146.583
715,1.1896,146.583
716,1.191267,146.627
717,1.192933,146.665
718,1.1946,146.665
719,1.196267,146.754
720,1.197933,146.642
721,1.1996,146.896
722,1.201267,146.896
723,1.202933,146.754
724,1.2046,146.866
725,1.20625,146.97
726,1.207917,146.97
727,1.209583,146.717
728,1.21125,146.806
729,1.212917,146.799
730,1.214583,146.799
731,1.21625,146.814
732,1.217917,146.94
733,1.219583,146.94
734,1.22125,146.784
735,1.222917,146.687
736,1.22465,146.531
737,1.22625,146.531
738,1.227917,146.24
739,1.229583,146.113
740,1.23125,145.987
741,1.232917,145.987
742,1.234583,145.823
743,1.23625,145.607
744,1.237917,145.614
745,1.239583,145.614
746,1.24125,145.718
747,1.242917,145.935
748,1.244583,145.935
749,1.24625,145.935
750,1.247917,145.853
751,1.249583,145.599
752,1.25125,145.599
753,1.252917,145.547
754,1.254567,145.815
755,1.256233,146.21
756,1.2579,146.21
757,1.259567,146.434
758,1.261233,146.374
759,1.2629,146.106
760,1.264567,146.106
761,1.266233,145.83
762,1.267883,145.592
763,1.26955,145.793
764,1.271217,145.793
765,1.272883,146.061
766,1.27455,146.024
767,1.276217,146.024
768,1.277883,146.285
769,1.27955,146.195
770,1.281217,146.188
771,1.282883,146.188
772,1.28455,146.21
773,1.286217,146.292
774,1.287883,146.098
775,1.28955,146.098
776,1.291233,145.957
777,1.292883,145.666
778,1.29455,145.502
779,1.296217,145.502
780,1.297883,145.674
781,1.29955,145.808
782,1.301217,146.016
783,1.302883,146.016
784,1.30455,145.882
785,1.306217,145.689
786,1.307883,145.689
787,1.30955,145.547
788,1.311217,145.666
789,1.312883,145.614
790,1.31455,145.614
791,1.316217,145.487
792,1.317883,145.376
793,1.31955,145.227
794,1.321217,145.227
795,1.322883,145.115
796,1.32455,145.316
797,1.326217,145.659
798,1.327867,145.659
799,1.329533,145.875
800,1.3312,146.292
801,1.332867,146.292
802,1.334533,146.233
803,1.3362,145.897
804,1.337867,145.629
805,1.339533,145.629
806,1.3412,145.182
807,1.342933,145.234
808,1.344533,145.51
809,1.3462,145.51
810,1.347883,145.629
811,1.349533,145.771
812,1.3512,145.786
813,1.352867,145.786
814,1.354533,145.681
815,1.3562,145.696
816,1.357867,145.905
817,1.359533,145.905
818,1.361233,146.009
819,1.362867,145.689
820,1.364533,145.689
821,1.3662,145.398
822,1.367867,145.108
823,1.369533,145.13
824,1.3712,145.13
825,1.372867,145.502
826,1.374533,145.569
827,1.3762,145.614
828,1.377867,145.614
829,1.379533,145.294
830,1.3812,145.264
831,1.382867,145.577
832,1.384533,145.577
833,1.3862,145.48
834,1.387867,145.547
835,1.389517,145.547
836,1.391183,145.398
837,1.39285,145.197
838,1.394517,145.338
839,1.396183,145.338
840,1.39785,145.406
841,1.399517,145.398
842,1.401183,145.249
843,1.40285,145.249
844,1.404517,145.108
845,1.406183,144.996
846,1.40785,144.951
847,1.409517,144.951
848,1.411183,145.212
849,1.41285,145.234
850,1.414517,145.234
851,1.416183,145.264
852,1.41785,145.137
853,1.419517,145.152
854,1.421183,145.152
855,1.42285,145.264
856,1.424517,145.167
857,1.426183,145.249
858,1.42785,145.249
859,1.429517,145.249
860,1.431183,145.294
861,1.43285,145.234
862,1.434517,145.234
863,1.436183,145.234
864,1.43785,144.906
865,1.439517,144.78
866,1.441183,144.78
867,1.44285,144.839
868,1.444517,144.847
869,1.446183,144.847
870,1.447833,144.929
871,1.4495,144.683
872,1.451167,144.675
873,1.452833,144.675
874,1.4545,144.862
875,1.456167,145.137
876,1.457833,145.674
877,1.4595,145.674
878,1.461233,145.771
879,1.462833,145.391
880,1.4645,145.391
881,1.466167,145.391
882,1.467833,145.398
883,1.4695,145.443
884,1.471167,145.443
885,1.472833,145.428
886,1.4745,145.115
887,1.476167,144.862
888,1.477833,144.862
889,1.4795,144.765
890,1.481167,144.929
891,1.482833,144.944
892,1.4845,144.944
893,1.486167,144.958
894,1.487833,145.212
895,1.4895,145.122
896,1.491167,145.122
897,1.492833,145.227
898,1.4946,145.063
899,1.496167,144.534
900,1.497833,144.534
901,1.4995,144.802
902,1.501167,144.698
903,1.502833,144.698
904,1.5045,144.333
905,1.506167,144.623
906,1.507817,144.459
907,1.509483,144.459
908,1.51115,144.422
909,1.512817,144.824
910,1.514517,144.675
911,1.516217,144.675
912,1.517817,144.72
913,1.519483,144.78
914,1.52115,144.452
915,1.522817,144.452
916,1.524483,144.273
917,1.52615,143.893
918,1.527817,143.893
919,1.529483,144.02
920,1.53115,144.385
921,1.532817,144.809
922,1.534483,144.809
923,1.53615,145.122
924,1.537817,144.966
925,1.539483,144.698
926,1.54115,144.698
927,1.542817,144.541
928,1.544483,144.474
929,1.546133,144.593
930,1.5478,144.593
931,1.549467,144.936
932,1.551133,144.75
933,1.5528,144.765
934,1.554467,144.765
935,1.556133,144.467
936,1.5578,144.407
937,1.559467,144.407
938,1.561133,144.258
939,1.5628,144.273
940,1.564467,144.511
941,1.566133,144.511
942,1.567783,144.444
943,1.56945,144.765
944,1.571117,144.899
945,1.572783,144.899
946,1.57445,144.944
947,1.576117,144.854
948,1.577783,144.787
949,1.579533,144.787
950,1.58115,144.407
951,1.582783,144.169
952,1.58445,144.169
953,1.586117,144.295
