"ID","sea_time","fid_signal"
1,0,1194.999
2,0.001667,1194.104
3,0.003333,1195.222
4,0.005,1195.222
5,0.006667,1194.254
6,0.008333,1192.316
7,0.01,1187.995
8,0.011667,1187.995
9,0.013383,1183.525
10,0.014983,1179.427
11,0.01665,1181.364
12,0.018317,1181.364
13,0.019983,1184.046
14,0.02165,1188.293
15,0.023317,1188.293
16,0.024983,1189.858
17,0.02665,1191.646
18,0.028317,1194.03
19,0.0301,1194.03
20,0.03165,1190.007
21,0.033317,1190.677
22,0.034983,1190.454
23,0.03665,1190.454
24,0.038317,1187.921
25,0.039983,1188.368
26,0.04165,1190.23
27,0.043317,1190.23
28,0.044983,1188.442
29,0.04665,1190.603
30,0.048317,1190.603
31,0.049983,1191.944
32,0.05165,1188.964
33,0.053317,1188.666
34,0.054983,1188.666
35,0.05665,1188.442
36,0.058317,1191.124
37,0.059983,1192.391
38,0.06165,1192.391
39,0.063317,1190.305
40,0.064983,1190.007
41,0.06665,1185.76
42,0.068317,1185.76
43,0.069983,1187.176
44,0.07165000000000001,1189.485
45,0.0733,1189.709
46,0.07496700000000001,1189.709
47,0.07663300000000001,1189.709
48,0.07829999999999999,1189.485
49,0.079967,1189.485
50,0.081633,1191.497
51,0.0833,1190.305
52,0.084967,1191.795
53,0.086633,1191.795
54,0.0883,1192.838
55,0.08996700000000001,1189.411
56,0.09163300000000001,1186.281
57,0.09329999999999999,1186.281
58,0.094967,1184.568
59,0.096633,1183.301
60,0.0983,1187.026
61,0.099967,1187.026
62,0.101633,1188.591
63,0.1033,1189.113
64,0.104967,1189.113
65,0.106633,1187.995
66,0.1083,1185.387
67,0.109967,1186.132
68,0.111633,1186.132
69,0.1133,1188.815
70,0.114983,1188.666
71,0.116633,1187.176
72,0.1183,1187.176
73,0.119967,1185.536
74,0.121633,1184.568
75,0.1233,1184.642
76,0.124967,1184.642
77,0.126633,1184.642
78,0.1283,1185.462
79,0.129967,1183.227
80,0.13165,1183.227
81,0.1333,1185.909
82,0.13495,1189.709
83,0.136617,1189.709
84,0.138283,1192.167
85,0.13995,1192.167
86,0.141617,1189.709
87,0.143283,1189.709
88,0.14495,1190.454
89,0.146617,1188.74
90,0.1484,1192.614
91,0.14995,1192.614
92,0.151617,1191.869
93,0.153283,1188.144
94,0.15495,1190.379
95,0.156617,1190.379
96,0.158283,1189.113
97,0.159967,1189.187
98,0.161617,1189.187
99,0.163283,1188.889
100,0.16495,1187.921
101,0.166617,1187.623
102,0.168283,1187.623
103,0.16995,1190.081
104,0.171617,1191.944
105,0.173283,1189.783
106,0.17495,1189.783
107,0.176617,1190.454
108,0.178283,1190.081
109,0.17995,1186.952
110,0.181633,1186.952
111,0.183283,1187.772
112,0.18495,1185.089
113,0.186617,1185.089
114,0.188267,1185.536
115,0.189933,1186.207
116,0.1916,1185.983
117,0.193267,1185.983
118,0.194917,1185.015
119,0.196583,1184.27
120,0.19825,1185.089
121,0.199917,1185.089
122,0.201583,1185.983
123,0.20325,1186.505
124,0.204917,1186.579
125,0.206583,1186.579
126,0.20825,1186.729
127,0.209917,1184.717
128,0.211583,1184.493
129,0.21325,1184.493
130,0.214917,1182.78
131,0.216583,1181.737
132,0.21825,1181.737
133,0.219917,1183.376
134,0.221583,1185.089
135,0.22325,1186.729
136,0.224917,1186.729
137,0.226583,1188.815
138,0.22825,1190.901
139,0.229917,1191.571
140,0.231583,1191.571
141,0.23325,1193.285
142,0.234917,1191.05
143,0.236583,1187.921
144,0.23825,1187.921
145,0.239917,1188.964
146,0.241583,1185.387
147,0.24325,1185.387
148,0.244917,1185.909
149,0.246583,1186.132
150,0.24825,1182.78
151,0.249933,1182.78
152,0.251567,1180.917
153,0.253233,1182.035
154,0.2549,1182.109
155,0.256567,1182.109
156,0.258233,1184.419
157,0.2599,1187.176
158,0.261567,1185.983
159,0.263233,1185.983
160,0.2649,1188.815
161,0.2667,1188.591
162,0.268267,1190.23
163,0.269917,1190.23
164,0.271567,1189.038
165,0.273233,1185.462
166,0.2749,1185.462
167,0.276567,1187.399
168,0.278233,1185.089
169,0.2799,1187.176
170,0.281567,1187.176
171,0.283233,1188.666
172,0.2849,1188.07
173,0.286567,1192.316
174,0.288233,1192.316
175,0.2899,1198.277
176,0.291567,1205.653
177,0.293233,1211.241
178,0.2949,1211.241
179,0.296567,1219.287
180,0.298233,1226.44
181,0.2999,1226.44
182,0.301567,1234.04
183,0.303233,1243.278
184,0.3049,1253.188
185,0.306567,1253.188
186,0.308233,1267.418
187,0.3099,1284.48
188,0.311567,1304.075
189,0.313217,1304.075
190,0.314883,1322.553
191,0.31655,1340.508
192,0.318217,1363.754
193,0.319883,1363.754
194,0.32155,1390.874
195,0.323217,1425.445
196,0.324883,1460.314
197,0.32655,1460.314
198,0.328217,1497.567
199,0.329883,1539.066
200,0.33155,1539.066
201,0.333217,1580.492
202,0.3349,1629.219
203,0.33655,1678.616
204,0.338217,1678.616
205,0.339883,1732.781
206,0.34155,1790.896
207,0.343217,1854.673
208,0.344883,1854.673
209,0.34655,1924.261
210,0.348233,1996.458
211,0.349883,2076.998
212,0.351617,2076.998
213,0.353217,2164.915
214,0.354883,2256.408
215,0.35655,2256.408
216,0.358217,2354.309
217,0.359883,2461.895
218,0.36155,2578.795
219,0.363217,2578.795
220,0.364883,2711.415
221,0.36655,2865.493
222,0.368217,3038.347
223,0.369883,3038.347
224,0.37155,3240.258
225,0.3732,3484.636
226,0.374867,3776.997
227,0.376533,3776.997
228,0.3782,4130.9
229,0.379867,4560.277
230,0.381533,4560.277
231,0.3832,5078.167
232,0.384983,5701.035
233,0.386533,6448.85
234,0.3882,6448.85
235,0.389867,7336.289
236,0.391533,8378.178
237,0.3932,9596.422
238,0.394867,9596.422
239,0.396533,11006.966
240,0.3982,12633.651
241,0.399867,14500.544
242,0.401533,14500.544
243,0.4032,16631.037
244,0.404867,19038.916
245,0.406533,21732.227
246,0.4082,21732.227
247,0.409867,24695.77
248,0.411533,27898.178
249,0.4132,27898.178
250,0.414867,31298.92
251,0.416533,34831.391
252,0.4182,38419.813
253,0.419867,38419.813
254,0.421533,41972.848
255,0.4232,45400.262
256,0.424867,48610.566
257,0.426533,48610.566
258,0.4282,51524.266
259,0.429867,54069.609
260,0.431533,56190.418
261,0.4332,56190.418
262,0.43485,57838.484
263,0.436567,58981.105
264,0.438183,58981.105
265,0.43985,59603.082
266,0.441517,59699.418
267,0.443183,59284.121
268,0.44485,59284.121
269,0.446517,58382.453
270,0.448183,57028.754
271,0.44985,55266.617
272,0.451517,55266.617
273,0.453183,53150.805
274,0.45485,50740.84
275,0.456517,48107.133
276,0.458183,48107.133
277,0.45985,45311.898
278,0.461517,42411.535
279,0.463183,39467.215
280,0.46485,39467.215
281,0.466517,36530.941
282,0.468183,33648.016
283,0.46985,33648.016
284,0.471517,30864.924
285,0.473183,28212.443
286,0.47485,25708.004
287,0.476517,25708.004
288,0.478183,23374.408
289,0.479833,21220.223
290,0.4815,19241.869
291,0.483167,19241.869
292,0.484833,17441.809
293,0.4865,15809.61
294,0.488167,14325.977
295,0.489833,14325.977
296,0.4915,12983.605
297,0.49315,11768.043
298,0.494817,11768.043
299,0.496483,10665.432
300,0.49815,9671.151
301,0.499817,8772.687
302,0.501483,8772.687
303,0.503267,7958.263
304,0.504817,7220.134
305,0.506483,6556.437
306,0.50815,6556.437
307,0.509833,5959.943
308,0.511483,5426.183
309,0.51315,4951.805
310,0.514817,4951.805
311,0.516483,4525.482
312,0.51815,4142.448
313,0.519817,3802.627
314,0.521483,3802.627
315,0.52315,3500.059
316,0.524817,3233.925
317,0.526517,3233.925
318,0.52815,3004.298
319,0.529817,2802.014
320,0.531483,2625.361
321,0.53315,2625.361
322,0.534817,2466.962
323,0.536483,2325.103
324,0.53815,2200.455
325,0.539817,2200.455
326,0.541483,2092.645
327,0.54315,2001.822
328,0.544817,1923.814
329,0.5464830000000001,1923.814
330,0.54815,1853.555
331,0.549817,1791.418
332,0.5514829999999999,1791.418
333,0.55315,1736.283
334,0.554817,1688.302
335,0.5565,1649.335
336,0.558133,1649.335
337,0.5598,1611.71
338,0.561467,1579.672
339,0.563133,1552.552
340,0.5648,1552.552
341,0.5664670000000001,1526.848
342,0.568133,1507.923
343,0.5698,1489.967
344,0.5714669999999999,1489.967
345,0.573133,1474.023
346,0.5748,1459.42
347,0.576467,1459.42
348,0.578133,1445.413
349,0.5798,1431.555
350,0.581467,1418.516
351,0.583133,1418.516
352,0.5848,1406.968
353,0.586467,1397.058
354,0.588133,1388.49
355,0.5898,1388.49
356,0.591467,1380.444
357,0.593133,1374.558
358,0.5948,1366.437
359,0.596467,1366.437
360,0.598133,1359.582
361,0.5998,1353.845
362,0.601467,1345.5
363,0.603133,1345.5
364,0.604817,1338.571
365,0.606467,1331.717
366,0.608133,1331.717
367,0.6098,1323.67
368,0.611467,1319.2
369,0.613117,1318.827
370,0.614783,1318.827
371,0.6164500000000001,1316.965
372,0.618117,1315.624
373,0.619783,1317.859
374,0.621583,1317.859
375,0.623117,1317.412
376,0.624783,1317.635
377,0.62645,1315.624
378,0.628117,1315.624
379,0.629783,1310.11
380,0.631483,1304.224
381,0.633117,1304.224
382,0.634783,1300.424
383,0.63645,1300.871
384,0.638117,1299.307
385,0.639783,1299.307
386,0.64145,1299.232
387,0.643117,1294.017
388,0.644783,1288.727
389,0.64645,1288.727
390,0.6481170000000001,1286.045
391,0.649783,1280.457
392,0.65145,1280.68
393,0.6531169999999999,1280.68
394,0.654783,1278.594
395,0.65645,1276.21
396,0.658117,1276.284
397,0.659783,1276.284
398,0.66145,1277.998
399,0.663117,1278.818
400,0.664783,1278.818
401,0.66645,1276.433
402,0.668117,1275.39
403,0.669783,1274.422
404,0.67145,1274.422
405,0.6731,1272.783
406,0.674767,1274.422
407,0.676433,1273.826
408,0.6781,1273.826
409,0.679767,1268.238
410,0.681433,1267.344
411,0.6831,1265.854
412,0.684767,1265.854
413,0.686433,1263.842
414,0.688117,1263.544
415,0.689767,1263.544
416,0.691433,1263.842
417,0.6931,1261.607
418,0.694767,1259.074
419,0.69645,1259.074
420,0.6981000000000001,1258.031
421,0.699767,1253.858
422,0.701433,1251.101
423,0.7030999999999999,1251.101
424,0.704767,1251.176
425,0.706433,1251.176
426,0.7081,1250.356
427,0.709767,1250.356
428,0.711433,1253.933
429,0.7131,1254.529
430,0.714767,1255.125
431,0.716433,1255.125
432,0.7181,1255.944
433,0.719767,1251.176
434,0.721433,1251.176
435,0.723167,1248.419
436,0.7247670000000001,1245.365
437,0.726433,1243.129
438,0.7281,1243.129
439,0.7297670000000001,1243.874
440,0.731433,1244.321
441,0.733083,1245.29
442,0.73475,1245.29
443,0.736417,1245.067
444,0.7381,1243.427
445,0.739833,1244.396
446,0.741417,1244.396
447,0.743083,1244.992
448,0.74475,1246.78
449,0.746417,1246.78
450,0.7480830000000001,1246.855
451,0.74975,1244.694
452,0.751417,1241.863
453,0.7530829999999999,1241.863
454,0.75475,1238.51
455,0.756517,1238.883
456,0.758083,1238.883
457,0.75975,1238.883
458,0.761417,1239.255
459,0.763083,1239.181
460,0.76475,1238.883
461,0.766417,1238.883
462,0.768083,1240.373
463,0.76975,1238.286
464,0.7714,1238.286
465,0.7730669999999999,1238.286
466,0.774733,1238.436
467,0.7764,1234.412
468,0.778067,1234.412
469,0.779733,1235.53
470,0.7814,1233.444
471,0.783067,1233.891
472,0.784733,1233.891
473,0.7864,1235.008
474,0.788067,1233.816
475,0.789733,1233.593
476,0.7914,1233.593
477,0.79305,1232.55
478,0.794717,1230.24
479,0.796383,1230.389
480,0.79805,1230.389
481,0.799717,1230.612
482,0.801383,1227.707
483,0.80305,1227.707
484,0.804717,1229.346
485,0.806383,1226.589
486,0.80805,1224.875
487,0.809717,1224.875
488,0.811383,1224.801
489,0.8130500000000001,1222.938
490,0.814717,1224.95
491,0.816383,1224.95
492,0.8180500000000001,1227.26
493,0.819717,1230.389
494,0.821383,1231.581
495,0.8230499999999999,1231.581
496,0.824717,1230.985
497,0.826383,1229.867
498,0.82805,1229.867
499,0.829717,1226.366
500,0.831383,1223.609
501,0.83305,1223.013
502,0.834717,1223.013
503,0.836383,1223.758
504,0.83805,1223.013
505,0.839733,1222.417
506,0.841383,1222.417
507,0.84305,1221.597
508,0.8447170000000001,1221.225
509,0.846383,1224.428
510,0.84805,1224.428
511,0.8497169999999999,1226.515
512,0.851367,1227.334
513,0.853033,1227.707
514,0.8547,1227.707
515,0.856367,1227.26
516,0.858117,1227.632
517,0.8597,1227.632
518,0.861367,1225.173
519,0.8630330000000001,1223.609
520,0.8647,1220.703
521,0.866367,1220.703
522,0.8680330000000001,1217.499
523,0.8697,1216.829
524,0.871367,1213.402
525,0.8730329999999999,1213.402
526,0.8747,1212.582
527,0.876367,1213.551
528,0.878033,1216.68
529,0.8797,1216.68
530,0.881367,1219.362
531,0.883033,1221.746
532,0.8847,1221.746
533,0.886367,1222.566
534,0.888033,1221.97
535,0.8897,1219.884
536,0.891367,1219.884
537,0.893033,1216.456
538,0.8947000000000001,1216.903
539,0.896367,1214.37
540,0.898033,1214.37
541,0.8997000000000001,1214.892
542,0.901367,1214.817
543,0.903033,1212.209
544,0.9046999999999999,1212.209
545,0.906367,1212.06
546,0.908033,1212.954
547,0.9097,1215.86
548,0.91135,1215.86
549,0.913033,1214.966
550,0.914717,1215.562
551,0.9164,1215.562
552,0.918017,1213.998
553,0.919683,1210.868
554,0.92135,1212.135
555,0.923017,1212.135
556,0.924683,1209.08
557,0.92635,1206.771
558,0.928017,1205.206
559,0.929683,1205.206
560,0.93135,1203.492
561,0.933017,1204.61
562,0.934683,1209.751
563,0.93635,1209.751
564,0.938017,1213.029
565,0.939683,1214.147
566,0.94135,1214.147
567,0.943017,1214.445
568,0.9446830000000001,1210.943
569,0.94635,1208.112
570,0.948017,1208.112
571,0.9496830000000001,1206.845
572,0.95135,1207.59
573,0.953017,1210.347
574,0.9546829999999999,1210.347
575,0.95635,1209.527
576,0.958017,1207.59
577,0.9597,1207.739
578,0.96135,1207.739
579,0.963017,1203.045
580,0.964683,1203.716
581,0.96635,1203.716
582,0.968017,1205.206
583,0.969683,1204.684
584,0.97135,1206.249
585,0.973,1206.249
586,0.974667,1205.429
587,0.976367,1206.994
588,0.978,1206.771
589,0.979667,1206.771
590,0.981333,1205.28
591,0.983,1203.79
592,0.984667,1204.312
593,0.986333,1204.312
594,0.988,1203.939
595,0.989667,1205.429
596,0.991333,1208.037
597,0.993133,1208.037
598,0.994667,1206.547
599,0.996333,1205.355
600,0.998,1205.355
601,0.999667,1207.441
602,1.001333,1206.994
603,1.003,1206.622
604,1.004667,1206.622
605,1.006333,1208.857
606,1.008,1206.473
607,1.009667,1206.1
608,1.011333,1206.1
609,1.013,1206.771
610,1.014667,1204.088
611,1.016333,1202.3
612,1.018,1202.3
613,1.019667,1198.873
614,1.021333,1196.861
615,1.023,1196.861
