"ID","sea_time","fid_signal"
1,0,140.689
2,0.001667,140.689
3,0.0034,140.697
4,0.005,140.421
5,0.006667,140.324
6,0.00835,140.324
7,0.01,139.929
8,0.011667,139.631
9,0.013333,139.631
10,0.015,139.9
11,0.016667,140.093
12,0.018333,140.473
13,0.020017,140.473
14,0.021667,140.749
15,0.023333,140.913
16,0.025,140.987
17,0.026667,140.987
18,0.028333,140.943
19,0.03,140.943
20,0.031667,140.741
21,0.033333,140.741
22,0.035,140.391
23,0.036767,140.376
24,0.038317,140.376
25,0.039983,140.578
26,0.04165,140.987
27,0.043317,141.367
28,0.044983,141.367
29,0.04665,141.323
30,0.048317,141.39
31,0.049983,141.107
32,0.05165,141.107
33,0.053317,141.159
34,0.054983,140.92
35,0.056667,140.749
36,0.058317,140.749
37,0.059983,140.749
38,0.06165,140.317
39,0.063317,140.436
40,0.064983,140.436
41,0.06665,140.25
42,0.068317,140.28
43,0.069983,140.28
44,0.07165000000000001,140.518
45,0.07331699999999999,140.727
46,0.07498299999999999,140.578
47,0.07665,140.578
48,0.078317,140.66
49,0.079983,140.54
50,0.08165,140.108
51,0.083317,140.108
52,0.084983,140.443
53,0.08665,140.22
54,0.08831700000000001,140.391
55,0.08998299999999999,140.391
56,0.09165,140.518
57,0.093317,140.555
58,0.094983,140.555
59,0.096633,140.667
60,0.0983,140.57
61,0.099967,140.987
62,0.101633,140.987
63,0.1033,141.136
64,0.104967,141.062
65,0.106633,141.278
66,0.1083,141.278
67,0.109967,141.308
68,0.111633,140.741
69,0.1133,140.637
70,0.114967,140.637
71,0.116633,140.265
72,0.1183,139.996
73,0.119967,140.361
74,0.121667,140.361
75,0.123317,140.257
76,0.124967,140.622
77,0.126633,140.622
78,0.1283,140.727
79,0.129967,140.414
80,0.131633,140.525
81,0.1333,140.525
82,0.134967,140.347
83,0.136633,140.183
84,0.1383,140.466
85,0.139967,140.466
86,0.141633,140.66
87,0.1433,140.801
88,0.144967,140.883
89,0.146633,140.883
90,0.1483,140.682
91,0.149967,140.563
92,0.151633,140.563
93,0.1533,140.309
94,0.155067,140.592
95,0.156617,140.98
96,0.158283,140.98
97,0.15995,140.995
98,0.161617,141.323
99,0.163283,141.114
100,0.16495,141.114
101,0.166617,140.913
102,0.168283,140.674
103,0.16995,140.235
104,0.171617,140.235
105,0.173283,139.952
106,0.17495,140.063
107,0.176617,140.265
108,0.178283,140.265
109,0.17995,140.674
110,0.181617,140.712
111,0.183283,140.712
112,0.18495,140.697
113,0.186617,140.853
114,0.188283,140.443
115,0.18995,140.443
116,0.191617,140.518
117,0.193283,140.6
118,0.19495,140.622
119,0.196633,140.622
120,0.198283,140.972
121,0.19995,141.084
122,0.201617,140.861
123,0.203283,140.861
124,0.20495,140.779
125,0.206617,140.615
126,0.208283,140.615
127,0.20995,140.361
128,0.211617,140.332
129,0.213283,140.071
130,0.21495,140.071
131,0.2166,140.198
132,0.218267,140.548
133,0.219933,140.473
134,0.2216,140.473
135,0.223267,140.727
136,0.224933,140.622
137,0.2266,140.548
138,0.228267,140.548
139,0.229933,140.376
140,0.2316,140.138
141,0.233267,140.25
142,0.234933,140.25
143,0.236617,139.944
144,0.238267,140.198
145,0.239983,140.198
146,0.2416,140.503
147,0.243267,140.28
148,0.244933,140.518
149,0.2466,140.518
150,0.24825,140.324
151,0.249917,140.16
152,0.251583,140.034
153,0.25325,140.034
154,0.254917,139.907
155,0.256583,140.049
156,0.25825,140.265
157,0.259917,140.265
158,0.261583,140.786
159,0.26325,140.935
160,0.26495,140.935
161,0.266583,140.719
162,0.26825,140.384
163,0.269917,140.093
164,0.271583,140.093
165,0.273367,140.093
166,0.274917,140.332
167,0.276567,140.965
168,0.278233,140.965
169,0.2799,141.27
170,0.281567,141.524
171,0.283233,142.388
172,0.2849,142.388
173,0.286567,143.074
174,0.288233,144.444
175,0.2899,144.444
176,0.291567,146.575
177,0.293233,149.153
178,0.2949,152.521
179,0.296567,152.521
180,0.298233,157.103
181,0.2999,163.198
182,0.301567,171.17
183,0.303233,171.17
184,0.3049,181.444
185,0.306567,194.304
186,0.308233,209.577
187,0.3099,209.577
188,0.311567,227.727
189,0.313233,248.827
190,0.3149,272.945
191,0.316567,272.945
192,0.318233,301.085
193,0.3199,332.825
194,0.321567,332.825
195,0.323233,368.61
196,0.3249,408.567
197,0.326567,451.9
198,0.328233,451.9
199,0.3299,499.39
200,0.331567,550.665
201,0.333233,605.27
202,0.334917,605.27
203,0.336567,664.048
204,0.338217,725.552
205,0.339917,790.104
206,0.34155,790.104
207,0.343217,857.957
208,0.344883,927.88
209,0.34655,927.88
210,0.348217,1000.747
211,0.349883,1076.14
212,0.35155,1153.961
213,0.353217,1153.961
214,0.354883,1234.688
215,0.35655,1318.209
216,0.35825,1404.032
217,0.359883,1404.032
218,0.36155,1492.701
219,0.363217,1584.783
220,0.364883,1679.488
221,0.36655,1679.488
222,0.368217,1777.977
223,0.369883,1879.871
224,0.37155,1985.252
225,0.373217,1985.252
226,0.374933,2095.58
227,0.37655,2210.9
228,0.378217,2210.9
229,0.379883,2331.704
230,0.38155,2458.587
231,0.383217,2591.878
232,0.384883,2591.878
233,0.38655,2732.575
234,0.388217,2880.648
235,0.389883,3036.864
236,0.39165,3036.864
237,0.393217,3201.932
238,0.394867,3376.506
239,0.396533,3561.586
240,0.3982,3561.586
241,0.399867,3756.903
242,0.401533,3962.949
243,0.4032,3962.949
244,0.404867,4179.113
245,0.406533,4404.53
246,0.4082,4638.776
247,0.409867,4638.776
248,0.41155,4879.825
249,0.4132,5125.046
250,0.414867,5371.593
251,0.416533,5371.593
252,0.4182,5615.294
253,0.419867,5851.44
254,0.421533,6074.838
255,0.4232,6074.838
256,0.424867,6280.318
257,0.426533,6462.216
258,0.4282,6615.326
259,0.429867,6615.326
260,0.43155,6735.183
261,0.4332,6817.915
262,0.434867,6817.915
263,0.436533,6859.541
264,0.4382,6857.611
265,0.439867,6811.328
266,0.441533,6811.328
267,0.4432,6720.744
268,0.444867,6587.833
269,0.446533,6416.142
270,0.4482,6416.142
271,0.449867,6208.934
272,0.451533,5970.105
273,0.4532,5704.82
274,0.454867,5704.82
275,0.456517,5418.137
276,0.458183,5114.898
277,0.45985,5114.898
278,0.461517,4801.377
279,0.463183,4482.172
280,0.46485,4161.842
281,0.466517,4161.842
282,0.468183,3845.237
283,0.46985,3535.628
284,0.471517,3236.957
285,0.473183,3236.957
286,0.474867,2951.324
287,0.476517,2681.01
288,0.478183,2427.22
289,0.47985,2427.22
290,0.481517,2190.962
291,0.483183,1973.011
292,0.48485,1973.011
293,0.486517,1773.059
294,0.488183,1591.094
295,0.48985,1426.026
296,0.491517,1426.026
297,0.493233,1277.178
298,0.49485,1143.552
299,0.496517,1024.418
300,0.498183,1024.418
301,0.49985,918.612
302,0.501517,824.705
303,0.503183,742.13
304,0.50485,742.13
305,0.506517,668.95
306,0.5081830000000001,604.831
307,0.50995,548.564
308,0.511517,548.564
309,0.5131829999999999,498.876
310,0.51485,455.379
311,0.5165,455.379
312,0.5181829999999999,417.292
313,0.51985,384.368
314,0.5215,355.765
315,0.523167,355.765
316,0.524833,331.044
317,0.526617,308.946
318,0.5281670000000001,289.656
319,0.529833,289.656
320,0.5315,272.93
321,0.5331669999999999,258.282
322,0.534833,245.728
323,0.5365,245.728
324,0.538167,234.775
325,0.539817,225.127
326,0.541483,225.127
327,0.54315,216.737
328,0.544817,209.361
329,0.5464830000000001,202.715
330,0.54815,202.715
331,0.549817,196.993
332,0.5515330000000001,192.024
333,0.55315,187.553
334,0.554817,187.553
335,0.5564829999999999,183.456
336,0.55815,179.894
337,0.559817,176.445
338,0.561483,176.445
339,0.56315,173.785
340,0.564817,171.401
341,0.566483,169.218
342,0.56815,169.218
343,0.569817,167.407
344,0.571483,165.761
345,0.57315,165.761
346,0.574817,164.315
347,0.576467,163.116
348,0.578133,161.842
349,0.5798,161.842
350,0.581467,160.694
351,0.583133,159.673
352,0.5848,158.429
353,0.586483,158.429
354,0.588133,157.744
355,0.5898,156.634
356,0.591467,155.97
357,0.593133,155.97
358,0.5948,155.158
359,0.596467,154.234
360,0.59815,154.234
361,0.5998,154.048
362,0.601467,153.303
363,0.603133,152.901
364,0.6048,152.901
365,0.606467,152.64
366,0.608133,152.148
367,0.6098,151.984
368,0.6115,151.984
369,0.613133,151.791
370,0.6148,151.56
371,0.616467,151.15
372,0.618133,151.15
373,0.6198,150.532
374,0.621467,150.241
375,0.623133,149.705
376,0.6248,149.705
377,0.626467,149.406
378,0.628167,149.272
379,0.6298,149.272
380,0.631467,148.907
381,0.6331329999999999,148.863
382,0.6348,148.728
383,0.63645,148.728
384,0.638117,148.609
385,0.639783,148.356
386,0.64145,147.812
387,0.643117,147.812
388,0.644917,147.961
389,0.64645,147.864
390,0.6481170000000001,147.946
391,0.649783,147.946
392,0.65145,147.983
393,0.6531169999999999,147.454
394,0.654783,147.454
395,0.65645,147.223
396,0.658117,147.067
397,0.659783,147.022
398,0.66145,147.022
399,0.663117,146.776
400,0.664783,146.478
401,0.66645,146.374
402,0.668117,146.374
403,0.669783,146.389
404,0.67145,146.367
405,0.673117,146.605
406,0.674783,146.605
407,0.67645,146.411
408,0.678117,146.292
409,0.679783,146.292
410,0.68145,146.151
411,0.683117,145.964
412,0.684783,145.912
413,0.68645,145.912
414,0.688133,145.778
415,0.689783,145.599
416,0.69145,145.435
417,0.69315,145.435
418,0.694767,145.353
419,0.696433,145.078
420,0.6981000000000001,145.271
421,0.699767,145.271
422,0.701433,145.234
423,0.7030999999999999,145.063
424,0.704767,145.383
425,0.706433,145.383
426,0.7081,145.301
427,0.709767,145.212
428,0.711433,145.212
429,0.7131,145.257
430,0.714767,144.921
431,0.716433,144.713
432,0.7181,144.713
433,0.719767,144.541
434,0.721433,144.392
435,0.7231,144.698
436,0.7247670000000001,144.698
437,0.726433,144.772
438,0.7281,144.765
439,0.729783,144.728
440,0.731433,144.728
441,0.7331,144.511
442,0.7347669999999999,144.28
443,0.736433,144.28
444,0.7381,144.43
445,0.739767,144.333
446,0.741433,144.4
447,0.7431,144.4
448,0.744767,144.303
449,0.746433,144.325
450,0.7481,144.497
451,0.749767,144.497
452,0.751433,144.064
453,0.7531,144.124
454,0.754767,143.796
455,0.756417,143.796
456,0.758083,143.558
457,0.75975,143.751
458,0.761417,143.789
459,0.7632,143.789
460,0.76475,143.774
461,0.766417,144.079
462,0.768083,144.079
463,0.769783,144.05
464,0.771417,144.199
465,0.773083,144.422
466,0.77475,144.422
467,0.776417,144.251
468,0.778083,144.206
469,0.7797500000000001,143.99
470,0.781417,143.99
471,0.783083,143.714
472,0.7847499999999999,143.319
473,0.786417,143.133
474,0.788083,143.133
475,0.78975,143.141
476,0.791417,143.342
477,0.793083,143.342
478,0.79475,143.483
479,0.796417,143.737
480,0.798083,143.692
481,0.79975,143.692
482,0.801417,143.439
483,0.803083,143.416
484,0.80475,143.215
485,0.8064170000000001,143.215
486,0.808083,143.416
487,0.80975,143.543
488,0.8114170000000001,143.357
489,0.813083,143.357
490,0.81475,143.081
491,0.8164169999999999,142.671
492,0.818067,142.403
493,0.819733,142.403
494,0.8214,142.552
495,0.823067,142.701
496,0.824733,142.701
497,0.8264,142.686
498,0.828067,142.79
499,0.8297330000000001,142.723
500,0.831383,142.723
501,0.83305,142.738
502,0.834717,142.686
503,0.8364,142.746
504,0.83805,142.746
505,0.839717,142.85
506,0.841383,142.686
507,0.84305,142.753
508,0.8447170000000001,142.753
509,0.846383,142.552
510,0.8481,142.448
511,0.8497169999999999,142.448
512,0.851383,142.545
513,0.85305,142.843
514,0.8547169999999999,142.932
515,0.856383,142.932
516,0.85805,142.641
517,0.859717,142.671
518,0.861383,142.299
519,0.86305,142.299
520,0.864717,142.507
521,0.866383,142.701
522,0.86805,142.761
523,0.869717,142.761
524,0.871383,142.746
525,0.87305,142.425
526,0.874717,142.425
527,0.876383,142.567
528,0.878033,142.433
529,0.8797,142.239
530,0.8815,142.239
531,0.883033,142.291
532,0.8847,142.246
533,0.886367,142.336
534,0.888033,142.336
535,0.8897,142.477
536,0.891367,142.626
537,0.893033,142.463
538,0.8947000000000001,142.463
539,0.896367,142.373
540,0.898033,142.694
541,0.8997000000000001,142.559
542,0.901367,142.559
543,0.903033,142.977
544,0.9046999999999999,142.962
545,0.906383,142.962
546,0.908033,142.738
547,0.9097,142.813
548,0.911367,142.53
549,0.913033,142.53
550,0.9147,142.537
551,0.916367,142.634
552,0.918033,142.336
553,0.9197,142.336
554,0.921367,142.507
555,0.923033,142.477
556,0.924717,142.373
557,0.9263670000000001,142.373
558,0.928033,142.522
559,0.9297,142.5
560,0.9313669999999999,142.5
561,0.933017,142.738
562,0.9347,142.664
563,0.93635,142.477
564,0.938017,142.477
565,0.939683,142.485
566,0.94135,142.142
567,0.943017,141.971
568,0.9446830000000001,141.971
569,0.94635,142.127
570,0.948017,142.045
571,0.9496830000000001,141.941
572,0.95135,141.941
573,0.953017,142.09
574,0.9546829999999999,142.008
575,0.95635,142.053
576,0.958017,142.053
577,0.959683,142.12
578,0.96135,142.328
579,0.963017,142.328
580,0.964683,142.582
581,0.9664,142.545
582,0.968017,142.671
583,0.969683,142.671
584,0.97135,142.395
585,0.973017,142.328
586,0.974683,142.306
587,0.9763500000000001,142.306
588,0.978033,142.433
589,0.979683,142.336
590,0.9813499999999999,142.142
591,0.983017,142.142
592,0.984683,141.725
593,0.9863499999999999,141.39
594,0.988017,141.39
595,0.989683,141.725
596,0.99135,141.591
597,0.993017,141.643
598,0.994683,141.643
599,0.996333,141.628
600,0.998,141.71
601,0.9998,141.829
602,1.001333,141.829
603,1.003,142.12
604,1.004667,142.351
605,1.006333,142.187
606,1.008,142.187
607,1.009667,142.194
608,1.011333,141.941
609,1.013,141.71
610,1.014667,141.71
611,1.016333,141.479
612,1.018,141.278
613,1.019667,141.278
614,1.021333,141.323
615,1.023,141.27
616,1.024667,141.293
617,1.026333,141.293
618,1.028,141.501
619,1.029667,141.412
620,1.031333,141.658
621,1.033,141.658
622,1.034667,141.807
623,1.036333,141.725
624,1.038,141.658
625,1.039667,141.658
626,1.041333,141.367
627,1.043017,141.114
628,1.044667,141.114
629,1.046333,140.965
630,1.048,141.36
631,1.049683,141.464
632,1.051333,141.464
633,1.053,141.36
634,1.054667,141.561
635,1.056333,141.293
636,1.057983,141.293
637,1.05965,141.375
638,1.061317,141.591
639,1.062983,141.576
640,1.06465,141.576
641,1.066317,141.539
642,1.067983,141.442
643,1.06965,141.442
644,1.071317,141.233
645,1.072983,141.427
646,1.07465,141.375
647,1.076317,141.375
648,1.077983,141.166
649,1.07965,141.166
650,1.081317,140.749
651,1.082983,140.749
652,1.084717,140.831
653,1.086317,141.032
654,1.087983,141.159
655,1.08965,141.159
656,1.091317,141.256
657,1.092983,141.308
658,1.09465,141.166
659,1.096317,141.166
660,1.097983,141.151
661,1.09965,141.136
662,1.101317,141.136
663,1.102983,141.121
664,1.10465,141.494
665,1.106317,141.598
666,1.107983,141.598
667,1.10965,141.785
668,1.111317,141.859
669,1.112983,141.859
670,1.11465,141.859
671,1.116317,141.844
672,1.1181,142.001
673,1.119633,142.023
674,1.121283,142.023
675,1.12295,141.665
676,1.124617,141.539
677,1.126283,141.539
678,1.127983,141.166
679,1.129617,140.92
680,1.131283,141.099
681,1.13295,141.099
682,1.134617,141.136
683,1.136283,141.174
684,1.13795,141.285
685,1.139617,141.285
686,1.141283,141.129
687,1.14295,141.263
688,1.144617,141.561
689,1.146283,141.561
690,1.14795,141.464
691,1.149617,141.494
692,1.151283,141.427
693,1.15295,141.427
694,1.154617,141.062
695,1.156283,141.151
696,1.15795,141.151
697,1.159617,141.181
698,1.161283,141.196
699,1.16295,141.367
700,1.164617,141.367
701,1.166283,141.211
702,1.16795,141.189
703,1.169617,141.025
704,1.171283,141.025
705,1.17295,141.039
706,1.174633,141.077
707,1.176267,140.935
708,1.177933,140.935
709,1.1796,140.995
710,1.181267,140.913
711,1.182933,140.913
712,1.1846,141.241
713,1.186267,141.613
714,1.187933,141.725
715,1.1896,141.725
716,1.191267,141.859
717,1.192933,141.293
718,1.1946,140.794
719,1.196267,140.794
720,1.197933,141.002
721,1.1996,141.032
722,1.201267,141.472
723,1.20295,141.472
724,1.2046,141.881
725,1.206267,141.591
726,1.207933,141.732
727,1.2096,141.732
728,1.211267,141.65
729,1.212933,141.785
730,1.2146,141.785
731,1.216267,141.941
732,1.21795,141.717
733,1.219667,141.665
734,1.221267,141.665
735,1.222933,141.397
736,1.2246,141.166
737,1.226267,141.203
738,1.227933,141.203
739,1.2296,141.174
740,1.231267,141.062
741,1.232933,141.01
742,1.234583,141.01
743,1.2363,140.883
744,1.237917,140.898
745,1.239583,140.898
746,1.24125,140.972
747,1.242917,141.226
748,1.244583,141.129
749,1.24625,141.129
750,1.247917,140.995
751,1.249583,140.883
752,1.25125,141.054
753,1.25305,141.054
754,1.254583,141.129
755,1.25625,141.285
756,1.257917,141.427
757,1.259583,141.427
758,1.26125,141.241
759,1.262917,141.539
760,1.264583,141.539
761,1.266267,141.762
762,1.267917,141.755
763,1.269617,141.561
764,1.27125,141.561
765,1.272917,141.233
766,1.274583,140.838
767,1.27625,140.667
768,1.277917,140.667
769,1.279583,140.756
770,1.28125,140.786
771,1.282917,140.809
772,1.284583,140.809
773,1.28625,140.876
774,1.287917,141.032
775,1.289583,141.256
776,1.29125,141.256
777,1.292917,141.472
778,1.294583,141.524
779,1.296233,141.524
780,1.2979,141.3
781,1.299567,140.935
782,1.301233,140.704
783,1.3029,140.704
784,1.304567,140.98
785,1.306233,141.032
786,1.3079,141.233
787,1.309567,141.233
788,1.311233,141.464
789,1.3129,141.338
790,1.314567,141.256
791,1.316233,141.256
792,1.3179,141.263
793,1.319567,141.226
794,1.32125,141.226
795,1.3229,141.069
796,1.324567,140.92
797,1.326233,140.801
798,1.3279,140.801
799,1.329567,140.913
800,1.331233,141.002
801,1.3329,141.442
802,1.334567,141.442
803,1.336233,141.74
804,1.337983,141.546
805,1.339583,141.583
806,1.341283,141.583
807,1.3429,141.226
808,1.344567,141.166
809,1.346233,141.524
810,1.3479,141.524
811,1.349567,141.71
812,1.351233,142.001
813,1.3529,142.001
814,1.35465,141.583
815,1.356233,141.189
816,1.357883,140.727
817,1.35955,140.727
818,1.361217,140.503
819,1.362883,140.719
820,1.36455,140.682
821,1.366217,140.682
822,1.367883,141.047
823,1.36955,140.712
824,1.37135,140.838
825,1.372883,140.838
826,1.37455,141.039
827,1.376217,141.099
828,1.377883,141.099
829,1.37955,141.576
830,1.381217,141.479
831,1.382883,141.352
832,1.38455,141.352
833,1.386217,141.025
834,1.387883,140.779
835,1.38955,140.861
836,1.391217,140.861
837,1.392883,140.95
838,1.39455,141.27
839,1.396217,141.501
840,1.397883,141.501
841,1.39955,141.636
842,1.401217,141.427
843,1.402883,141.166
844,1.40455,141.166
845,1.406217,141.039
846,1.407883,140.712
847,1.40955,140.712
848,1.411217,140.794
849,1.412867,140.823
850,1.41455,140.809
851,1.416183,140.809
852,1.41785,140.89
853,1.419517,140.794
854,1.421183,140.913
855,1.42285,140.913
856,1.424517,140.809
857,1.426183,140.473
858,1.42785,140.518
859,1.429517,140.518
860,1.431183,140.399
861,1.43285,140.645
862,1.434517,140.645
863,1.436183,141.054
864,1.43785,141.092
865,1.439517,141.114
866,1.441183,141.114
867,1.44285,141.181
868,1.444517,141.136
869,1.446183,141.367
870,1.44785,141.367
871,1.449517,141.643
872,1.451183,141.799
873,1.45285,141.792
874,1.454517,141.792
875,1.456233,141.546
876,1.45785,141.144
877,1.459517,141.144
878,1.461183,140.809
879,1.46285,141.039
880,1.464517,141.241
881,1.466183,141.241
882,1.46785,141.405
883,1.469517,141.136
884,1.471183,141.025
885,1.472883,141.025
886,1.4745,141.002
887,1.476167,141.151
888,1.477833,141.628
889,1.4795,141.628
890,1.481167,141.621
891,1.482833,141.479
892,1.4845,141.263
893,1.486167,141.263
894,1.487833,141.002
895,1.489633,140.592
896,1.491167,140.592
897,1.492833,140.518
898,1.4945,140.257
899,1.496167,140.376
900,1.497833,140.376
901,1.4995,140.592
902,1.501167,140.481
903,1.502833,140.697
904,1.5045,140.697
905,1.506167,140.578
906,1.507833,140.555
907,1.5095,141.032
908,1.511167,141.032
909,1.512833,141.196
910,1.5145,141.159
911,1.516167,141.159
912,1.517833,141.263
913,1.5195,141.136
914,1.521167,141.256
915,1.522833,141.256
916,1.5245,141.248
917,1.526167,141.405
918,1.527833,141.397
919,1.5295,141.397
920,1.531167,140.846
921,1.532833,141.047
922,1.5345,140.674
923,1.53615,140.674
924,1.537817,140.458
925,1.539483,140.637
926,1.54115,140.458
927,1.542817,140.458
928,1.544483,140.861
929,1.54615,140.771
930,1.547817,140.771
931,1.549483,140.898
932,1.55115,140.868
933,1.552817,140.533
934,1.554483,140.533
935,1.556183,140.809
936,1.557833,140.771
937,1.559483,140.816
938,1.56115,140.816
939,1.562817,140.846
940,1.564483,140.883
941,1.56615,140.809
942,1.567817,140.809
943,1.569483,140.935
944,1.57115,141.129
945,1.572817,141.129
946,1.574483,140.89
947,1.57615,140.741
948,1.577817,140.533
949,1.579483,140.533
950,1.58115,140.443
951,1.582817,140.488
952,1.584483,140.667
953,1.58615,140.667
954,1.587817,140.823
955,1.589483,140.66
956,1.59115,140.607
957,1.592817,140.607
958,1.594483,140.622
959,1.596133,140.6
