"ID","sea_time","fid_signal"
1,0,1170.561
2,0.001667,1166.612
3,0.003333,1166.612
4,0.005,1164.004
5,0.006667,1164.6
6,0.008333,1164.6
7,0.01,1164.153
8,0.011667,1164.153
9,0.013333,1166.537
10,0.015,1166.537
11,0.016667,1164.675
12,0.018333,1164.302
13,0.02,1164.749
14,0.021667,1164.749
15,0.023333,1163.483
16,0.025,1165.569
17,0.026667,1168.475
18,0.028333,1168.475
19,0.030033,1169.369
20,0.031667,1169.294
21,0.033333,1169.294
22,0.034983,1169.369
23,0.03665,1166.314
24,0.03835,1166.612
25,0.039983,1166.612
26,0.04165,1168.847
27,0.043317,1168.698
28,0.044983,1169.518
29,0.04665,1169.518
30,0.048317,1167.879
31,0.049983,1165.643
32,0.05165,1166.09
33,0.053317,1166.09
34,0.054983,1169.294
35,0.05665,1171.976
36,0.058317,1170.933
37,0.059983,1170.933
38,0.06165,1168.922
39,0.063433,1164.973
40,0.064983,1164.973
41,0.06665,1162.961
42,0.068317,1162.216
43,0.069983,1161.396
44,0.07165000000000001,1161.396
45,0.07331699999999999,1161.695
46,0.07498299999999999,1164.153
47,0.07665,1164.451
48,0.078317,1164.451
49,0.079983,1164.451
50,0.08165,1164.302
51,0.083317,1163.408
52,0.084983,1163.408
53,0.08665,1167.655
54,0.08831700000000001,1169.816
55,0.08998299999999999,1169.816
56,0.09165,1173.69
57,0.093317,1172.721
58,0.094967,1166.612
59,0.096633,1166.612
60,0.0983,1165.42
61,0.099967,1163.185
62,0.101633,1164.079
63,0.1033,1164.079
64,0.104967,1169.294
65,0.106633,1171.604
66,0.1083,1170.263
67,0.109967,1170.263
68,0.111633,1168.996
69,0.1133,1166.314
70,0.114967,1161.918
71,0.116633,1161.918
72,0.1183,1161.173
73,0.119967,1160.651
74,0.121633,1160.651
75,0.123317,1160.502
76,0.124967,1163.408
77,0.126633,1163.11
78,0.1283,1163.11
79,0.129967,1164.675
80,0.131633,1166.165
81,0.1333,1168.102
82,0.134967,1168.102
83,0.136633,1171.902
84,0.1383,1174.882
85,0.139967,1176.596
86,0.141633,1176.596
87,0.1433,1176.67
88,0.144967,1173.615
89,0.146633,1173.615
90,0.1483,1170.561
91,0.149967,1167.059
92,0.151633,1167.432
93,0.153283,1167.432
94,0.15495,1169.22
95,0.156617,1168.102
96,0.158283,1168.251
97,0.15995,1168.251
98,0.161617,1168.624
99,0.163283,1169.592
100,0.16495,1171.38
101,0.166617,1171.38
102,0.1683,1174.36
103,0.16995,1173.615
104,0.171617,1170.188
105,0.173283,1170.188
106,0.17495,1169.443
107,0.176617,1166.239
108,0.178283,1166.239
109,0.17995,1163.632
110,0.181717,1163.781
111,0.183283,1161.844
112,0.18495,1161.844
113,0.186617,1161.769
114,0.188283,1162.067
115,0.18995,1163.706
116,0.191617,1163.706
117,0.193283,1165.196
118,0.19495,1167.58
119,0.196617,1166.91
120,0.198283,1166.91
121,0.19995,1169.071
122,0.201617,1169.89
123,0.2033,1169.89
124,0.20495,1167.953
125,0.206617,1166.984
126,0.208283,1165.867
127,0.20995,1165.867
128,0.211617,1166.91
129,0.213283,1167.208
130,0.214917,1169.071
131,0.216583,1169.071
132,0.21825,1166.835
133,0.219917,1165.569
134,0.221583,1166.761
135,0.22325,1166.761
136,0.224917,1164.749
137,0.226583,1165.718
138,0.22825,1165.718
139,0.229917,1166.612
140,0.231583,1166.835
141,0.23325,1170.114
142,0.234917,1170.114
143,0.236583,1168.847
144,0.23825,1167.059
145,0.239917,1165.494
146,0.241583,1165.494
147,0.24325,1161.993
148,0.244917,1162.663
149,0.246583,1165.122
150,0.24825,1165.122
151,0.249917,1167.133
152,0.251583,1168.326
153,0.25325,1164.228
154,0.254917,1164.228
155,0.256583,1163.483
156,0.25825,1160.651
157,0.259917,1160.651
158,0.261583,1162.887
159,0.26325,1170.114
160,0.264917,1169.369
161,0.26665,1169.369
162,0.26825,1170.114
163,0.269933,1167.879
164,0.271583,1167.729
165,0.27325,1167.729
166,0.2749,1166.686
167,0.276567,1165.494
168,0.278233,1166.239
169,0.2799,1166.239
170,0.281567,1165.569
171,0.283233,1168.996
172,0.2849,1168.996
173,0.286567,1169.145
174,0.288233,1169.89
175,0.2899,1168.177
176,0.291567,1168.177
177,0.293233,1165.047
178,0.2949,1169.294
179,0.296567,1168.773
180,0.298233,1168.773
181,0.299967,1170.039
182,0.301567,1169.816
183,0.303233,1168.251
184,0.3049,1168.251
185,0.306567,1168.251
186,0.308233,1167.432
187,0.3099,1166.984
188,0.311567,1166.984
189,0.313233,1166.165
190,0.3149,1166.612
191,0.316567,1166.612
192,0.318233,1165.718
193,0.3199,1164.526
194,0.321567,1163.632
195,0.323233,1163.632
196,0.3249,1164.079
197,0.326567,1163.781
198,0.328233,1165.569
199,0.3299,1165.569
200,0.331567,1167.655
201,0.333233,1165.494
202,0.3349,1165.941
203,0.33655,1165.941
204,0.33825,1168.027
205,0.339883,1167.506
206,0.34155,1167.506
207,0.343233,1170.412
208,0.344883,1171.38
209,0.34655,1171.604
210,0.348217,1171.604
211,0.349883,1171.008
212,0.35155,1171.082
213,0.353217,1170.635
214,0.354883,1170.635
215,0.35655,1170.71
216,0.358217,1172.498
217,0.359883,1171.529
218,0.36155,1171.529
219,0.363217,1175.627
220,0.364883,1176.372
221,0.36655,1176.372
222,0.368217,1176.372
223,0.369883,1176.968
224,0.37155,1174.435
225,0.373217,1174.435
226,0.374883,1174.807
227,0.37655,1174.957
228,0.378217,1177.937
229,0.379883,1177.937
230,0.38155,1180.619
231,0.383217,1184.791
232,0.38495,1190.826
233,0.38655,1190.826
234,0.388217,1193.509
235,0.389883,1196.191
236,0.39155,1197.085
237,0.393217,1197.085
238,0.394867,1198.351
239,0.396533,1203.269
240,0.3982,1203.269
241,0.399867,1209.229
242,0.401533,1213.998
243,0.403217,1218.692
244,0.404867,1218.692
245,0.406533,1222.789
246,0.4082,1224.652
247,0.409867,1227.558
248,0.411533,1227.558
249,0.4132,1230.314
250,0.414867,1231.879
251,0.416533,1235.232
252,0.418267,1235.232
253,0.419867,1236.722
254,0.421533,1235.977
255,0.4232,1235.977
256,0.424867,1236.871
257,0.426533,1240
258,0.4282,1246.706
259,0.429867,1246.706
260,0.431533,1251.921
261,0.4332,1257.211
262,0.434867,1258.627
263,0.436533,1258.627
264,0.4382,1256.913
265,0.439867,1261.234
266,0.441533,1262.054
267,0.4432,1262.054
268,0.444867,1263.917
269,0.44655,1264.587
270,0.4482,1258.701
271,0.449867,1258.701
272,0.451533,1255.87
273,0.4532,1251.027
274,0.45485,1251.027
275,0.456517,1248.196
276,0.458183,1247.227
277,0.45985,1242.086
278,0.461517,1242.086
279,0.463183,1241.043
280,0.46485,1241.118
281,0.466517,1241.565
282,0.468183,1241.565
283,0.46985,1242.086
284,0.471517,1238.286
285,0.473183,1235.306
286,0.474867,1235.306
287,0.476517,1228.601
288,0.478183,1224.577
289,0.47985,1224.577
290,0.481517,1219.958
291,0.483183,1212.954
292,0.48485,1209.602
293,0.486517,1209.602
294,0.488183,1208.335
295,0.48985,1210.347
296,0.491517,1211.166
297,0.493183,1211.166
298,0.49485,1213.551
299,0.496517,1210.645
300,0.498183,1209.006
301,0.49985,1209.006
302,0.501517,1207.069
303,0.503233,1203.865
304,0.50485,1200.587
305,0.5065,1200.587
306,0.508167,1196.638
307,0.509833,1194.254
308,0.5115,1194.254
309,0.513167,1196.191
310,0.514817,1199.767
311,0.516483,1201.108
312,0.518167,1201.108
313,0.519917,1202.226
314,0.521483,1200.14
315,0.52315,1199.543
316,0.524817,1199.543
317,0.526483,1199.767
318,0.52815,1202.3
319,0.529817,1204.833
320,0.531483,1204.833
321,0.53315,1205.355
322,0.534817,1204.833
323,0.536583,1201.853
324,0.53815,1201.853
325,0.539817,1198.5
326,0.541483,1201.481
327,0.54315,1201.481
328,0.544817,1200.736
329,0.5464830000000001,1203.194
330,0.54815,1206.622
331,0.549817,1206.622
332,0.5514829999999999,1203.045
333,0.55315,1203.567
334,0.554817,1200.289
335,0.5564829999999999,1200.289
336,0.55815,1196.638
337,0.559817,1197.085
338,0.561483,1197.383
339,0.56315,1197.383
340,0.564817,1196.861
341,0.566483,1197.085
342,0.56815,1197.085
343,0.569817,1196.265
344,0.571483,1195.148
345,0.57315,1197.979
346,0.5748,1197.979
347,0.576467,1199.096
348,0.578133,1203.269
349,0.5798,1206.398
350,0.581467,1206.398
351,0.583133,1206.622
352,0.5848,1211.39
353,0.586467,1212.507
354,0.588133,1212.507
355,0.5898,1217.127
356,0.591467,1222.342
357,0.593133,1222.342
358,0.5948,1226.291
359,0.596467,1233.518
360,0.598133,1239.479
361,0.5998,1239.479
362,0.601467,1247.6
363,0.603133,1256.764
364,0.6048,1266.748
365,0.606467,1266.748
366,0.608133,1282.916
367,0.6098,1299.754
368,0.611467,1317.933
369,0.613133,1317.933
370,0.6148,1338.944
371,0.616467,1362.19
372,0.618133,1362.19
373,0.6198,1390.8
374,0.621483,1422.018
375,0.623133,1455.769
376,0.6248,1455.769
377,0.626467,1489.446
378,0.6281330000000001,1529.902
379,0.6298,1575.723
380,0.631467,1575.723
381,0.6331329999999999,1627.877
382,0.634783,1685.992
383,0.63645,1746.416
384,0.6381829999999999,1746.416
385,0.639783,1814.961
386,0.64145,1888.946
387,0.643117,1969.859
388,0.644783,1969.859
389,0.64645,2058.521
390,0.6481170000000001,2149.418
391,0.649783,2149.418
392,0.65145,2245.605
393,0.6531169999999999,2348.721
394,0.6549,2453.253
395,0.65645,2453.253
396,0.658117,2562.776
397,0.659783,2680.942
398,0.66145,2801.642
399,0.663117,2801.642
400,0.664783,2927.11
401,0.66645,3059.879
402,0.668117,3195.852
403,0.669783,3195.852
404,0.67155,3339.052
405,0.673117,3488.883
406,0.674783,3488.883
407,0.67645,3641.993
408,0.678117,3793.91
409,0.679783,3951.639
410,0.68145,3951.639
411,0.683117,4112.721
412,0.684783,4274.547
413,0.68645,4442.632
414,0.688117,4442.632
415,0.689783,4610.717
416,0.69145,4780.963
417,0.693117,4958.138
418,0.6948,4958.138
419,0.6964669999999999,5132.705
420,0.6981000000000001,5309.805
421,0.699767,5488.098
422,0.701433,5488.098
423,0.7030999999999999,5665.794
424,0.704767,5847.588
425,0.706433,5847.588
426,0.7081,6031.916
427,0.709767,6217.36
428,0.711433,6400.645
429,0.7131,6400.645
430,0.714767,6585.196
431,0.716433,6767.81
432,0.7181,6951.913
433,0.719767,6951.913
434,0.721433,7138.923
435,0.7231,7325.336
436,0.7247670000000001,7512.42
437,0.726433,7512.42
438,0.7281,7700.995
439,0.7297670000000001,7888.451
440,0.731433,7888.451
441,0.7331,8075.908
442,0.7347669999999999,8264.482
443,0.736433,8453.802
444,0.7381,8453.802
445,0.739783,8643.046
446,0.741433,8830.949000000001
447,0.7431,9018.108
448,0.744767,9018.108
449,0.746433,9201.169
450,0.7481,9383.038
451,0.749767,9568.855
452,0.751433,9568.855
453,0.7531,9752.139999999999
454,0.75475,9934.306
455,0.756483,10119.975
456,0.758083,10119.975
457,0.75975,10298.044
458,0.761417,10476.262
459,0.76315,10476.262
460,0.76475,10656.715
461,0.766417,10836.423
462,0.768083,11019.781
463,0.76975,11019.781
464,0.771417,11204.406
465,0.77315,11383.519
466,0.77475,11560.991
467,0.776417,11560.991
468,0.778083,11736.825
469,0.7797500000000001,11910.871
470,0.781417,12086.258
471,0.783083,12086.258
472,0.7847499999999999,12258.067
473,0.786417,12430.921
474,0.788083,12430.921
475,0.7898500000000001,12600.348
476,0.791417,12771.413
477,0.793083,12942.776
478,0.79475,12942.776
479,0.796417,13113.245
480,0.798067,13282.896
481,0.799733,13450.533
482,0.8014,13450.533
483,0.803067,13618.097
484,0.804733,13785.81
485,0.8064,13954.118
486,0.808067,13954.118
487,0.809733,14119.818
488,0.8114,14286.041
489,0.813067,14286.041
490,0.814717,14449.06
491,0.816383,14612.973
492,0.8180500000000001,14776.066
493,0.819717,14776.066
494,0.821383,14935.509
495,0.8230499999999999,15092.716
496,0.824717,15246.942
497,0.826383,15246.942
498,0.82805,15404.597
499,0.829717,15560.612
500,0.831383,15720.129
501,0.8331,15720.129
502,0.834717,15878.156
503,0.836383,16032.011
504,0.83805,16186.387
505,0.839717,16186.387
506,0.841383,16340.837
507,0.84305,16493.275
508,0.8447170000000001,16493.275
509,0.846383,16647.578
510,0.84805,16801.73
511,0.8497169999999999,16951.934
512,0.851383,16951.934
513,0.85305,17102.883
514,0.8547169999999999,17250.553
515,0.856383,17399.043
516,0.85805,17399.043
517,0.859717,17548.277
518,0.861383,17698.258
519,0.86305,17847.121
520,0.864717,17847.121
521,0.866383,17994.865
522,0.86805,18139.109
523,0.869717,18139.109
524,0.871383,18283.203
525,0.87305,18426.031
526,0.874767,18568.709
527,0.876367,18568.709
528,0.878033,18708.855
529,0.8797,18846.17
530,0.881367,18980.205
531,0.883033,18980.205
532,0.8847,19113.049
533,0.886367,19250.512
534,0.888033,19387.379
535,0.8897,19387.379
536,0.891433,19525.885
537,0.893033,19663.498
538,0.8947000000000001,19798.279
539,0.896367,19798.279
540,0.898033,19935.221
541,0.8997000000000001,20068.438
542,0.901367,20068.438
543,0.903033,20201.131
544,0.9046999999999999,20337.18
545,0.906383,20471.066
546,0.908133,20471.066
547,0.9097,20607.486
548,0.911367,20739.287
549,0.913033,20868.777
550,0.9147,20868.777
551,0.916367,20994.545
552,0.918033,21118.82
553,0.9197,21242.574
554,0.921367,21242.574
555,0.923033,21360.219
556,0.9247,21474.734
557,0.9263670000000001,21474.734
558,0.928033,21590.441
559,0.9297,21706.969
560,0.9313669999999999,21824.465
561,0.933033,21824.465
562,0.934683,21945.164
563,0.93635,22061.541
564,0.938017,22177.846
565,0.939683,22177.846
566,0.94135,22290.871
567,0.943017,22401.213
568,0.9446830000000001,22509.693
569,0.94635,22509.693
570,0.948017,22608.787
571,0.9496830000000001,22700.057
572,0.95135,22778.361
573,0.953017,22778.361
574,0.9546829999999999,22831.188
575,0.95635,22845.566
576,0.958017,22845.566
577,0.959683,22780.971
578,0.96135,22572.279
579,0.963017,22114.143
580,0.964683,22114.143
581,0.96635,21256.135
582,0.968017,19873.156
583,0.969683,17933.025
584,0.97135,17933.025
585,0.973017,15546.605
586,0.9747,12947.545
587,0.976367,10419.413
588,0.978017,10419.413
589,0.979683,8187.667
590,0.9813499999999999,6370.097
591,0.983017,6370.097
592,0.984683,4982.948
593,0.9863499999999999,3976.971
594,0.988017,3268.57
595,0.989683,3268.57
596,0.99135,2783.164
597,0.993017,2456.084
598,0.994667,2232.492
599,0.996333,2232.492
600,0.998,2081.096
601,0.999667,1972.243
602,1.001333,1892
603,1.003,1892
604,1.004667,1832.321
605,1.006333,1785.457
606,1.008,1785.457
607,1.009667,1746.64
608,1.011333,1716.614
609,1.013,1694.188
610,1.014667,1694.188
611,1.016333,1673.773
612,1.018,1656.264
613,1.019667,1637.042
614,1.021333,1637.042
615,1.023,1619.682
616,1.024667,1602.471
617,1.026433,1591.742
618,1.028,1591.742
619,1.029667,1581.609
620,1.031333,1566.857
621,1.033,1557.767
622,1.034667,1557.767
623,1.036333,1544.729
624,1.038,1531.765
625,1.039667,1531.765
626,1.041333,1524.463
627,1.043,1516.193
628,1.044667,1509.041
629,1.046333,1509.041
630,1.048,1503.304
631,1.049667,1494.81
632,1.05135,1486.242
633,1.053,1486.242
634,1.05465,1477.003
635,1.056317,1470.074
636,1.057983,1466.87
637,1.05965,1466.87
638,1.061317,1459.792
639,1.062983,1452.863
640,1.06465,1452.863
641,1.066317,1447.797
642,1.067983,1438.335
643,1.06965,1434.982
644,1.071317,1434.982
645,1.072983,1433.045
646,1.07465,1428.053
647,1.076317,1425.967
648,1.077983,1425.967
649,1.07965,1419.708
650,1.081317,1414.493
651,1.082983,1409.575
652,1.08465,1409.575
653,1.086317,1402.795
654,1.087983,1399.815
655,1.089633,1395.717
656,1.0913,1395.717
657,1.092967,1391.023
658,1.094633,1389.533
659,1.0963,1389.533
660,1.097967,1385.137
661,1.099633,1383.424
662,1.1013,1384.169
663,1.102967,1384.169
664,1.104633,1378.283
665,1.1063,1374.632
666,1.107967,1368.225
667,1.109633,1368.225
668,1.1113,1360.849
669,1.112967,1357.198
670,1.114617,1355.335
671,1.116283,1355.335
672,1.11795,1355.112
673,1.11965,1353.547
674,1.121283,1353.547
675,1.122967,1353.472
676,1.12465,1350.194
677,1.126283,1347.959
678,1.12795,1347.959
679,1.129617,1344.755
680,1.131283,1341.924
681,1.13295,1337.454
682,1.134617,1337.454
683,1.136283,1332.164
684,1.13795,1330.45
685,1.139617,1327.768
686,1.141283,1327.768
687,1.14295,1327.843
688,1.144717,1325.905
689,1.146283,1323.149
690,1.14795,1323.149
691,1.149633,1320.69
692,1.151283,1318.231
693,1.15295,1318.231
694,1.154617,1316.22
695,1.156283,1318.231
696,1.15795,1318.082
697,1.159617,1318.082
698,1.161283,1315.698
699,1.16295,1312.941
700,1.164617,1310.259
701,1.166283,1310.259
702,1.16795,1305.565
703,1.169617,1306.087
704,1.171283,1307.353
705,1.17295,1307.353
706,1.1746,1304.522
707,1.176267,1303.703
708,1.177933,1303.703
709,1.1796,1299.53
710,1.181267,1298.711
711,1.182933,1293.644
712,1.1846,1293.644
713,1.186267,1292.303
714,1.187933,1289.919
715,1.1896,1286.566
716,1.191267,1286.566
717,1.192933,1288.28
718,1.1946,1288.28
719,1.196267,1290.888
720,1.197933,1290.888
721,1.1996,1292.75
722,1.201267,1289.099
723,1.202933,1289.099
724,1.2046,1284.927
725,1.206267,1281.202
726,1.20795,1276.657
727,1.2096,1276.657
728,1.211267,1277.328
729,1.212933,1277.402
730,1.2146,1279.712
731,1.216267,1279.712
732,1.217933,1280.159
733,1.2196,1279.116
734,1.221267,1282.319
735,1.222933,1282.319
736,1.2246,1279.712
737,1.226267,1277.551
738,1.227933,1277.998
739,1.229667,1277.998
740,1.231267,1272.932
741,1.232933,1268.834
742,1.234583,1268.834
743,1.23625,1269.951
744,1.237917,1268.685
745,1.239583,1269.579
746,1.24125,1269.579
747,1.242917,1271.889
748,1.244583,1271.069
749,1.24625,1270.697
750,1.247917,1270.697
751,1.249583,1270.995
752,1.25125,1268.387
753,1.252917,1266.375
754,1.254583,1266.375
755,1.25625,1262.873
756,1.257917,1256.987
757,1.259583,1256.987
758,1.26125,1256.242
759,1.263017,1256.391
760,1.264583,1257.136
761,1.26625,1257.136
762,1.267917,1259.595
763,1.269583,1258.999
764,1.27125,1256.466
765,1.272917,1256.466
766,1.274583,1256.093
767,1.27625,1255.423
768,1.277917,1254.603
769,1.279583,1254.603
770,1.28125,1254.231
771,1.282917,1251.25
772,1.284583,1248.866
773,1.28625,1248.866
774,1.287917,1246.706
775,1.289583,1244.172
776,1.29125,1244.172
777,1.292917,1243.427
778,1.294567,1244.321
779,1.29625,1246.557
780,1.2979,1246.557
781,1.299567,1249.164
782,1.301233,1249.984
783,1.3029,1250.58
784,1.304567,1250.58
785,1.306233,1247.153
786,1.3079,1244.172
787,1.309567,1245.439
788,1.311233,1245.439
789,1.3129,1242.533
790,1.314567,1243.204
791,1.316233,1243.204
792,1.3179,1244.247
793,1.319567,1240.745
794,1.321233,1241.565
795,1.3229,1241.565
796,1.324567,1239.181
797,1.326233,1237.02
798,1.3279,1235.455
799,1.329567,1235.455
800,1.331233,1233.891
801,1.3329,1234.785
802,1.334567,1234.561
803,1.336233,1234.561
804,1.3379,1234.263
805,1.339567,1230.463
806,1.341233,1228.005
807,1.3429,1228.005
808,1.344567,1227.707
809,1.346233,1232.699
810,1.34795,1232.699
811,1.349567,1237.616
812,1.351233,1241.267
813,1.3529,1240.373
814,1.35455,1240.373
815,1.356217,1234.561
816,1.357883,1230.165
817,1.35955,1229.793
818,1.361217,1229.793
819,1.362883,1232.251
820,1.36465,1234.859
821,1.366217,1238.286
822,1.367883,1238.286
823,1.36955,1235.977
824,1.371217,1234.189
825,1.372883,1234.189
826,1.37455,1232.401
827,1.376217,1230.314
828,1.3779,1230.836
829,1.37955,1230.836
830,1.381317,1230.836
831,1.382867,1229.495
832,1.384533,1228.601
833,1.3862,1228.601
834,1.387867,1227.93
835,1.389533,1225.248
836,1.3912,1225.024
837,1.392867,1225.024
838,1.394533,1222.566
839,1.3962,1219.884
840,1.397867,1219.884
841,1.399533,1219.809
842,1.4012,1219.809
843,1.402867,1221.374
844,1.404533,1221.374
845,1.4062,1221.895
846,1.407867,1221.672
847,1.409533,1220.107
848,1.4112,1220.107
849,1.412867,1218.542
850,1.414517,1220.107
851,1.416183,1222.417
852,1.41785,1222.417
853,1.419517,1225.397
854,1.421183,1227.93
855,1.42285,1226.664
856,1.424517,1226.664
857,1.426183,1224.205
858,1.42785,1224.354
859,1.429517,1224.354
860,1.431183,1224.503
861,1.43285,1222.566
862,1.434517,1221.374
863,1.436183,1221.374
864,1.43785,1218.692
865,1.439517,1216.233
866,1.441183,1220.331
867,1.44285,1220.331
868,1.444517,1222.491
869,1.446183,1224.95
870,1.44785,1224.577
871,1.449517,1224.577
872,1.451183,1221.076
873,1.45285,1219.511
874,1.454517,1219.511
875,1.456183,1214.519
876,1.45785,1214.817
877,1.459517,1214.668
878,1.461183,1214.668
879,1.46285,1214.743
880,1.464517,1216.754
881,1.466267,1216.978
882,1.46785,1216.978
883,1.469533,1214.147
884,1.471183,1211.39
885,1.47285,1209.974
886,1.4745,1209.974
887,1.476167,1208.261
888,1.477833,1209.229
889,1.4795,1208.41
890,1.481167,1208.41
891,1.4829,1206.771
892,1.4845,1206.92
893,1.486167,1206.92
894,1.487833,1208.261
895,1.4895,1211.762
896,1.491167,1214.743
897,1.492833,1214.743
898,1.4945,1213.178
899,1.496167,1213.923
900,1.497833,1213.998
901,1.4996,1213.998
902,1.501167,1211.092
903,1.502833,1212.88
904,1.5045,1210.868
905,1.506167,1210.868
906,1.507833,1206.473
907,1.5095,1209.974
908,1.511167,1209.974
909,1.512833,1209.825
910,1.5145,1210.868
911,1.516233,1214.296
912,1.517833,1214.296
913,1.5195,1213.253
