"ID","sea_time","fid_signal"
1,0,140.354
2,0.001667,140.354
3,0.003333,140.451
4,0.005,140.794
5,0.006667,140.958
6,0.008333,140.958
7,0.01,140.801
8,0.011667,140.585
9,0.013333,140.168
10,0.0151,140.168
11,0.016667,140.108
12,0.018333,140.101
13,0.02,140.101
14,0.021667,140.458
15,0.023333,140.66
16,0.025,140.622
17,0.026667,140.622
18,0.028333,140.727
19,0.03,140.704
20,0.031667,140.741
21,0.033333,140.741
22,0.035,140.719
23,0.036667,140.943
24,0.038333,140.883
25,0.04,140.883
26,0.041667,140.831
27,0.043333,140.913
28,0.044983,140.913
29,0.04665,140.63
30,0.048317,140.548
31,0.049983,140.51
32,0.05165,140.51
33,0.053317,140.615
34,0.054983,140.548
35,0.05665,140.801
36,0.058317,140.801
37,0.059983,140.905
38,0.06165,140.704
39,0.063317,141.002
40,0.064983,141.002
41,0.06665,140.801
42,0.068333,140.578
43,0.069983,140.6
44,0.07165000000000001,140.6
45,0.07331699999999999,140.361
46,0.07498299999999999,140.309
47,0.07665,140.309
48,0.078317,140.488
49,0.079983,140.935
50,0.08165,141.107
51,0.083317,141.107
52,0.084983,140.943
53,0.08665,140.883
54,0.08831700000000001,140.406
55,0.08998299999999999,140.406
56,0.09165,140.384
57,0.093317,140.615
58,0.094983,140.913
59,0.09665,140.913
60,0.098317,141.136
61,0.100033,141.039
62,0.10165,141.039
63,0.1033,141.092
64,0.104967,140.749
65,0.106633,140.652
66,0.1083,140.652
67,0.109967,140.756
68,0.111633,140.637
69,0.1133,140.622
70,0.114967,140.622
71,0.116633,140.339
72,0.1183,140.391
73,0.119967,140.578
74,0.121633,140.578
75,0.1233,140.481
76,0.124967,140.458
77,0.126633,140.451
78,0.1283,140.451
79,0.129967,140.272
80,0.131633,140.57
81,0.1334,140.57
82,0.134967,140.883
83,0.136633,141.092
84,0.1383,141.397
85,0.139967,141.397
86,0.141633,141.464
87,0.1433,141.405
88,0.144967,141.114
89,0.146633,141.114
90,0.1483,140.987
91,0.149967,140.66
92,0.151633,140.727
93,0.1533,140.727
94,0.154967,140.771
95,0.156633,140.421
96,0.1583,140.421
97,0.159967,140.473
98,0.161617,140.615
99,0.163283,140.831
100,0.164933,140.831
101,0.1666,141.039
102,0.168267,141.062
103,0.169933,140.861
104,0.1716,140.861
105,0.173283,140.443
106,0.174983,140.533
107,0.1766,140.682
108,0.178267,140.682
109,0.179933,140.51
110,0.1816,140.466
111,0.183267,140.466
112,0.184933,140.414
113,0.1866,140.309
114,0.188267,140.6
115,0.189933,140.6
116,0.1916,140.846
117,0.193267,140.831
118,0.194933,141.144
119,0.1966,141.144
120,0.198267,141.278
121,0.199933,141.241
122,0.2016,141.099
123,0.203267,141.099
124,0.204933,140.518
125,0.2066,140.011
126,0.208267,140.063
127,0.209933,140.063
128,0.2116,140.317
129,0.213267,140.645
130,0.214933,140.645
131,0.2166,140.943
132,0.218267,140.622
133,0.219933,140.689
134,0.2216,140.689
135,0.223267,140.831
136,0.224917,140.831
137,0.226583,141.01
138,0.22825,141.01
139,0.229917,140.786
140,0.231583,140.399
141,0.23325,140.227
142,0.234917,140.227
143,0.236583,140.145
144,0.23825,140.198
145,0.239917,140.198
146,0.241583,140.496
147,0.24325,140.347
148,0.244917,140.22
149,0.246583,140.22
150,0.24825,140.138
151,0.249917,140.026
152,0.2517,140.451
153,0.25325,140.451
154,0.254917,141.047
155,0.256583,141.129
156,0.25825,141.248
157,0.259917,141.248
158,0.261583,140.98
159,0.263267,140.682
160,0.264917,140.712
161,0.266583,140.712
162,0.26825,140.741
163,0.269917,140.92
164,0.271583,140.92
165,0.27325,140.972
166,0.274917,140.846
167,0.276583,140.518
168,0.27825,140.518
169,0.279917,140.645
170,0.281583,140.697
171,0.283233,140.816
172,0.2849,140.816
173,0.286567,140.98
174,0.288267,140.794
175,0.2899,140.823
176,0.291567,140.823
177,0.293233,140.786
178,0.2949,141.01
179,0.296567,141.01
180,0.298233,141.181
181,0.2999,141.226
182,0.301567,141.643
183,0.303233,141.643
184,0.3049,142.038
185,0.306567,142.619
186,0.308233,143.595
187,0.3099,143.595
188,0.311567,144.735
189,0.313233,146.702
190,0.3149,149.161
191,0.316567,149.161
192,0.318233,152.484
193,0.3199,157.289
194,0.321567,163.302
195,0.323233,163.302
196,0.3249,171.073
197,0.326567,180.647
198,0.328233,180.647
199,0.3299,192.15
200,0.331567,206.202
201,0.333233,223.458
202,0.3349,223.458
203,0.336633,243.828
204,0.338233,267.953
205,0.3399,295.714
206,0.341583,295.714
207,0.343217,327.2
208,0.344883,362.836
209,0.34655,402.54
210,0.348217,402.54
211,0.349883,445.917
212,0.35155,493.489
213,0.3533,545.152
214,0.354883,545.152
215,0.356583,600.159
216,0.358217,658.87
217,0.359883,658.87
218,0.36155,720.963
219,0.363217,786.044
220,0.364883,854.5069999999999
221,0.36655,854.5069999999999
222,0.368217,925.802
223,0.369983,999.495
224,0.37155,1075.856
225,0.373217,1075.856
226,0.374883,1154.177
227,0.37655,1234.792
228,0.378217,1317.62
229,0.379883,1317.62
230,0.38155,1402.721
231,0.383217,1490.191
232,0.384883,1490.191
233,0.38655,1580.141
234,0.388233,1673.318
235,0.389883,1769.729
236,0.39155,1769.729
237,0.393217,1869.425
238,0.394883,1973.018
239,0.39655,2080.642
240,0.398217,2080.642
241,0.399883,2193.056
242,0.40155,2311.93
243,0.403217,2439.037
244,0.404867,2439.037
245,0.406533,2576.09
246,0.4082,2725.869
247,0.409867,2725.869
248,0.411533,2892.062
249,0.4132,3078.416
250,0.414867,3290.832
251,0.416533,3290.832
252,0.4182,3534.854
253,0.419867,3816.947
254,0.421533,4144.981
255,0.4232,4144.981
256,0.424883,4525.036
257,0.426617,4964.709
258,0.4282,5469.68
259,0.429867,5469.68
260,0.431533,6044.179
261,0.4332,6690.972
262,0.434867,6690.972
263,0.436533,7409.543
264,0.4382,8197.695
265,0.439867,9049.378000000001
266,0.441533,9049.378000000001
267,0.4432,9955.272000000001
268,0.444867,10903.656
269,0.446533,11879.064
270,0.4482,11879.064
271,0.449867,12863.107
272,0.451533,13835.996
273,0.453183,14775.098
274,0.454883,14775.098
275,0.456517,15656.762
276,0.458183,16457.043
277,0.45985,17153.635
278,0.461517,17153.635
279,0.463183,17724.924
280,0.464833,18153.504
281,0.4665,18153.504
282,0.468167,18425.92
283,0.469833,18533.162
284,0.4716,18473.559
285,0.473167,18473.559
286,0.474833,18250.533
287,0.4765,17873.771
288,0.478167,17357.207
289,0.479833,17357.207
290,0.4815,16718.828
291,0.483167,15979.863
292,0.484833,15162.461
293,0.4865,15162.461
294,0.488283,14289.186
295,0.489833,13380.862
296,0.4915,13380.862
297,0.493167,12456.201
298,0.494833,11531.875
299,0.4965,10622.718
300,0.498167,10622.718
301,0.499833,9740.628000000001
302,0.501517,8894.621999999999
303,0.503167,8092.001
304,0.50495,8092.001
305,0.5065,7337.31
306,0.508167,6633.334
307,0.509833,5982.458
308,0.5115,5982.458
309,0.513167,5384.229
310,0.514833,4837.267
311,0.5165,4340.246
312,0.518167,4340.246
313,0.519833,3890.052
314,0.5215,3484.115
315,0.523167,3484.115
316,0.524817,3119.439
317,0.526483,2793.312
318,0.52815,2501.957
319,0.529817,2501.957
320,0.531483,2242.893
321,0.53315,2013.013
322,0.534817,1808.852
323,0.536483,1808.852
324,0.53815,1628.272
325,0.539817,1468.077
326,0.541483,1326.226
327,0.54315,1326.226
328,0.544817,1200.497
329,0.5464830000000001,1089.096
330,0.54815,1089.096
331,0.549817,990.838
332,0.5514829999999999,903.7329999999999
333,0.55315,826.657
334,0.554817,826.657
335,0.5564829999999999,758.38
336,0.55815,697.404
337,0.559817,643.447
338,0.561483,643.447
339,0.563167,595.734
340,0.564817,553.3099999999999
341,0.566483,516.035
342,0.56815,516.035
343,0.569817,482.522
344,0.5715,452.943
345,0.57315,426.665
346,0.574817,426.665
347,0.576483,402.749
348,0.5781500000000001,381.611
349,0.579817,381.611
350,0.581483,362.366
351,0.583133,344.865
352,0.5848,329.301
353,0.586467,329.301
354,0.588133,315.338
355,0.58985,302.784
356,0.591467,291.519
357,0.593133,291.519
358,0.5948,281.386
359,0.596467,272.274
360,0.598133,263.743
361,0.5998,263.743
362,0.601467,256.196
363,0.603133,249.378
364,0.6048,249.378
365,0.60655,243.269
366,0.608133,237.964
367,0.6098,232.89
368,0.611467,232.89
369,0.613133,228.174
370,0.6148,223.547
371,0.616467,219.591
372,0.618133,219.591
373,0.6198,215.761
374,0.621467,212.267
375,0.62325,208.952
376,0.6248,208.952
377,0.626467,205.554
378,0.6281330000000001,202.805
379,0.6298,202.805
380,0.631467,200.279
381,0.6331329999999999,198.141
382,0.6348,196.256
383,0.636467,196.256
384,0.638133,194.155
385,0.6398,192.374
386,0.641467,190.608
387,0.643117,190.608
388,0.6448,188.798
389,0.64645,187.33
390,0.6481170000000001,185.721
391,0.649783,185.721
392,0.65145,184.402
393,0.6531169999999999,183.046
394,0.654783,182.107
395,0.65645,182.107
396,0.658117,181.228
397,0.659783,179.902
398,0.66145,179.902
399,0.66315,179.201
400,0.664783,178.091
401,0.66645,177.227
402,0.668117,177.227
403,0.669783,176.609
404,0.67145,175.446
405,0.673117,174.552
406,0.674783,174.552
407,0.67645,173.584
408,0.678117,172.749
409,0.679783,172.138
410,0.68145,172.138
411,0.683117,171.453
412,0.684783,170.887
413,0.68645,170.887
414,0.688117,170.432
415,0.689783,169.799
416,0.69145,169.538
417,0.693117,169.538
418,0.694783,168.748
419,0.69645,167.944
420,0.698117,167.355
421,0.699783,167.355
422,0.701433,166.662
423,0.703117,166.297
424,0.704767,165.865
425,0.706433,165.865
426,0.708167,165.768
427,0.709767,165.433
428,0.711433,165.217
429,0.713133,165.217
430,0.714767,165.299
431,0.716433,164.725
432,0.7181,164.725
433,0.719767,164.263
434,0.721433,164.01
435,0.7231,163.57
436,0.724783,163.57
437,0.726433,163.183
438,0.7281,162.832
439,0.7297670000000001,162.512
440,0.731433,162.512
441,0.7331,162.102
442,0.7347669999999999,161.879
443,0.736433,161.745
444,0.7381,161.745
445,0.739767,161.134
446,0.741533,161
447,0.743083,161
448,0.74475,160.813
449,0.746417,160.5
450,0.7480830000000001,160.374
451,0.74975,160.374
452,0.751433,159.808
453,0.7530829999999999,159.539
454,0.75475,159.174
455,0.756417,159.174
456,0.758083,159.107
457,0.75975,159.197
458,0.7614,158.779
459,0.7630670000000001,158.779
460,0.764733,158.317
461,0.7664,157.915
462,0.7680670000000001,157.915
463,0.769733,157.528
464,0.7714,157.498
465,0.7730669999999999,157.513
466,0.774733,157.513
467,0.7764,157.386
468,0.778067,157.163
469,0.779733,156.827
470,0.7814,156.827
471,0.783067,156.283
472,0.784733,156.052
473,0.7864,155.851
474,0.788067,155.851
475,0.789733,155.643
476,0.7914,155.933
477,0.793067,155.397
478,0.794733,155.397
479,0.7964,154.987
480,0.798067,154.637
481,0.799733,154.637
482,0.8014,154.294
483,0.803067,154.547
484,0.804733,154.518
485,0.8064,154.518
486,0.808067,154.376
487,0.809733,154.324
488,0.8114,153.966
489,0.813067,153.966
490,0.814733,153.668
491,0.8164,153.534
492,0.818067,153.46
493,0.819733,153.46
494,0.8214,153.117
495,0.823067,153.102
496,0.824717,153.102
497,0.8265,153.109
498,0.82805,152.856
499,0.829717,152.804
500,0.831383,152.804
501,0.83305,152.655
502,0.834717,152.379
503,0.836383,152.521
504,0.83805,152.521
505,0.839717,152.439
506,0.841383,152.074
507,0.843067,151.999
508,0.8447170000000001,151.999
509,0.846383,151.433
510,0.84805,151.321
511,0.8497169999999999,151.254
512,0.851383,151.254
513,0.85305,150.949
514,0.8547169999999999,150.815
515,0.856383,150.815
516,0.85805,150.539
517,0.85985,150.613
518,0.861383,150.673
519,0.86305,150.673
520,0.864717,150.472
521,0.866383,150.576
522,0.86805,150.494
523,0.869717,150.494
524,0.871383,150.576
525,0.87305,150.375
526,0.874717,150.301
527,0.876383,150.301
528,0.87805,150.166
529,0.879717,150.085
530,0.881383,150.085
531,0.88305,150.025
532,0.8847,149.794
533,0.886367,149.66
534,0.888033,149.66
535,0.8897,149.556
536,0.891367,149.608
537,0.893033,149.526
538,0.8947000000000001,149.526
539,0.896367,149.705
540,0.898033,149.608
541,0.8997000000000001,149.503
542,0.901367,149.503
543,0.903033,149.392
544,0.9046999999999999,149.064
545,0.906367,148.892
546,0.908033,148.892
547,0.9097,148.952
548,0.911367,148.863
549,0.913033,148.863
550,0.9147,148.915
551,0.916367,149.071
552,0.918033,148.974
553,0.9197,148.974
554,0.921367,149.034
555,0.923033,148.825
556,0.924717,148.423
557,0.9263670000000001,148.423
558,0.928033,148.512
559,0.9297,148.125
560,0.9313669999999999,148.08
561,0.933033,148.08
562,0.9347,148.222
563,0.9363669999999999,148.073
564,0.938033,148.073
565,0.9397,148.334
566,0.941367,148.155
567,0.943017,148.021
568,0.94475,148.021
569,0.94635,147.931
570,0.948017,148.162
571,0.9496830000000001,148.557
572,0.95135,148.557
573,0.953017,148.386
574,0.9546829999999999,148.199
575,0.95635,147.678
576,0.958017,147.678
577,0.959683,147.194
578,0.96135,147.402
579,0.963017,147.44
580,0.964683,147.44
581,0.966367,147.626
582,0.968017,147.529
583,0.969683,147.529
584,0.97135,147.477
585,0.973017,147.589
586,0.974683,147.432
587,0.9763500000000001,147.432
588,0.978117,147.559
589,0.979683,147.209
590,0.9813499999999999,146.858
591,0.983017,146.858
592,0.984683,146.776
593,0.9863499999999999,146.627
594,0.988017,146.56
595,0.989683,146.56
596,0.99135,146.694
597,0.993017,146.553
598,0.994683,146.553
599,0.99635,146.359
600,0.998017,146.493
601,0.9997,146.449
602,1.001367,146.449
603,1.003017,146.545
604,1.004667,146.642
605,1.006333,146.367
606,1.008,146.367
607,1.009667,146.374
608,1.011333,146.262
609,1.013,146.3
610,1.014667,146.3
611,1.016333,146.575
612,1.018,146.516
613,1.019667,146.516
614,1.021333,146.709
615,1.023,146.635
616,1.024667,146.3
617,1.026333,146.3
618,1.028,146.121
619,1.029667,145.793
620,1.031333,145.927
621,1.033,145.927
622,1.03465,145.994
623,1.036317,146.359
624,1.037983,146.493
625,1.03965,146.493
626,1.041317,146.344
627,1.042983,146.106
628,1.04465,145.54
629,1.046317,145.54
630,1.047983,145.547
631,1.04965,145.435
632,1.051317,145.435
633,1.052983,145.473
634,1.05465,145.458
635,1.056317,145.331
636,1.057983,145.331
637,1.05965,145.227
638,1.0613,145.391
639,1.063,145.637
640,1.064667,145.637
641,1.0663,145.532
642,1.067967,145.517
643,1.069633,145.614
644,1.0713,145.614
645,1.072967,145.495
646,1.074633,145.517
647,1.076317,145.517
648,1.077967,145.808
649,1.079633,145.458
650,1.0813,145.599
651,1.082967,145.599
652,1.084633,145.525
653,1.0863,145.279
654,1.087967,145.428
655,1.089633,145.428
656,1.0913,145.189
657,1.092967,145.137
658,1.094633,145.063
659,1.096417,145.063
660,1.097967,145.085
661,1.099633,145.04
662,1.1013,144.996
663,1.102967,144.996
664,1.104633,145.003
665,1.1063,144.646
666,1.107967,144.646
667,1.109633,144.713
668,1.1113,144.75
669,1.112967,144.973
670,1.114633,144.973
671,1.1163,145.264
672,1.117967,145.234
673,1.119633,145.279
674,1.1213,145.279
675,1.12295,145.055
676,1.124617,145.16
677,1.126283,144.929
678,1.12795,144.929
679,1.129617,144.862
680,1.131283,144.869
681,1.13295,144.869
682,1.134617,144.556
683,1.136283,144.854
684,1.13795,144.847
685,1.139633,144.847
686,1.1413,144.541
687,1.14295,144.571
688,1.144617,144.377
689,1.146283,144.377
690,1.14795,144.541
691,1.149617,144.355
692,1.151283,144.579
693,1.15295,144.579
694,1.154617,144.511
695,1.156283,144.176
696,1.15795,144.459
697,1.159617,144.459
698,1.161283,144.325
699,1.16295,144.497
700,1.164617,144.497
701,1.166283,144.631
702,1.16795,144.675
703,1.169617,144.705
704,1.171283,144.705
705,1.17295,144.646
706,1.174617,144.653
707,1.176283,144.601
708,1.17795,144.601
709,1.179617,144.504
710,1.181333,144.199
711,1.182933,144.094
712,1.1846,144.094
713,1.186267,144.266
714,1.187933,144.184
715,1.1896,144.184
716,1.191267,144.43
717,1.192933,144.444
718,1.1946,144.228
719,1.196267,144.228
720,1.197933,144.325
721,1.1996,144.437
722,1.201267,144.251
723,1.202933,144.251
724,1.2046,144.087
725,1.206267,143.856
726,1.207933,143.535
727,1.2096,143.535
728,1.211267,143.655
729,1.212933,143.751
730,1.214733,144.079
731,1.216267,144.079
732,1.217933,144.199
733,1.2196,144.206
734,1.221267,144.206
735,1.222933,144.362
736,1.2246,144.057
737,1.226267,143.774
738,1.227933,143.774
739,1.2296,143.744
740,1.231267,143.677
741,1.232933,143.766
742,1.2346,143.766
743,1.236267,143.878
744,1.237933,143.677
745,1.2396,143.424
746,1.241267,143.424
747,1.242933,143.558
748,1.244583,143.64
749,1.246283,143.64
750,1.247917,143.647
751,1.249583,143.737
752,1.25125,143.476
753,1.252917,143.476
754,1.254583,143.588
755,1.25625,143.908
756,1.257917,144.02
757,1.259583,144.02
758,1.26125,143.93
759,1.262917,143.811
760,1.264583,143.901
761,1.26625,143.901
762,1.267917,144.191
763,1.269583,144.467
764,1.27125,144.467
765,1.272917,144.601
766,1.274583,144.608
767,1.27625,144.213
768,1.277917,144.213
769,1.279583,144.303
770,1.28125,144.348
771,1.282933,144.295
772,1.284583,144.295
773,1.28625,144.541
774,1.287917,144.31
775,1.289583,144.117
776,1.29125,144.117
777,1.292917,143.774
778,1.294583,143.498
779,1.29625,143.252
780,1.297917,143.252
781,1.299583,143.126
782,1.30125,143.029
783,1.302917,143.029
784,1.304567,143.245
785,1.306233,143.342
786,1.3079,143.267
787,1.309567,143.267
788,1.311233,143.223
789,1.3129,142.917
790,1.314567,142.783
791,1.3163,142.783
792,1.3179,143.006
793,1.319567,143.155
794,1.321233,143.237
795,1.3229,143.237
796,1.324567,143.282
797,1.326217,143.148
798,1.327883,143.148
799,1.32955,143.155
800,1.331217,142.887
801,1.332983,143.208
802,1.33455,143.208
803,1.336217,143.014
804,1.337883,143.074
805,1.33955,143.431
806,1.341217,143.431
807,1.342883,143.155
808,1.34455,143.334
809,1.346217,143.386
810,1.347883,143.386
811,1.34965,143.409
812,1.351217,143.364
813,1.352883,143.26
814,1.35455,143.26
815,1.356217,143.193
816,1.357883,143.036
817,1.35955,143.036
818,1.361233,143.021
819,1.362867,143.223
820,1.364533,143.543
821,1.3662,143.543
822,1.367867,143.647
823,1.369533,143.826
824,1.3712,143.595
825,1.372867,143.595
826,1.374533,143.103
827,1.3762,142.977
828,1.377867,142.656
829,1.379533,142.656
830,1.3812,142.753
831,1.382867,143.006
832,1.384533,143.006
833,1.3862,143.133
834,1.387867,143.491
835,1.389533,143.424
836,1.3912,143.424
837,1.392867,143.2
838,1.394533,142.977
839,1.3962,143.088
840,1.397867,143.088
841,1.399533,143.364
842,1.4012,143.61
843,1.402867,143.878
844,1.404533,143.878
845,1.4062,143.655
846,1.407867,143.58
847,1.409533,143.58
848,1.4112,143.461
849,1.412867,143.431
850,1.414533,143.364
851,1.4162,143.364
852,1.417867,143.319
853,1.419533,143.141
854,1.4212,142.932
855,1.422867,142.932
856,1.424517,142.977
857,1.426217,143.021
858,1.42785,143.088
859,1.429517,143.088
860,1.431183,142.895
861,1.43285,142.992
862,1.434583,142.828
863,1.436183,142.828
864,1.43785,143.029
865,1.439517,143.632
866,1.441183,143.632
867,1.44285,143.647
868,1.444517,143.602
869,1.446183,143.394
870,1.44785,143.394
871,1.449517,142.984
872,1.45125,142.857
873,1.45285,142.977
874,1.454517,142.977
875,1.456183,142.82
876,1.45785,142.455
877,1.459517,142.194
878,1.461183,142.194
879,1.46285,142.075
880,1.464517,142.269
881,1.466183,142.269
882,1.467917,142.895
883,1.469517,142.962
884,1.471183,142.969
885,1.47285,142.969
886,1.474517,142.813
887,1.476183,142.664
888,1.47785,142.82
889,1.479517,142.82
890,1.481183,142.895
891,1.48285,142.924
892,1.4845,142.686
893,1.486167,142.686
894,1.487833,142.545
895,1.4895,142.515
896,1.491167,142.53
897,1.492833,142.53
898,1.4945,142.321
899,1.496167,142.254
900,1.497833,142.254
901,1.499567,141.919
902,1.501167,142.06
903,1.502833,142.366
904,1.5045,142.366
905,1.506167,142.47
906,1.507833,142.597
907,1.5095,142.44
908,1.511167,142.44
909,1.512833,142.463
910,1.5145,142.746
911,1.516167,142.992
912,1.517833,142.992
913,1.5195,143.029
914,1.521167,142.723
915,1.522833,142.723
916,1.5245,142.351
917,1.526167,142.202
918,1.527833,142.001
919,1.5295,142.001
920,1.531167,142.224
921,1.532833,142.492
922,1.5345,142.53
923,1.536167,142.53
924,1.537833,142.619
925,1.5395,142.656
926,1.541167,142.589
927,1.542833,142.589
928,1.5445,142.574
929,1.54615,142.664
930,1.547817,142.425
931,1.549483,142.425
932,1.55115,142.582
933,1.552917,142.604
934,1.554483,142.604
935,1.55615,142.403
936,1.557817,142.589
937,1.559483,142.321
938,1.56115,142.321
939,1.562817,142.403
940,1.564483,142.649
941,1.56615,142.425
942,1.567817,142.425
943,1.56955,142.425
944,1.57115,142.373
945,1.572817,142.269
946,1.574483,142.269
947,1.57615,142.492
948,1.577817,142.664
949,1.579483,142.664
950,1.58115,142.448
951,1.582817,142.679
952,1.584483,142.664
953,1.58625,142.664
954,1.587817,142.291
955,1.589483,142.597
956,1.59115,142.537
957,1.592817,142.537
