"ID","sea_time","fid_signal"
1,0,140.823
2,0.001667,140.913
3,0.003333,141.151
4,0.005,141.151
5,0.006667,141.151
6,0.008333,140.95
7,0.01,140.645
8,0.011667,140.645
9,0.013333,140.585
10,0.015,140.801
11,0.016667,140.935
12,0.018333,140.935
13,0.0201,141.092
14,0.021667,140.898
15,0.023333,140.883
16,0.025,140.883
17,0.026667,140.779
18,0.028333,140.965
19,0.03,140.965
20,0.031667,141.27
21,0.033333,141.367
22,0.035,141.315
23,0.036683,141.315
24,0.038333,141.144
25,0.04,141.084
26,0.041667,140.592
27,0.043333,140.592
28,0.045,140.771
29,0.046667,140.794
30,0.048333,140.995
31,0.05,140.995
32,0.05165,141.218
33,0.053317,141.099
34,0.054983,140.771
35,0.05665,140.771
36,0.058317,140.622
37,0.059983,140.838
38,0.06165,140.838
39,0.063317,141.069
40,0.064983,141.732
41,0.06665,141.844
42,0.068317,141.844
43,0.069983,141.397
44,0.07165000000000001,141.256
45,0.07331699999999999,140.95
46,0.07498299999999999,140.95
47,0.07665,141.002
48,0.078317,141.3
49,0.079983,141.382
50,0.08165,141.382
51,0.083317,141.516
52,0.084983,141.323
53,0.08665,141.323
54,0.08831700000000001,140.958
55,0.08998299999999999,140.98
56,0.09165,141.002
57,0.093317,141.002
58,0.094983,141.189
59,0.09665,141.464
60,0.098317,141.367
61,0.099983,141.367
62,0.10165,141.256
63,0.103317,141.226
64,0.10505,141.203
65,0.10665,141.203
66,0.10835,141.129
67,0.109983,140.838
68,0.111633,140.764
69,0.1133,140.764
70,0.114967,140.771
71,0.116633,140.794
72,0.1183,140.794
73,0.119967,140.972
74,0.121633,140.98
75,0.123283,141.047
76,0.12495,141.047
77,0.126617,141.136
78,0.128283,141.248
79,0.12995,141.27
80,0.131617,141.27
81,0.133283,141.121
82,0.13495,141.099
83,0.136617,141.27
84,0.138383,141.27
85,0.13995,141.494
86,0.141617,141.956
87,0.143283,141.956
88,0.14495,141.911
89,0.146617,141.881
90,0.148283,141.837
91,0.14995,141.837
92,0.151617,141.516
93,0.153283,141.449
94,0.15495,141.054
95,0.156617,141.054
96,0.158283,140.749
97,0.15995,140.883
98,0.161617,141.039
99,0.163283,141.039
100,0.16495,141.107
101,0.166617,141.077
102,0.168283,141.077
103,0.16995,140.823
104,0.1716,140.712
105,0.173267,140.883
106,0.174933,140.883
107,0.1766,140.958
108,0.178267,140.958
109,0.179983,141.039
110,0.1816,141.039
111,0.183267,140.876
112,0.184933,140.533
113,0.1866,140.615
114,0.188267,140.615
115,0.189933,140.682
116,0.1916,141.062
117,0.193283,141.777
118,0.194933,141.777
119,0.1966,141.829
120,0.198267,141.807
121,0.199933,141.807
122,0.2016,141.352
123,0.203267,140.719
124,0.204933,140.496
125,0.2066,140.496
126,0.208267,140.563
127,0.209933,140.689
128,0.2116,140.592
129,0.213267,140.592
130,0.214933,140.652
131,0.2166,140.458
132,0.218267,140.443
133,0.219933,140.443
134,0.2216,140.92
135,0.223317,141.33
136,0.224933,141.33
137,0.2266,141.479
138,0.228267,141.598
139,0.229933,141.412
140,0.231583,141.412
141,0.23325,141.025
142,0.234917,140.95
143,0.236583,140.987
144,0.23825,140.987
145,0.239917,141.256
146,0.241583,141.39
147,0.24325,141.159
148,0.244917,141.159
149,0.246583,141.203
150,0.248267,140.995
151,0.249917,140.905
152,0.251583,140.905
153,0.25325,141.002
154,0.254917,141.002
155,0.2567,141.002
156,0.25825,141.27
157,0.259917,141.703
158,0.261583,142.112
159,0.26325,142.112
160,0.264917,142.127
161,0.266583,142.097
162,0.26825,141.852
163,0.269917,141.852
164,0.271583,141.568
165,0.27325,141.606
166,0.274917,141.509
167,0.276583,141.509
168,0.27825,141.911
169,0.279917,142.641
170,0.281583,142.641
171,0.28325,143.707
172,0.284917,145.16
173,0.286583,146.911
174,0.28825,146.911
175,0.289917,148.915
176,0.291567,151.448
177,0.293233,154.302
178,0.2949,154.302
179,0.296567,157.863
180,0.298233,162.363
181,0.2999,167.653
182,0.301567,167.653
183,0.303233,174.15
184,0.3049,181.302
185,0.306567,189.64
186,0.308233,189.64
187,0.3099,198.938
188,0.311567,209.562
189,0.313233,209.562
190,0.3149,221.997
191,0.316567,235.908
192,0.31825,251.45
193,0.3199,251.45
194,0.321567,268.742
195,0.323233,287.794
196,0.3249,308.357
197,0.326567,308.357
198,0.328233,331.186
199,0.3299,355.899
200,0.331567,382.416
201,0.333233,382.416
202,0.3349,411.615
203,0.336567,442.937
204,0.338233,442.937
205,0.3399,476.524
206,0.341583,512.5549999999999
207,0.343233,551.119
208,0.3449,551.119
209,0.346567,592.4400000000001
210,0.348233,636.972
211,0.3499,685.096
212,0.35155,685.096
213,0.353217,736.251
214,0.354883,791.423
215,0.35655,850.856
216,0.358333,850.856
217,0.359883,914.976
218,0.36155,984.669
219,0.363217,1059.592
220,0.364883,1059.592
221,0.36655,1140.609
222,0.368217,1228.385
223,0.369883,1228.385
224,0.37155,1323.953
225,0.373217,1428.299
226,0.374983,1542.337
227,0.37655,1542.337
228,0.378217,1667.097
229,0.379883,1803.443
230,0.38155,1953.296
231,0.383217,1953.296
232,0.384883,2117.686
233,0.38655,2297.379
234,0.388217,2493.039
235,0.389883,2493.039
236,0.39165,2704.613
237,0.393233,2932.489
238,0.394883,2932.489
239,0.396567,3176.622
240,0.398217,3435.798
241,0.399883,3708.333
242,0.40155,3708.333
243,0.403217,3992.528
244,0.404883,4284.926
245,0.40655,4582.204
246,0.408217,4582.204
247,0.409883,4880.316
248,0.41155,5173.87
249,0.4132,5458.556
250,0.41485,5458.556
251,0.416517,5729.504
252,0.418183,5982.31
253,0.41985,5982.31
254,0.421517,6212.339
255,0.423183,6415.054
256,0.42485,6586.902
257,0.426517,6586.902
258,0.428183,6723.911
259,0.42985,6823.167
260,0.431517,6883.182
261,0.433183,6883.182
262,0.43485,6902.844
263,0.436517,6882.422
264,0.438183,6823.689
265,0.43985,6823.689
266,0.441517,6727.896
267,0.443183,6597.415
268,0.444867,6434.992
269,0.446517,6434.992
270,0.448183,6243.371
271,0.44985,6026.261
272,0.451517,6026.261
273,0.453183,5787.7
274,0.45485,5531.579
275,0.456517,5261.652
276,0.458183,5261.652
277,0.459883,4981.793
278,0.461517,4695.937
279,0.463183,4407.242
280,0.464867,4407.242
281,0.466517,4119.188
282,0.468183,3834.762
283,0.46985,3556.065
284,0.4715,3556.065
285,0.473167,3286.041
286,0.474833,3026.59
287,0.476583,2778.97
288,0.478167,2778.97
289,0.479833,2544.344
290,0.4815,2323.62
291,0.483167,2323.62
292,0.484833,2116.866
293,0.4865,1924.656
294,0.488167,1746.975
295,0.489833,1746.975
296,0.4915,1583.569
297,0.49325,1434.199
298,0.494833,1298.085
299,0.4965,1298.085
300,0.498167,1174.74
301,0.499833,1063.19
302,0.5014999999999999,963.0170000000001
303,0.503167,963.0170000000001
304,0.504833,872.9400000000001
305,0.5065,792.444
306,0.508167,792.444
307,0.509933,720.888
308,0.5115,656.798
309,0.513167,600.0549999999999
310,0.514833,600.0549999999999
311,0.5165,550.1660000000001
312,0.518167,505.872
313,0.519833,466.92
314,0.5215,466.92
315,0.523167,432.871
316,0.524833,402.279
317,0.5265,375.688
318,0.5281670000000001,375.688
319,0.529833,352.345
320,0.531483,331.707
321,0.53315,331.707
322,0.53485,313.997
323,0.536483,297.889
324,0.53815,283.703
325,0.539833,283.703
326,0.541533,271.536
327,0.54315,260.428
328,0.544817,250.936
329,0.5464830000000001,250.936
330,0.54815,242.718
331,0.549817,235.245
332,0.5514829999999999,228.636
333,0.55315,228.636
334,0.554817,222.497
335,0.5564829999999999,217.073
336,0.55815,212.26
337,0.559817,212.26
338,0.561483,208.035
339,0.56315,204.31
340,0.564817,204.31
341,0.566483,201.009
342,0.568167,198.253
343,0.569817,195.839
344,0.571483,195.839
345,0.57315,193.849
346,0.574817,191.614
347,0.576483,189.081
348,0.5781500000000001,189.081
349,0.579817,187.218
350,0.581483,185.005
351,0.5831499999999999,183.411
352,0.584817,183.411
353,0.586483,182.256
354,0.58815,180.87
355,0.589817,180.87
356,0.591467,179.775
357,0.593133,178.859
358,0.5948830000000001,177.659
359,0.596467,177.659
360,0.598133,176.661
361,0.5998,175.901
362,0.601467,174.753
363,0.603133,174.753
364,0.6048,174.068
365,0.606467,173.33
366,0.608133,172.563
367,0.609833,172.563
368,0.611533,171.81
369,0.613133,170.976
370,0.6148,170.976
371,0.616467,170.35
372,0.618133,169.687
373,0.6198,169.046
374,0.621467,169.046
375,0.623133,168.368
376,0.6248,167.586
377,0.626467,167.102
378,0.628233,167.102
379,0.6298,166.684
380,0.631467,165.954
381,0.6331329999999999,165.515
382,0.6348,165.515
383,0.636467,165.053
384,0.638133,164.68
385,0.6398,164.531
386,0.641467,164.531
387,0.643133,164.084
388,0.6448,163.451
389,0.646467,163.451
390,0.648133,162.974
391,0.6498,162.631
392,0.65145,162.497
393,0.6531169999999999,162.497
394,0.654783,162.415
395,0.65645,161.953
396,0.658117,161.745
397,0.659783,161.745
398,0.66145,161.193
399,0.663117,160.672
400,0.664783,160.776
401,0.66645,160.776
402,0.668117,160.605
403,0.669783,160.418
404,0.67145,160.418
405,0.673117,160.106
406,0.674783,159.785
407,0.67645,159.189
408,0.678117,159.189
409,0.679783,158.75
410,0.68145,158.548
411,0.683117,157.9
412,0.684783,157.9
413,0.68645,158.012
414,0.688117,157.952
415,0.689783,157.841
416,0.69145,157.841
417,0.693117,158.064
418,0.6948,157.841
419,0.69645,157.595
420,0.698117,157.595
421,0.699783,157.662
422,0.70145,157.475
423,0.703117,157.475
424,0.704783,157.319
425,0.706433,157.163
426,0.7081,156.581
427,0.709767,156.581
428,0.711417,156.127
429,0.7131,155.889
430,0.71475,155.859
431,0.716417,155.859
432,0.718083,155.896
433,0.71975,155.963
434,0.721417,155.792
435,0.723083,155.792
436,0.72475,155.397
437,0.726417,155.285
438,0.728083,155.285
439,0.7297670000000001,155.188
440,0.731417,155.196
441,0.733083,155.449
442,0.73475,155.449
443,0.736417,155.114
444,0.738083,154.845
445,0.73975,154.421
446,0.741417,154.421
447,0.7431,153.929
448,0.74475,153.877
449,0.746467,153.676
450,0.7480830000000001,153.676
451,0.74975,153.631
452,0.751417,153.631
453,0.7530829999999999,153.631
454,0.75475,153.631
455,0.756417,153.489
456,0.758083,153.586
457,0.75975,153.586
458,0.761417,153.609
459,0.763083,153.683
460,0.76475,153.72
461,0.766417,153.72
462,0.768083,153.296
463,0.76975,152.983
464,0.7714,152.7
465,0.7730669999999999,152.7
466,0.774733,152.782
467,0.7764,152.729
468,0.778067,152.811
469,0.779733,152.811
470,0.7814,152.901
471,0.783067,152.513
472,0.784733,152.513
473,0.786417,152.484
474,0.788067,152.037
475,0.789733,151.478
476,0.7914,151.478
477,0.793067,151.418
478,0.794733,151.254
479,0.7964,151.202
480,0.798067,151.202
481,0.799733,151.306
482,0.8014,151.351
483,0.803067,151.217
484,0.804733,151.217
485,0.8064,151.128
486,0.808067,150.822
487,0.809733,150.822
488,0.8114,150.718
489,0.813067,150.681
490,0.814733,150.472
491,0.8164,150.472
492,0.818067,150.561
493,0.819733,150.286
494,0.8214,150.137
495,0.823067,150.137
496,0.824733,150.159
497,0.8264,150.077
498,0.828067,149.958
499,0.8297330000000001,149.958
500,0.831467,149.801
501,0.83305,149.779
502,0.834717,149.466
503,0.836383,149.466
504,0.83805,149.578
505,0.839717,149.675
506,0.841383,149.675
507,0.84305,149.496
508,0.8447170000000001,149.764
509,0.846383,149.466
510,0.84805,149.466
511,0.8497169999999999,149.362
512,0.851383,149.377
513,0.85305,149.168
514,0.8547169999999999,149.168
515,0.856383,149.19
516,0.85805,149.004
517,0.859717,148.937
518,0.861383,148.937
519,0.86305,148.87
520,0.864833,148.945
521,0.866383,148.945
522,0.86805,148.959
523,0.869717,148.937
524,0.871383,148.87
525,0.87305,148.87
526,0.874717,148.714
527,0.876383,148.81
528,0.87805,148.989
529,0.879717,148.989
530,0.881383,149.108
531,0.88305,148.609
532,0.884717,148.423
533,0.886383,148.423
534,0.88805,148.319
535,0.889717,148.207
536,0.891367,148.706
537,0.8930670000000001,148.706
538,0.8947000000000001,148.594
539,0.896367,148.341
540,0.898033,148.341
541,0.8997000000000001,148.43
542,0.901367,148.445
543,0.903033,148.684
544,0.9046999999999999,148.684
545,0.906367,148.512
546,0.908033,148.103
547,0.9097,147.648
548,0.911367,147.648
549,0.913033,147.179
550,0.9147,147.469
551,0.916367,147.581
552,0.918033,147.581
553,0.9197,147.738
554,0.921367,148.043
555,0.923033,148.043
556,0.9247,147.864
557,0.9263670000000001,147.82
558,0.928033,147.842
559,0.9297,147.842
560,0.9313669999999999,147.872
561,0.933033,148.028
562,0.9347,148.17
563,0.9363669999999999,148.17
564,0.938033,147.872
565,0.9397,147.514
566,0.941367,147.082
567,0.943033,147.082
568,0.9447,146.687
569,0.946367,146.754
570,0.948033,146.896
571,0.94975,146.896
572,0.95135,147.007
573,0.95305,147.007
574,0.9546829999999999,147.007
575,0.95635,146.94
576,0.958017,146.94
577,0.959683,146.978
578,0.96135,146.978
579,0.96305,147.03
580,0.964683,147.328
581,0.96635,147.149
582,0.968017,147.149
583,0.969683,147.06
584,0.971367,146.948
585,0.973017,146.687
586,0.974683,146.687
587,0.9763500000000001,146.724
588,0.978017,146.821
589,0.979683,146.821
590,0.9813499999999999,146.843
591,0.9831,146.754
592,0.984683,146.955
593,0.9863499999999999,146.955
594,0.988017,146.501
595,0.989683,146.233
596,0.99135,146.009
597,0.993017,146.009
598,0.994683,145.726
599,0.99635,146.002
600,0.998,146.314
601,0.999667,146.314
602,1.001333,146.739
603,1.003,146.657
604,1.004667,146.657
605,1.006333,146.605
606,1.008,146.3
607,1.009667,146.143
608,1.011317,146.143
609,1.012983,146.039
610,1.01465,145.882
611,1.016317,146.098
612,1.017983,146.098
613,1.01965,146.098
614,1.021317,146.031
615,1.022983,145.897
616,1.02465,145.897
617,1.026317,145.599
618,1.027983,145.331
619,1.02965,145.406
620,1.031317,145.406
621,1.033017,145.391
622,1.03465,145.42
623,1.036317,145.42
624,1.037983,145.271
625,1.03965,145.212
626,1.041317,145.465
627,1.042983,145.465
628,1.04465,145.83
629,1.046317,145.964
630,1.047983,145.838
631,1.04965,145.838
632,1.051317,145.495
633,1.052983,145.204
634,1.05465,145.108
635,1.056317,145.108
636,1.057983,145.189
637,1.05965,145.294
638,1.061317,145.294
639,1.062983,145.152
640,1.06465,145.048
641,1.066317,144.899
642,1.06805,144.899
643,1.069633,144.944
644,1.0713,145.055
645,1.072967,145.525
646,1.074633,145.525
647,1.0763,145.89
648,1.077967,145.786
649,1.079633,145.867
650,1.0813,145.867
651,1.082967,145.577
652,1.084633,145.279
653,1.0863,145.301
654,1.087967,145.301
655,1.089633,145.443
656,1.0913,145.331
657,1.092967,145.331
658,1.094633,145.331
659,1.0963,145.383
660,1.097967,145.249
661,1.099633,145.249
662,1.10135,145.51
663,1.102967,145.473
664,1.104633,145.651
665,1.106333,145.651
666,1.107967,145.443
667,1.109633,144.951
668,1.1113,144.929
669,1.112967,144.929
670,1.114633,144.511
671,1.1163,144.556
672,1.117967,144.556
673,1.119633,144.809
674,1.1213,144.891
675,1.122967,145.093
676,1.124633,145.093
677,1.1263,144.735
678,1.127967,144.839
679,1.129633,144.638
680,1.131283,144.638
681,1.13295,144.34
682,1.134617,144.787
683,1.136283,144.623
684,1.13795,144.623
685,1.139617,144.958
686,1.141283,145.346
687,1.14295,145.219
688,1.144617,145.219
689,1.1463,145.309
690,1.14795,144.966
691,1.149617,144.966
692,1.151283,144.601
693,1.15295,144.415
694,1.154617,144.31
695,1.156283,144.31
696,1.15795,144.511
697,1.159617,144.728
698,1.161283,144.765
699,1.16295,144.765
700,1.164617,144.526
701,1.166283,144.258
702,1.16795,144.079
703,1.169617,144.079
704,1.171283,144.37
705,1.17295,144.854
706,1.174617,144.854
707,1.1763,144.958
708,1.17795,145.003
709,1.179633,144.728
710,1.181283,144.728
711,1.18295,144.348
712,1.184617,144.31
713,1.1863,144.4
714,1.18795,144.4
715,1.189617,144.444
716,1.191267,144.526
717,1.192933,144.713
718,1.1946,144.713
719,1.196267,144.884
720,1.197933,144.921
721,1.1996,144.921
722,1.201267,144.72
723,1.203033,144.72
724,1.2046,144.705
725,1.206267,144.705
726,1.207933,144.593
727,1.2096,144.735
728,1.211267,144.772
729,1.212933,144.772
730,1.2146,144.444
731,1.216267,144.549
732,1.217933,144.467
733,1.2197,144.467
734,1.221267,144.258
735,1.222933,144.593
736,1.2246,144.579
737,1.226267,144.579
738,1.227933,144.646
739,1.2296,144.377
740,1.231267,144.377
741,1.232933,144.072
742,1.2346,143.781
743,1.236367,143.804
744,1.237933,143.804
745,1.2396,144.146
746,1.241267,144.146
747,1.242933,144.415
748,1.2446,144.415
749,1.246267,144.586
750,1.247933,144.489
751,1.2496,144.236
752,1.25125,144.236
753,1.252933,144.109
754,1.254583,144.05
755,1.25625,144.05
756,1.257917,144.072
757,1.259583,144.362
758,1.26125,144.444
759,1.262917,144.444
760,1.264583,144.228
761,1.26625,144.109
762,1.267917,143.863
763,1.269583,143.863
764,1.27125,143.848
765,1.272933,143.729
766,1.274583,143.886
767,1.27625,143.886
768,1.277917,143.781
769,1.279583,143.468
770,1.28125,143.729
771,1.282917,143.729
772,1.284583,143.602
773,1.28625,143.975
774,1.287917,143.975
775,1.289567,144.288
776,1.291233,144.377
777,1.2929,144.154
778,1.294567,144.154
779,1.296233,144.072
780,1.2979,143.774
781,1.299567,143.67
782,1.301233,143.67
783,1.3029,143.796
784,1.3046,143.915
785,1.306233,144.28
786,1.3079,144.28
787,1.30955,144.072
788,1.311217,144.34
789,1.312883,144.34
790,1.31455,144.064
791,1.316217,144.079
792,1.317883,144.422
793,1.319567,144.422
794,1.32135,144.02
795,1.322883,143.915
796,1.32455,143.878
797,1.326217,143.878
798,1.327883,143.774
799,1.32955,144.206
800,1.331217,144.519
801,1.332883,144.519
802,1.33455,144.228
803,1.336217,143.953
804,1.337983,143.699
805,1.33955,143.699
806,1.341217,143.491
807,1.342883,143.461
808,1.34455,143.461
809,1.346217,143.573
810,1.347883,143.729
811,1.34955,143.677
812,1.351217,143.677
813,1.352883,143.759
814,1.35465,143.625
815,1.356217,143.483
816,1.357883,143.483
817,1.35955,143.461
818,1.361233,143.379
819,1.362883,143.558
820,1.36455,143.558
821,1.366217,143.439
822,1.367883,143.468
823,1.36955,143.468
824,1.3712,143.588
825,1.372867,143.692
826,1.374533,143.766
827,1.3762,143.766
828,1.377867,143.893
829,1.379533,143.692
830,1.3812,143.684
831,1.382867,143.684
832,1.384533,143.833
833,1.3862,143.968
834,1.387883,143.982
835,1.389533,143.982
836,1.3912,143.766
837,1.392867,143.513
838,1.394533,143.513
839,1.3962,143.044
840,1.397867,143.148
841,1.399533,143.029
842,1.4012,143.029
843,1.402867,143.051
844,1.404533,143.543
845,1.4062,143.707
846,1.407867,143.707
847,1.409533,143.804
848,1.4112,144.042
849,1.412867,143.833
850,1.414533,143.833
851,1.4162,143.833
852,1.417867,143.833
853,1.419533,143.781
854,1.4212,143.781
855,1.422867,143.58
856,1.424533,143.394
857,1.4262,143.394
858,1.427867,143.55
859,1.429533,143.327
860,1.431183,143.692
861,1.43285,143.692
862,1.434517,143.871
863,1.436183,143.595
864,1.43785,143.722
865,1.4396,143.722
866,1.441183,143.58
867,1.44285,143.26
868,1.444517,143.573
869,1.446183,143.573
870,1.44785,143.491
871,1.449517,143.513
872,1.451183,143.513
873,1.45285,143.453
874,1.454517,143.088
875,1.456233,142.999
876,1.45785,142.999
877,1.459517,142.887
878,1.461183,143.096
879,1.46285,143.245
880,1.464517,143.245
881,1.466183,143.401
882,1.46785,143.245
883,1.469517,143.379
884,1.471183,143.379
885,1.47295,143.297
886,1.474517,143.074
887,1.476183,143.29
888,1.47785,143.29
889,1.479517,143.424
890,1.481183,143.573
891,1.48285,143.573
892,1.484517,143.804
893,1.486183,144.035
894,1.48785,143.677
895,1.489517,143.677
896,1.491183,143.401
897,1.492833,143.364
898,1.4945,142.969
899,1.496167,142.969
900,1.497833,142.947
901,1.4995,143.185
902,1.501167,143.006
903,1.502833,143.006
904,1.5045,143.275
905,1.506167,143.416
906,1.507833,143.416
907,1.5095,143.29
908,1.511167,143.23
909,1.512833,143.223
910,1.5145,143.223
911,1.516167,143.357
912,1.517833,143.662
913,1.5195,143.923
914,1.521167,143.923
915,1.522833,143.662
916,1.5245,143.312
917,1.526167,143.118
918,1.527833,143.118
919,1.529517,142.91
920,1.531167,142.857
921,1.532833,142.939
922,1.5345,142.939
923,1.536167,142.969
924,1.537833,143.275
925,1.5395,143.275
926,1.541167,143.312
927,1.542833,143.237
928,1.5445,143.23
929,1.546167,143.23
930,1.547833,142.962
931,1.5495,142.939
932,1.55115,142.924
933,1.552817,142.924
934,1.554483,143.021
935,1.55615,142.857
936,1.557817,142.723
937,1.559483,142.723
938,1.56115,142.813
939,1.562817,142.604
940,1.564483,142.604
941,1.56615,143.088
942,1.567817,143.521
943,1.569483,143.863
944,1.57115,143.863
945,1.572817,143.848
946,1.574483,143.2
947,1.57615,143.141
948,1.577817,143.141
949,1.579483,143.066
950,1.581133,143.148
951,1.5828,143.692
952,1.584467,143.692
953,1.586133,143.468
954,1.5878,143.103
955,1.589467,143.103
956,1.5912,143.126
957,1.5928,143.088
958,1.594467,142.977
959,1.596133,142.977
960,1.5978,143.133
