"ID","sea_time","fid_signal"
1,0,1172.87
2,0.001683,1172.647
3,0.003333,1169.89
4,0.005,1168.4
5,0.006683,1168.4
6,0.008333,1167.655
7,0.01,1164.675
8,0.011667,1165.122
9,0.013333,1165.122
10,0.015,1165.718
11,0.016667,1169.816
12,0.018333,1169.816
13,0.02,1170.561
14,0.021667,1172.721
15,0.023383,1172.721
16,0.025,1172.721
17,0.026667,1169.592
18,0.028333,1169.071
19,0.03,1167.804
20,0.031667,1167.804
21,0.033333,1169.592
22,0.035,1170.114
23,0.036667,1169.443
24,0.038333,1169.443
25,0.0401,1165.047
26,0.04165,1161.322
27,0.043317,1161.322
28,0.045017,1160.651
29,0.04665,1163.185
30,0.048317,1166.388
31,0.049983,1166.388
32,0.05165,1167.282
33,0.053317,1168.549
34,0.054983,1166.984
35,0.05665,1166.984
36,0.058317,1170.337
37,0.059983,1169.294
38,0.06165,1167.804
39,0.063317,1167.804
40,0.064983,1169.071
41,0.06665,1167.58
42,0.0683,1169.145
43,0.069967,1169.145
44,0.071633,1169.741
45,0.0733,1169.294
46,0.07498299999999999,1169.294
47,0.07663300000000001,1170.337
48,0.07829999999999999,1171.008
49,0.079967,1170.635
50,0.081633,1170.635
51,0.0833,1168.922
52,0.084967,1168.326
53,0.086633,1168.475
54,0.0883,1168.475
55,0.08996700000000001,1166.686
56,0.09163300000000001,1166.239
57,0.09329999999999999,1163.855
58,0.094967,1163.855
59,0.096633,1166.388
60,0.0983,1171.827
61,0.09995,1171.827
62,0.101633,1173.392
63,0.103283,1176
64,0.10495,1173.243
65,0.106617,1173.243
66,0.108283,1171.38
67,0.10995,1170.71
68,0.111617,1168.251
69,0.113283,1168.251
70,0.11495,1167.357
71,0.116617,1165.122
72,0.118283,1163.855
73,0.11995,1163.855
74,0.121633,1164.228
75,0.123283,1164.004
76,0.12495,1165.047
77,0.126617,1165.047
78,0.128283,1165.494
79,0.12995,1164.973
80,0.131617,1164.973
81,0.133283,1163.93
82,0.13495,1163.855
83,0.136617,1163.036
84,0.138283,1163.036
85,0.13995,1163.632
86,0.141683,1168.475
87,0.143283,1168.773
88,0.14495,1168.773
89,0.146617,1170.784
90,0.1483,1172.349
91,0.14995,1170.784
92,0.151617,1170.784
93,0.153283,1168.922
94,0.15495,1170.784
95,0.156617,1170.784
96,0.1584,1169.443
97,0.159933,1167.432
98,0.1616,1170.561
99,0.163267,1170.561
100,0.164933,1170.859
101,0.1666,1170.412
102,0.168267,1170.635
103,0.169933,1170.635
104,0.1716,1169.89
105,0.173267,1168.698
106,0.174933,1168.4
107,0.1766,1168.4
108,0.178267,1167.133
109,0.179933,1169.294
110,0.1816,1169.294
111,0.183267,1169.965
112,0.184933,1171.604
113,0.1866,1173.69
114,0.188267,1173.69
115,0.189933,1172.274
116,0.1916,1170.114
117,0.193267,1170.412
118,0.194933,1170.412
119,0.1966,1170.784
120,0.198267,1170.188
121,0.199933,1173.541
122,0.2016,1173.541
123,0.203267,1172.721
124,0.204933,1172.051
125,0.2066,1170.635
126,0.208267,1170.635
127,0.209933,1169.741
128,0.2116,1172.125
129,0.213267,1172.125
130,0.214933,1174.584
131,0.2166,1176.894
132,0.218267,1172.87
133,0.219933,1172.87
134,0.221583,1169.369
135,0.22325,1166.91
136,0.224917,1164.228
137,0.226583,1164.228
138,0.22825,1167.655
139,0.229917,1169.667
140,0.231583,1168.027
141,0.23325,1168.027
142,0.234917,1169.592
143,0.236583,1166.463
144,0.23825,1166.463
145,0.239917,1167.953
146,0.241583,1170.784
147,0.243317,1171.38
148,0.244917,1171.38
149,0.246583,1174.286
150,0.24825,1171.976
151,0.249917,1170.784
152,0.251583,1170.784
153,0.25325,1171.529
154,0.254917,1171.753
155,0.256583,1169.518
156,0.25825,1169.518
157,0.259917,1171.008
158,0.261583,1169.369
159,0.26325,1169.518
160,0.264917,1169.518
161,0.266583,1172.572
162,0.26825,1171.38
163,0.269917,1171.38
164,0.271583,1173.168
165,0.27325,1172.2
166,0.274917,1173.541
167,0.2767,1173.541
168,0.27825,1175.702
169,0.279917,1176.447
170,0.281567,1178.458
171,0.283233,1178.458
172,0.2849,1177.564
173,0.286567,1180.023
174,0.288233,1182.184
175,0.2899,1182.184
176,0.291567,1189.336
177,0.29325,1200.438
178,0.294967,1209.527
179,0.296567,1209.527
180,0.298233,1223.609
181,0.2999,1241.565
182,0.301567,1241.565
183,0.303233,1262.948
184,0.3049,1293.793
185,0.306567,1328.588
186,0.308233,1328.588
187,0.3099,1372.099
188,0.311567,1428.574
189,0.313233,1490.861
190,0.3149,1490.861
191,0.316567,1567.155
192,0.318233,1648.516
193,0.3199,1738.593
194,0.321567,1738.593
195,0.323233,1841.858
196,0.3249,1956.969
197,0.326567,1956.969
198,0.328233,2081.99
199,0.3299,2216.175
200,0.331567,2359.897
201,0.333233,2359.897
202,0.3349,2511.814
203,0.336567,2674.535
204,0.338233,2845.675
205,0.3399,2845.675
206,0.34155,3026.798
207,0.343217,3211.051
208,0.344883,3403.202
209,0.34655,3403.202
210,0.348217,3606.975
211,0.349883,3812.909
212,0.35155,3812.909
213,0.353217,4028.156
214,0.354883,4250.035
215,0.35655,4477.054
216,0.358217,4477.054
217,0.359867,4711.822
218,0.3616,4952.922
219,0.3632,5204.901
220,0.364867,5204.901
221,0.366533,5464.181
222,0.3682,5735.606
223,0.369867,6024.391
224,0.371533,6024.391
225,0.3732,6322.563
226,0.374867,6638.616
227,0.376533,6638.616
228,0.3782,6975.159
229,0.379867,7330.775
230,0.381533,7718.057
231,0.3832,7718.057
232,0.384867,8143.112
233,0.386533,8619.875
234,0.3882,9163.915999999999
235,0.389867,9163.915999999999
236,0.391533,9788.722
237,0.3932,10512.694
238,0.394983,11361.093
239,0.396533,11361.093
240,0.3982,12358.427
241,0.39985,13538.376
242,0.401517,14934.167
243,0.403183,14934.167
244,0.40485,16572.4
245,0.406517,18487.723
246,0.408183,18487.723
247,0.40985,20701.066
248,0.411517,23229.346
249,0.413183,26079.641
250,0.41485,26079.641
251,0.416517,29240.324
252,0.418183,32693.072
253,0.41985,36384.238
254,0.421517,36384.238
255,0.423183,40245.652
256,0.42485,44186.859
257,0.426517,48092.453
258,0.428183,48092.453
259,0.42985,51854.328
260,0.431517,55354.016
261,0.433183,55354.016
262,0.43485,58476.477
263,0.436517,61130.301
264,0.438183,63221.379
265,0.43985,63221.379
266,0.441517,64688.473
267,0.443183,65493.063
268,0.44485,65607.281
269,0.446517,65607.281
270,0.448183,65046.551
271,0.44985,63835.012
272,0.451517,62022.582
273,0.453183,62022.582
274,0.45485,59677.141
275,0.456517,56882.648
276,0.458183,53737.016
277,0.459833,53737.016
278,0.4615,50342.754
279,0.463167,46800.004
280,0.464833,46800.004
281,0.4665,43198.539
282,0.468167,39621.367
283,0.469833,36131.145
284,0.4715,36131.145
285,0.473167,32785.535
286,0.474833,29628.574
287,0.4765,26680.604
288,0.478167,26680.604
289,0.479883,23957.193
290,0.4815,21467.656
291,0.483167,19204.393
292,0.484833,19204.393
293,0.4865,17160.549
294,0.488167,15326.067
295,0.489833,15326.067
296,0.4915,13680.309
297,0.493167,12211.203
298,0.494833,10903.627
299,0.4965,10903.627
300,0.498167,9739.697
301,0.499833,8707.344999999999
302,0.5014999999999999,7793.158
303,0.5032,7793.158
304,0.504833,6982.237
305,0.5065,6270.185
306,0.508167,5642.921
307,0.509833,5642.921
308,0.5115,5088.747
309,0.5131829999999999,4607.066
310,0.514833,4180.595
311,0.5165,4180.595
312,0.518167,3813.431
313,0.519833,3490.821
314,0.521483,3490.821
315,0.52315,3207.103
316,0.524817,2961.382
317,0.526483,2744.496
318,0.52815,2744.496
319,0.529817,2559.274
320,0.531483,2394.17
321,0.53315,2255.812
322,0.534817,2255.812
323,0.536483,2132.356
324,0.53815,2022.237
325,0.539833,1932.01
326,0.541483,1932.01
327,0.54315,1847.073
328,0.544817,1773.76
329,0.5464830000000001,1773.76
330,0.54815,1712.59
331,0.549817,1655.296
332,0.5514829999999999,1609.325
333,0.55315,1609.325
334,0.554817,1565.516
335,0.5564829999999999,1525.953
336,0.558167,1492.5
337,0.559817,1492.5
338,0.561483,1461.878
339,0.56315,1437.813
340,0.564817,1414.865
341,0.566483,1414.865
342,0.56815,1395.717
343,0.569817,1377.91
344,0.571483,1363.009
345,0.57315,1363.009
346,0.574817,1350.716
347,0.576483,1337.975
348,0.578167,1337.975
349,0.5798,1325.309
350,0.581467,1314.282
351,0.583133,1304.671
352,0.5848,1304.671
353,0.586467,1299.232
354,0.588133,1293.942
355,0.5898,1286.343
356,0.591467,1286.343
357,0.593133,1281.872
358,0.5948,1273.975
359,0.596467,1266.226
360,0.598167,1266.226
361,0.5998,1262.054
362,0.601467,1255.05
363,0.603133,1255.05
364,0.6048,1251.549
365,0.606467,1248.568
366,0.608133,1247.972
367,0.6098,1247.972
368,0.611467,1247.227
369,0.613133,1242.831
370,0.614883,1239.33
371,0.616467,1239.33
372,0.618133,1233.742
373,0.6198,1231.804
374,0.621467,1230.24
375,0.623133,1230.24
376,0.6248,1231.804
377,0.626467,1234.785
378,0.6281330000000001,1234.785
379,0.6298,1233.444
380,0.631583,1231.208
381,0.6331329999999999,1228.452
382,0.6348,1228.452
383,0.636467,1224.354
384,0.638133,1221.001
385,0.639783,1222.119
386,0.64145,1222.119
387,0.643117,1218.766
388,0.644783,1217.201
389,0.64645,1218.244
390,0.64825,1218.244
391,0.649767,1215.413
392,0.651433,1213.029
393,0.6531,1209.751
394,0.6548,1209.751
395,0.656433,1208.186
396,0.6581,1209.006
397,0.659767,1209.006
398,0.661433,1212.806
399,0.6631,1213.104
400,0.664767,1212.284
401,0.6664330000000001,1212.284
402,0.6681,1211.613
403,0.669767,1209.602
404,0.6714329999999999,1209.378
405,0.6731,1209.378
406,0.674767,1206.994
407,0.676433,1204.312
408,0.6781,1202.375
409,0.679767,1202.375
410,0.681433,1203.194
411,0.6831,1202.822
412,0.684767,1202.822
413,0.686433,1203.492
414,0.6881,1201.257
415,0.689767,1198.277
416,0.691433,1198.277
417,0.6931,1199.096
418,0.694767,1197.383
419,0.696433,1200.214
420,0.698083,1200.214
421,0.699783,1200.661
422,0.701417,1201.853
423,0.703083,1202.747
424,0.70475,1202.747
425,0.706417,1201.108
426,0.708083,1201.853
427,0.70975,1200.736
428,0.711417,1200.736
429,0.713083,1200.438
430,0.71475,1200.363
431,0.71645,1200.363
432,0.718083,1201.853
433,0.71975,1198.724
434,0.721417,1197.085
435,0.723083,1197.085
436,0.72475,1197.457
437,0.726417,1194.328
438,0.728083,1196.265
439,0.72975,1196.265
440,0.731417,1194.999
441,0.733133,1193.359
442,0.73475,1193.956
443,0.736417,1193.956
444,0.738083,1189.634
445,0.73975,1191.348
446,0.741417,1191.348
447,0.743083,1191.795
448,0.74475,1190.826
449,0.746417,1194.104
450,0.7480830000000001,1194.104
451,0.749833,1194.775
452,0.751417,1192.167
453,0.7530829999999999,1192.54
454,0.75475,1192.54
455,0.756417,1189.932
456,0.758067,1187.921
457,0.759733,1191.273
458,0.7614,1191.273
459,0.7630670000000001,1193.136
460,0.764733,1193.583
461,0.766517,1192.614
462,0.7680670000000001,1192.614
463,0.769733,1188.219
464,0.7714,1185.015
465,0.7730669999999999,1185.015
466,0.774733,1187.623
467,0.7764,1189.932
468,0.778067,1191.795
469,0.779733,1191.795
470,0.7814,1190.305
471,0.783067,1186.505
472,0.784733,1185.015
473,0.7864,1185.015
474,0.7881,1188.07
475,0.78975,1188.144
476,0.7914,1187.474
477,0.793067,1187.474
478,0.794733,1184.568
479,0.7964,1180.097
480,0.798067,1180.097
481,0.799733,1179.799
482,0.8014,1182.929
483,0.803067,1185.238
484,0.804733,1185.238
485,0.8064,1185.015
486,0.808067,1186.579
487,0.809733,1184.717
488,0.8114,1184.717
489,0.813067,1186.952
490,0.814733,1188.591
491,0.8164,1187.623
492,0.818067,1187.623
493,0.819733,1187.846
494,0.821383,1183.897
495,0.8230499999999999,1183.897
496,0.824717,1183.152
497,0.826383,1183.003
498,0.82805,1183.525
499,0.829717,1183.525
500,0.831383,1184.717
501,0.83305,1185.909
502,0.8347329999999999,1185.313
503,0.836383,1185.313
504,0.83805,1181.364
505,0.839717,1179.65
506,0.841383,1175.329
507,0.84305,1175.329
508,0.8447170000000001,1174.212
509,0.846383,1177.043
510,0.84805,1179.352
511,0.8497169999999999,1179.352
512,0.851433,1182.184
513,0.85305,1182.631
514,0.8547169999999999,1182.631
515,0.856383,1180.917
516,0.85805,1181.513
517,0.859717,1183.227
518,0.861383,1183.227
519,0.8631,1182.705
520,0.864717,1182.482
521,0.866383,1181.96
522,0.868083,1181.96
523,0.869717,1180.992
524,0.871383,1183.748
525,0.87305,1182.78
526,0.874717,1182.78
527,0.876383,1183.376
528,0.87805,1181.811
529,0.8797,1181.811
530,0.881367,1179.576
531,0.883033,1181.29
532,0.884817,1179.576
533,0.886367,1179.576
534,0.888033,1180.321
535,0.8897,1180.619
536,0.891367,1182.556
537,0.893033,1182.556
538,0.8947000000000001,1184.27
539,0.896367,1184.791
540,0.898033,1186.877
541,0.8997000000000001,1186.877
542,0.901367,1186.058
543,0.903033,1182.407
544,0.9046999999999999,1181.588
545,0.906367,1181.588
546,0.908033,1179.501
547,0.9097,1178.384
548,0.911367,1178.384
549,0.913033,1178.384
550,0.9147,1176.298
551,0.916367,1175.925
552,0.918033,1175.925
553,0.9197,1175.404
554,0.921367,1178.011
555,0.923033,1182.631
556,0.9247,1182.631
557,0.9263670000000001,1182.407
558,0.928033,1183.301
559,0.9297,1180.768
560,0.9313669999999999,1180.768
561,0.933033,1176
562,0.934717,1176.223
563,0.9363669999999999,1176.223
564,0.938033,1175.18
565,0.939683,1171.976
566,0.941333,1173.168
567,0.9429999999999999,1173.168
568,0.944667,1173.094
569,0.946333,1172.2
570,0.948,1176.67
571,0.949667,1176.67
572,0.951333,1177.117
573,0.953,1174.882
574,0.954667,1176.745
575,0.956333,1176.745
576,0.958,1175.702
577,0.959667,1177.043
578,0.961333,1177.043
579,0.963,1180.097
580,0.9646670000000001,1179.203
581,0.966333,1177.564
582,0.968,1177.564
583,0.9697,1175.776
584,0.971333,1174.36
585,0.973,1174.957
586,0.974667,1174.957
587,0.976333,1174.286
588,0.978,1175.478
589,0.979667,1178.756
590,0.981333,1178.756
591,0.983,1176.372
592,0.984667,1179.352
593,0.986333,1178.533
594,0.988,1178.533
595,0.989667,1174.882
596,0.991333,1174.212
597,0.993,1174.212
598,0.994667,1172.647
599,0.996333,1172.572
600,0.998,1173.541
601,0.99965,1173.541
602,1.001317,1175.553
603,1.0031,1175.404
604,1.00465,1172.2
605,1.006317,1172.2
606,1.007983,1169.294
607,1.00965,1168.847
608,1.011333,1168.027
609,1.01305,1168.027
610,1.01465,1172.349
611,1.016317,1175.702
612,1.017983,1175.702
613,1.01965,1174.733
614,1.021317,1173.69
615,1.022983,1170.859
