"ID","sea_time","fid_signal"
1,0,1174.36
2,0.00165,1174.36
3,0.003317,1175.18
4,0.004983,1171.976
5,0.00665,1168.698
6,0.008317,1168.698
7,0.009983000000000001,1167.58
8,0.01165,1165.718
9,0.013317,1168.027
10,0.014983,1168.027
11,0.01665,1168.847
12,0.018317,1171.753
13,0.019983,1171.976
14,0.02165,1171.976
15,0.0234,1169.592
16,0.024983,1168.326
17,0.02665,1168.326
18,0.028317,1163.185
19,0.029983,1161.173
20,0.03165,1164.004
21,0.033317,1164.004
22,0.034983,1166.761
23,0.03665,1167.655
24,0.038317,1167.432
25,0.039983,1167.432
26,0.04165,1166.91
27,0.043317,1166.612
28,0.044983,1167.655
29,0.046633,1167.655
30,0.048333,1168.698
31,0.049967,1166.91
32,0.051633,1166.91
33,0.0533,1165.345
34,0.054967,1164.228
35,0.056633,1166.686
36,0.0583,1166.686
37,0.059967,1165.643
38,0.061633,1165.941
39,0.0633,1170.114
40,0.064967,1170.114
41,0.066633,1171.976
42,0.0683,1176.521
43,0.069967,1177.937
44,0.071633,1177.937
45,0.0733,1176.298
46,0.07496700000000001,1171.976
47,0.076617,1171.976
48,0.07828300000000001,1170.933
49,0.07994999999999999,1171.306
50,0.081617,1171.157
51,0.0833,1171.157
52,0.08495,1171.38
53,0.086617,1169.22
54,0.088283,1167.059
55,0.08995,1167.059
56,0.091617,1164.079
57,0.093283,1163.259
58,0.09495000000000001,1165.122
59,0.09661699999999999,1165.122
60,0.098283,1165.122
61,0.09995,1166.239
62,0.101617,1166.388
63,0.103283,1166.388
64,0.10495,1164.898
65,0.106617,1164.675
66,0.108267,1164.675
67,0.109933,1164.898
68,0.1116,1164.004
69,0.113267,1163.632
70,0.114933,1163.632
71,0.11665,1166.016
72,0.118267,1164.898
73,0.119933,1169.071
74,0.1216,1169.071
75,0.123267,1173.168
76,0.125067,1175.106
77,0.1266,1176.521
78,0.128267,1176.521
79,0.129933,1172.274
80,0.1316,1167.655
81,0.133267,1167.655
82,0.134933,1163.334
83,0.1366,1159.683
84,0.138267,1161.396
85,0.139933,1161.396
86,0.141717,1164.526
87,0.143267,1164.824
88,0.144933,1170.486
89,0.1466,1170.486
90,0.148267,1169.443
91,0.149933,1166.165
92,0.1516,1165.792
93,0.153267,1165.792
94,0.154933,1165.42
95,0.1566,1165.494
96,0.158267,1165.569
97,0.159933,1165.569
98,0.1616,1169.518
99,0.163267,1166.388
100,0.164933,1166.388
101,0.1666,1169.071
102,0.168267,1169.592
103,0.169917,1167.879
104,0.171583,1167.879
105,0.173283,1169.965
106,0.174917,1168.922
107,0.176583,1170.561
108,0.17825,1170.561
109,0.179917,1171.008
110,0.181583,1168.847
111,0.18325,1167.357
112,0.184917,1167.357
113,0.186617,1167.655
114,0.18825,1167.133
115,0.189917,1167.133
116,0.191583,1170.933
117,0.19325,1173.69
118,0.194917,1170.71
119,0.196583,1170.71
120,0.19825,1168.847
121,0.199917,1165.867
122,0.201583,1164.079
123,0.20325,1164.079
124,0.204917,1164.898
125,0.206583,1166.314
126,0.20825,1168.624
127,0.209917,1168.624
128,0.211583,1168.549
129,0.21325,1167.804
130,0.214917,1165.792
131,0.216583,1165.792
132,0.21825,1165.941
133,0.219917,1167.655
134,0.221583,1167.655
135,0.22325,1168.624
136,0.224917,1169.369
137,0.226583,1167.729
138,0.22825,1167.729
139,0.2299,1165.196
140,0.231567,1164.302
141,0.233233,1164.451
142,0.2349,1164.451
143,0.236567,1166.463
144,0.238233,1165.643
145,0.2399,1166.016
146,0.241567,1166.016
147,0.243233,1170.114
148,0.2449,1167.432
149,0.246567,1167.432
150,0.248233,1171.082
151,0.2499,1172.796
152,0.251567,1169.071
153,0.253233,1169.071
154,0.2549,1169.816
155,0.256567,1167.729
156,0.258233,1164.749
157,0.259967,1164.749
158,0.261567,1165.271
159,0.263233,1166.463
160,0.2649,1169.22
161,0.266567,1169.22
162,0.268233,1174.36
163,0.2699,1175.478
164,0.271567,1175.478
165,0.273233,1175.329
166,0.2749,1170.561
167,0.276567,1166.612
168,0.278233,1166.612
169,0.2799,1166.165
170,0.281567,1164.898
171,0.283233,1165.867
172,0.2849,1165.867
173,0.286567,1166.388
174,0.288217,1165.643
175,0.289883,1167.208
176,0.29155,1167.208
177,0.293217,1167.655
178,0.294883,1169.667
179,0.29655,1172.349
180,0.298217,1172.349
181,0.299883,1169.965
182,0.30155,1169.816
183,0.303217,1169.816
184,0.304883,1169.592
185,0.30655,1166.91
186,0.308217,1167.133
187,0.309883,1167.133
188,0.31155,1166.835
189,0.313217,1164.079
190,0.314883,1165.122
191,0.31655,1165.122
192,0.318217,1167.655
193,0.319883,1168.698
194,0.32155,1172.125
195,0.323217,1172.125
196,0.324883,1170.412
197,0.32655,1169.145
198,0.328217,1169.145
199,0.3299,1171.082
200,0.331567,1169.592
201,0.333217,1172.423
202,0.334883,1172.423
203,0.33655,1172.349
204,0.338217,1170.635
205,0.339883,1169.518
206,0.34155,1169.518
207,0.343217,1167.059
208,0.344883,1165.718
209,0.34655,1165.345
210,0.3482,1165.345
211,0.349867,1165.718
212,0.351533,1167.282
213,0.3532,1166.463
214,0.354867,1166.463
215,0.356533,1166.835
216,0.3582,1166.761
217,0.359867,1166.761
218,0.361583,1167.432
219,0.3632,1170.263
220,0.364867,1169.071
221,0.366533,1169.071
222,0.368183,1173.019
223,0.36985,1173.094
224,0.371517,1172.498
225,0.373183,1172.498
226,0.37485,1173.541
227,0.376517,1169.965
228,0.378267,1170.71
229,0.37985,1170.71
230,0.381517,1173.466
231,0.383183,1176.521
232,0.38485,1176.521
233,0.386517,1180.917
234,0.388183,1182.035
235,0.38985,1183.972
236,0.391517,1183.972
237,0.393183,1190.007
238,0.394917,1193.136
239,0.396533,1199.394
240,0.398183,1199.394
241,0.39985,1208.41
242,0.401517,1214.147
243,0.403183,1225.099
244,0.40485,1225.099
245,0.406517,1235.008
246,0.408167,1245.886
247,0.409867,1258.329
248,0.4115,1258.329
249,0.413167,1270.473
250,0.414833,1286.343
251,0.4165,1286.343
252,0.418167,1302.883
253,0.419833,1323.372
254,0.4215,1346.171
255,0.423167,1346.171
256,0.424833,1367.629
257,0.4265,1389.161
258,0.428167,1412.183
259,0.429833,1412.183
260,0.4315,1437.366
261,0.433167,1467.764
262,0.434833,1497.567
263,0.4365,1497.567
264,0.438167,1527.742
265,0.439833,1557.395
266,0.4415,1557.395
267,0.443167,1585.484
268,0.444833,1618.192
269,0.4465,1652.39
270,0.448167,1652.39
271,0.449833,1693.144
272,0.4515,1738.071
273,0.453167,1786.053
274,0.454833,1786.053
275,0.4565,1835.972
276,0.458167,1884.028
277,0.459833,1939.833
278,0.4615,1939.833
279,0.463217,2006.963
280,0.464833,2087.802
281,0.4665,2087.802
282,0.46815,2186.075
283,0.469817,2299.324
284,0.471483,2434.626
285,0.47315,2434.626
286,0.474817,2595.857
287,0.476483,2790.541
288,0.47815,3026.947
289,0.479883,3026.947
290,0.481483,3302.842
291,0.48315,3627.688
292,0.484817,4003.048
293,0.486483,4003.048
294,0.48815,4433.766
295,0.489817,4919.246
296,0.491483,5457.252
297,0.49315,5457.252
298,0.494817,6055.311
299,0.496533,6706.789
300,0.49815,6706.789
301,0.499817,7416.755
302,0.501483,8181.557
303,0.50315,8992.553
304,0.504817,8992.553
305,0.506483,9849.071
306,0.50815,10740.087
307,0.509817,11668.95
308,0.511483,11668.95
309,0.513267,12632.087
310,0.514817,13620.48
311,0.516483,14636.74
312,0.51815,14636.74
313,0.519817,15674.383
314,0.521483,16726.852
315,0.52315,16726.852
316,0.524817,17794.52
317,0.526483,18867.85
318,0.528133,19941.629
319,0.5298,19941.629
320,0.531467,21014.734
321,0.533133,22081.957
322,0.5348000000000001,23137.777
323,0.536467,23137.777
324,0.538133,24180.637
325,0.5397999999999999,25199.652
326,0.541467,26188.492
327,0.543133,26188.492
328,0.5448,27145.146
329,0.546467,28057.248
330,0.548133,28910.115
331,0.549833,28910.115
332,0.55155,29692.055
333,0.553133,30387.566
334,0.5548,30387.566
335,0.556467,30970.127
336,0.558133,31419.918
337,0.5598,31700.656
338,0.561467,31700.656
339,0.563133,31776.205
340,0.5648,31605.438
341,0.5664670000000001,31143.873
342,0.568133,31143.873
343,0.5698,30359.625
344,0.5714669999999999,29223.486
345,0.573133,27746.408
346,0.5748,27746.408
347,0.576467,25969.67
348,0.578133,23967.102
349,0.5798,23967.102
350,0.581467,21839.217
351,0.583133,19685.328
352,0.5848,17601.625
353,0.586467,17601.625
354,0.588117,15650.541
355,0.5897829999999999,13875.961
356,0.59145,12299.046
357,0.593117,12299.046
358,0.594783,10913.238
359,0.59645,9708.255999999999
360,0.598117,8669.794
361,0.599783,8669.794
362,0.60145,7776.767
363,0.603117,7011.592
364,0.604783,6355.271
365,0.60645,6355.271
366,0.608117,5792.156
367,0.609783,5302.504
368,0.61145,5302.504
369,0.613117,4875.734
370,0.61485,4505.515
371,0.6164500000000001,4177.392
372,0.618117,4177.392
373,0.619783,3888.905
374,0.6214499999999999,3636.777
375,0.623117,3411.993
376,0.6248,3411.993
377,0.62645,3212.839
378,0.6281330000000001,3038.421
379,0.629783,2881.885
380,0.6315499999999999,2881.885
381,0.633117,2744.049
382,0.634783,2618.73
383,0.63645,2618.73
384,0.638117,2504.96
385,0.639783,2402.291
386,0.64145,2307.743
387,0.643117,2307.743
388,0.644783,2225.563
389,0.64645,2152.771
390,0.6481,2084.151
391,0.649767,2084.151
392,0.651433,2021.268
393,0.6531,1962.259
394,0.654767,1907.125
395,0.656433,1907.125
396,0.6581,1860.708
397,0.6597499999999999,1816.973
398,0.661417,1816.973
399,0.663083,1778.081
400,0.66475,1742.244
401,0.666417,1706.556
402,0.668083,1706.556
403,0.66975,1672.879
404,0.671417,1642.406
405,0.673083,1616.478
406,0.67475,1616.478
407,0.676417,1592.86
408,0.678083,1575.574
409,0.67975,1557.246
410,0.6814170000000001,1557.246
411,0.683083,1536.682
412,0.68475,1517.46
413,0.6864170000000001,1498.833
414,0.688083,1498.833
415,0.68975,1483.262
416,0.6914169999999999,1469.925
417,0.6931,1469.925
418,0.69475,1457.706
419,0.696433,1445.04
420,0.698083,1432.449
421,0.69975,1432.449
422,0.701417,1421.124
423,0.703083,1412.183
424,0.70475,1403.615
425,0.706417,1403.615
426,0.708067,1396.537
427,0.7097329999999999,1389.757
428,0.7114,1381.189
429,0.713067,1381.189
430,0.714733,1375.154
431,0.716483,1365.84
432,0.718067,1365.84
433,0.719733,1359.284
434,0.7214,1354.888
435,0.723067,1347.214
436,0.724733,1347.214
437,0.7264,1342.52
438,0.728067,1337.454
439,0.729733,1330.897
440,0.7314000000000001,1330.897
441,0.733067,1329.333
442,0.734733,1329.109
443,0.7364000000000001,1325.607
444,0.738067,1325.607
445,0.739733,1322.776
446,0.7413999999999999,1318.604
447,0.743067,1311.451
448,0.744733,1311.451
449,0.7464,1307.726
450,0.748067,1303.479
451,0.7498,1303.479
452,0.7514,1298.115
453,0.753067,1293.048
454,0.754733,1288.354
455,0.7564,1288.354
456,0.758067,1284.704
457,0.759733,1281.723
458,0.7614,1281.574
459,0.7630670000000001,1281.574
460,0.764733,1282.319
461,0.7664,1281.723
462,0.7680670000000001,1279.637
463,0.769717,1279.637
464,0.7714,1277.7
465,0.7731170000000001,1271.367
466,0.774717,1271.367
467,0.776383,1266.45
468,0.77805,1263.618
469,0.779717,1260.34
470,0.781383,1260.34
471,0.78305,1259.893
472,0.784717,1259.297
473,0.7863830000000001,1258.105
474,0.78805,1258.105
475,0.789717,1258.403
476,0.7913829999999999,1256.987
477,0.79305,1253.411
478,0.794717,1253.411
479,0.796383,1252.592
480,0.79805,1247.451
481,0.799733,1244.023
482,0.801383,1244.023
483,0.80305,1241.863
484,0.804717,1237.243
485,0.806383,1237.243
486,0.80805,1238.286
487,0.809717,1239.031
488,0.811383,1239.777
489,0.8130500000000001,1239.777
490,0.814717,1237.765
491,0.816383,1236.275
492,0.8180500000000001,1234.934
493,0.819717,1234.934
494,0.821383,1231.953
495,0.8230499999999999,1233.965
496,0.824717,1233.071
497,0.826367,1233.071
498,0.828033,1230.24
499,0.8297,1230.165
500,0.831367,1230.165
501,0.833033,1228.973
502,0.834717,1228.452
503,0.836367,1228.973
504,0.838033,1228.973
505,0.8397,1226.44
506,0.841367,1220.927
507,0.843033,1216.903
508,0.8447170000000001,1216.903
509,0.846367,1214.072
510,0.848033,1215.711
511,0.8497,1219.362
512,0.851367,1219.362
513,0.853033,1220.331
514,0.8547,1220.852
515,0.856367,1220.852
516,0.858033,1219.809
517,0.8597,1218.692
518,0.861367,1218.244
519,0.8630330000000001,1218.244
520,0.8647,1218.99
521,0.866367,1218.393
522,0.868133,1217.723
523,0.8697,1217.723
524,0.871367,1217.127
525,0.8730329999999999,1215.637
526,0.8747,1215.339
527,0.876367,1215.339
528,0.878033,1215.637
529,0.8797,1212.433
530,0.881367,1209.378
531,0.883033,1209.378
532,0.8847,1207.814
533,0.88635,1207.218
534,0.8880169999999999,1207.218
535,0.889683,1206.622
536,0.89135,1206.696
537,0.8930169999999999,1208.186
538,0.894683,1208.186
539,0.89635,1202.896
540,0.898017,1203.567
541,0.899683,1202.673
542,0.90135,1202.673
543,0.903017,1201.704
544,0.904683,1207.963
545,0.90635,1210.719
546,0.908017,1210.719
547,0.909683,1213.774
548,0.91135,1213.476
549,0.913017,1213.476
550,0.914683,1212.06
551,0.91635,1210.123
552,0.918017,1206.473
553,0.919683,1206.473
554,0.92135,1202.375
555,0.923017,1199.618
556,0.924683,1197.383
557,0.92635,1197.383
558,0.928033,1198.426
559,0.929683,1200.885
560,0.93135,1200.587
561,0.933017,1200.587
562,0.934683,1199.618
563,0.93635,1197.159
564,0.938017,1196.638
565,0.939683,1196.638
566,0.94135,1195.744
567,0.943017,1196.116
568,0.9446830000000001,1196.116
569,0.946333,1195.818
570,0.948,1194.701
571,0.949667,1195.893
572,0.951317,1195.893
573,0.953017,1197.01
574,0.95465,1199.245
575,0.956317,1202.077
576,0.957983,1202.077
577,0.95965,1200.512
578,0.961317,1199.022
579,0.962983,1196.191
580,0.96465,1196.191
581,0.966317,1193.434
582,0.967983,1194.924
583,0.96965,1194.924
584,0.971317,1193.062
585,0.972983,1194.03
586,0.974667,1193.285
587,0.976317,1193.285
588,0.977983,1189.634
589,0.97965,1188.666
590,0.981317,1190.752
591,0.9829830000000001,1190.752
592,0.98465,1192.465
593,0.986417,1193.136
594,0.9879829999999999,1196.712
595,0.98965,1196.712
596,0.991317,1195.297
597,0.9929829999999999,1194.179
598,0.99465,1195.52
599,0.996317,1195.52
600,0.997983,1193.807
601,0.99965,1195.222
602,1.001317,1195.222
603,1.002983,1195.073
604,1.00465,1195.52
605,1.006317,1198.202
606,1.007967,1198.202
607,1.009633,1197.457
608,1.0113,1197.532
609,1.012967,1197.234
610,1.014633,1197.234
611,1.0163,1197.085
612,1.017967,1194.03
613,1.019633,1193.062
614,1.0213,1193.062
615,1.022967,1193.732
616,1.024633,1190.752
617,1.0263,1190.752
618,1.027967,1189.932
619,1.029633,1188.591
620,1.0313,1185.462
621,1.032967,1185.462
622,1.034633,1185.685
623,1.0363,1188.74
624,1.037967,1190.901
625,1.039633,1190.901
626,1.0413,1191.646
627,1.042967,1193.657
628,1.044633,1191.199
629,1.0463,1191.199
630,1.047967,1189.336
631,1.049633,1188.144
632,1.0513,1188.144
633,1.052967,1183.376
634,1.054633,1182.705
635,1.0563,1182.482
636,1.057967,1182.482
637,1.059633,1185.313
638,1.0613,1186.058
639,1.062967,1186.654
640,1.064633,1186.654
641,1.0663,1187.176
642,1.06795,1186.579
643,1.069617,1189.262
644,1.071317,1189.262
645,1.07295,1189.858
646,1.074617,1187.548
647,1.076283,1189.411
648,1.07795,1189.411
649,1.079617,1189.262
650,1.081283,1186.654
651,1.08295,1186.654
652,1.084617,1186.803
653,1.086283,1184.493
654,1.088017,1184.94
655,1.089617,1184.94
656,1.091283,1188.889
657,1.09295,1191.05
658,1.094617,1188.815
659,1.096283,1188.815
660,1.09795,1188.74
661,1.099617,1187.474
662,1.101283,1188.442
663,1.10295,1188.442
664,1.10475,1191.646
665,1.106283,1191.869
666,1.10795,1191.869
667,1.109617,1189.858
668,1.111283,1186.281
669,1.11295,1185.834
670,1.114617,1185.834
671,1.116283,1183.972
672,1.11795,1184.344
673,1.119617,1186.132
674,1.121283,1186.132
675,1.12295,1184.121
676,1.124617,1182.78
677,1.126283,1186.952
678,1.127933,1186.952
679,1.129633,1186.803
680,1.131267,1186.654
681,1.132933,1189.336
682,1.1346,1189.336
683,1.136267,1185.983
684,1.137933,1187.026
685,1.1396,1187.026
686,1.141267,1187.101
687,1.142933,1185.834
688,1.1446,1183.525
689,1.146267,1183.525
690,1.147933,1181.513
691,1.1496,1182.035
692,1.151267,1180.545
693,1.152933,1180.545
694,1.1546,1180.992
695,1.156267,1181.364
696,1.157933,1182.929
697,1.1596,1182.929
698,1.161267,1181.364
699,1.162933,1179.65
700,1.1646,1179.65
701,1.166267,1178.756
702,1.167933,1177.862
703,1.1696,1179.352
704,1.171267,1179.352
705,1.172933,1182.035
706,1.1746,1183.748
707,1.176267,1180.917
708,1.177933,1180.917
709,1.179617,1179.501
710,1.181267,1178.384
711,1.182933,1178.458
712,1.1846,1178.458
713,1.186267,1178.533
714,1.187917,1180.992
715,1.189617,1181.737
716,1.19125,1181.737
717,1.192917,1181.364
718,1.194583,1182.109
719,1.1963,1182.109
720,1.197917,1180.172
721,1.199583,1180.023
722,1.20125,1178.682
723,1.202933,1178.682
724,1.204583,1179.278
725,1.20625,1183.078
726,1.207917,1185.909
727,1.209583,1185.909
728,1.21125,1186.877
729,1.212917,1188.666
730,1.214583,1187.026
731,1.21625,1187.026
732,1.217917,1183.227
733,1.219583,1180.693
734,1.22125,1180.693
735,1.222983,1175.106
736,1.224583,1173.615
737,1.22625,1173.243
738,1.227917,1173.243
739,1.229583,1175.404
740,1.23125,1177.937
741,1.232917,1180.321
742,1.234583,1180.321
743,1.23625,1182.258
744,1.237917,1182.631
745,1.2397,1183.227
746,1.24125,1183.227
747,1.2429,1181.513
748,1.244567,1179.948
749,1.246233,1179.948
750,1.247883,1181.513
751,1.24955,1183.301
752,1.251217,1183.301
753,1.252883,1183.301
754,1.25455,1183.376
755,1.256217,1180.992
756,1.257883,1178.831
757,1.25955,1178.831
758,1.261217,1176.074
759,1.262883,1177.341
760,1.26455,1180.097
761,1.266217,1180.097
762,1.267883,1181.066
763,1.26955,1182.258
764,1.271217,1182.482
765,1.272883,1182.482
766,1.27455,1179.65
767,1.276217,1179.725
768,1.277883,1179.725
769,1.27955,1179.352
770,1.281217,1178.756
771,1.282883,1179.054
772,1.28455,1179.054
773,1.286217,1177.862
774,1.287883,1177.713
775,1.28955,1176.67
776,1.291217,1176.67
777,1.292883,1176.745
778,1.29455,1176.223
779,1.296217,1180.023
780,1.297883,1180.023
781,1.29955,1183.525
782,1.301217,1183.301
783,1.302883,1183.301
784,1.30455,1185.611
785,1.3062,1183.748
786,1.307867,1180.246
787,1.309533,1180.246
788,1.3112,1179.576
789,1.312867,1178.086
790,1.314533,1178.235
791,1.3162,1178.235
792,1.317867,1178.309
793,1.319533,1180.246
794,1.3212,1180.396
795,1.322867,1180.396
796,1.3246,1180.246
797,1.3262,1180.768
798,1.327867,1178.011
799,1.329533,1178.011
800,1.3312,1178.533
801,1.332867,1178.16
802,1.334533,1178.16
803,1.3362,1178.011
804,1.337867,1179.576
805,1.339567,1179.501
806,1.341317,1179.501
807,1.342867,1176.67
808,1.344533,1173.243
809,1.3462,1171.455
810,1.347867,1171.455
811,1.349533,1166.835
812,1.3512,1165.718
813,1.352867,1167.58
814,1.354533,1167.58
815,1.3562,1170.039
816,1.357967,1172.647
817,1.359533,1172.647
818,1.3612,1175.851
819,1.362867,1175.553
820,1.364533,1171.678
821,1.366183,1171.678
822,1.36785,1170.188
823,1.369517,1168.251
824,1.371183,1167.953
825,1.37285,1167.953
826,1.374517,1171.529
827,1.376183,1176
828,1.377867,1176.447
829,1.379517,1176.447
830,1.381183,1178.086
831,1.38285,1177.043
832,1.384517,1174.36
833,1.386183,1174.36
834,1.38785,1172.498
835,1.389517,1171.976
836,1.391183,1171.976
837,1.39285,1172.349
838,1.394517,1171.678
839,1.396183,1175.925
840,1.39785,1175.925
841,1.399517,1179.948
842,1.401183,1181.29
843,1.40285,1184.642
844,1.404517,1184.642
845,1.4062,1180.843
846,1.40785,1174.807
847,1.409517,1170.635
848,1.411183,1170.635
849,1.41285,1169.071
850,1.414517,1171.976
851,1.4162,1171.976
852,1.41785,1172.796
853,1.419517,1174.733
854,1.421183,1174.137
855,1.42285,1174.137
856,1.424517,1174.957
857,1.426167,1175.776
858,1.42785,1177.862
859,1.4295,1177.862
860,1.431167,1177.415
861,1.432833,1178.384
862,1.4345,1179.799
863,1.436167,1179.799
864,1.437833,1178.235
865,1.4395,1175.553
866,1.441167,1175.553
867,1.442833,1170.263
868,1.4445,1168.847
869,1.446167,1164.898
870,1.447833,1164.898
871,1.4495,1166.016
872,1.451167,1169.145
873,1.452833,1170.188
874,1.4545,1170.188
875,1.456167,1174.286
876,1.457833,1174.882
877,1.459517,1173.541
878,1.461167,1173.541
879,1.462833,1172.796
880,1.4645,1172.498
881,1.466167,1172.945
882,1.467833,1172.945
883,1.4695,1174.957
884,1.471167,1176.447
885,1.472833,1176.447
886,1.4745,1177.266
887,1.476267,1177.937
888,1.477833,1177.713
889,1.4795,1177.713
890,1.481167,1176.894
891,1.482833,1175.329
892,1.4845,1173.317
893,1.48615,1173.317
894,1.487817,1171.082
895,1.489483,1167.879
896,1.49115,1168.549
897,1.492817,1168.549
898,1.494483,1170.188
899,1.49615,1170.337
900,1.497817,1170.337
901,1.499483,1173.615
902,1.50115,1172.721
903,1.502817,1174.137
904,1.504483,1174.137
905,1.50615,1176.521
906,1.507833,1173.168
907,1.509483,1171.902
908,1.51115,1171.902
909,1.512817,1171.008
910,1.514483,1172.125
911,1.51615,1173.317
912,1.517817,1173.317
913,1.519483,1174.435
914,1.52115,1176.074
