"ID","sea_time","fid_signal"
1,0,1167.282
2,0.001667,1167.729
3,0.003333,1165.345
4,0.005,1165.345
5,0.006667,1164.451
6,0.008333,1163.93
7,0.01,1166.165
8,0.01165,1166.165
9,0.013317,1167.059
10,0.014983,1166.612
11,0.01665,1166.612
12,0.018317,1168.922
13,0.020017,1169.518
14,0.02165,1171.231
15,0.023317,1171.231
16,0.024983,1172.796
17,0.02665,1169.741
18,0.028317,1165.196
19,0.029983,1165.196
20,0.03165,1162.812
21,0.033317,1160.726
22,0.034983,1161.546
23,0.0367,1161.546
24,0.03835,1164.526
25,0.039983,1162.887
26,0.04165,1162.887
27,0.043317,1167.059
28,0.044983,1168.102
29,0.04665,1168.4
30,0.048317,1168.4
31,0.049983,1171.455
32,0.05165,1168.773
33,0.053383,1169.816
34,0.054983,1169.816
35,0.05665,1167.655
36,0.058317,1167.729
37,0.059983,1165.941
38,0.06165,1165.941
39,0.063317,1163.334
40,0.064983,1165.867
41,0.06665,1165.047
42,0.068317,1165.047
43,0.069983,1166.388
44,0.07165000000000001,1167.879
45,0.0733,1167.879
46,0.07496700000000001,1165.122
47,0.07663300000000001,1162.365
48,0.07829999999999999,1161.024
49,0.079967,1161.024
50,0.081633,1159.906
51,0.0833,1160.502
52,0.084967,1164.302
53,0.086633,1164.302
54,0.0883,1168.102
55,0.08996700000000001,1167.655
56,0.09163300000000001,1166.835
57,0.09329999999999999,1166.835
58,0.094967,1169.071
59,0.096633,1166.463
60,0.0983,1166.463
61,0.099967,1166.835
62,0.101633,1168.475
63,0.1033,1164.526
64,0.104967,1164.526
65,0.106633,1164.526
66,0.1083,1164.377
67,0.109967,1164.6
68,0.111633,1164.6
69,0.1133,1164.824
70,0.114967,1166.016
71,0.116633,1167.133
72,0.1183,1167.133
73,0.119967,1169.294
74,0.121633,1169.816
75,0.1233,1169.071
76,0.124967,1169.071
77,0.126633,1167.133
78,0.1283,1162.961
79,0.129967,1162.961
80,0.131617,1161.993
81,0.133267,1163.483
82,0.134933,1164.749
83,0.1366,1164.749
84,0.138283,1168.847
85,0.139933,1170.71
86,0.1416,1168.996
87,0.143267,1168.996
88,0.144933,1171.455
89,0.1466,1170.635
90,0.148267,1169.294
91,0.149933,1169.294
92,0.1516,1169.22
93,0.153267,1166.984
94,0.154933,1166.984
95,0.1566,1164.973
96,0.158267,1164.6
97,0.159933,1166.537
98,0.1616,1166.537
99,0.163267,1165.941
100,0.164933,1164.377
101,0.1666,1167.804
102,0.168267,1167.804
103,0.169933,1166.239
104,0.1717,1166.761
105,0.173267,1168.624
106,0.174933,1168.624
107,0.1766,1166.016
108,0.178267,1163.557
109,0.179933,1163.557
110,0.1816,1162.44
111,0.183267,1161.695
112,0.184933,1161.322
113,0.1866,1161.322
114,0.188267,1166.463
115,0.189933,1166.239
116,0.191583,1168.251
117,0.19325,1168.251
118,0.194917,1170.486
119,0.196583,1169.294
120,0.19825,1173.839
121,0.199917,1173.839
122,0.201583,1172.274
123,0.20325,1169.518
124,0.204917,1168.624
125,0.206583,1168.624
126,0.20825,1164.377
127,0.209917,1165.718
128,0.211583,1165.718
129,0.21325,1164.6
130,0.214917,1164.004
131,0.216583,1163.855
132,0.21825,1163.855
133,0.219917,1162.812
134,0.221583,1163.93
135,0.22325,1163.11
136,0.224917,1163.11
137,0.226583,1164.004
138,0.22825,1166.09
139,0.229917,1166.09
140,0.231583,1166.09
141,0.23325,1166.388
142,0.234917,1168.922
143,0.236583,1168.922
144,0.23825,1166.835
145,0.239917,1166.314
146,0.241583,1166.239
147,0.24325,1166.239
148,0.244917,1164.302
149,0.246583,1162.887
150,0.24825,1166.239
151,0.249917,1166.239
152,0.251583,1169.22
153,0.253283,1169.294
154,0.254933,1173.765
155,0.256633,1173.765
156,0.258233,1171.678
157,0.2599,1168.624
158,0.261567,1167.879
159,0.263233,1167.879
160,0.2649,1167.506
161,0.266567,1167.432
162,0.268233,1167.432
163,0.2699,1168.475
164,0.271567,1168.177
165,0.273233,1164.377
166,0.2749,1164.377
167,0.276567,1164.377
168,0.278233,1164.526
169,0.2799,1164.6
170,0.281567,1164.6
171,0.283233,1165.271
172,0.2849,1162.216
173,0.286567,1161.322
174,0.288233,1161.322
175,0.29,1160.428
176,0.291567,1159.534
177,0.293233,1159.534
178,0.2949,1163.036
179,0.296567,1163.259
180,0.298233,1166.165
181,0.2999,1166.165
182,0.301567,1166.761
183,0.303233,1166.09
184,0.3049,1166.09
185,0.306567,1166.09
186,0.308233,1168.177
187,0.3099,1171.678
188,0.31155,1174.36
189,0.313217,1174.36
190,0.314883,1178.458
191,0.31655,1180.246
192,0.318233,1182.854
193,0.319883,1182.854
194,0.32155,1189.336
195,0.323217,1196.265
196,0.324883,1196.265
197,0.32655,1205.131
198,0.328233,1221.97
199,0.32995,1239.33
200,0.33155,1239.33
201,0.333217,1261.532
202,0.334883,1285.97
203,0.33655,1307.502
204,0.338217,1307.502
205,0.339883,1336.485
206,0.34155,1368.001
207,0.343217,1405.701
208,0.344883,1405.701
209,0.34655,1452.193
210,0.348217,1498.908
211,0.349883,1498.908
212,0.35155,1548.901
213,0.353217,1603.663
214,0.354883,1661.405
215,0.35655,1661.405
216,0.358217,1725.182
217,0.359883,1794.77
218,0.36155,1870.245
219,0.363217,1870.245
220,0.364883,1944.825
221,0.36655,2026.558
222,0.368217,2108.887
223,0.369883,2108.887
224,0.37155,2190.843
225,0.3732,2282.932
226,0.37495,2371.296
227,0.376533,2371.296
228,0.3782,2464.652
229,0.379867,2561.957
230,0.381533,2561.957
231,0.3832,2656.802
232,0.384867,2759.621
233,0.386533,2863.705
234,0.3882,2863.705
235,0.389867,2973.229
236,0.39155,3087.073
237,0.3932,3201.365
238,0.394867,3201.365
239,0.396533,3326.535
240,0.39825,3454.685
241,0.399867,3597.662
242,0.401533,3597.662
243,0.4032,3755.912
244,0.404867,3928.468
245,0.406533,3928.468
246,0.4083,4130.676
247,0.409867,4366.115
248,0.411533,4648.045
249,0.4132,4648.045
250,0.414867,4995.242
251,0.416533,5415.455
252,0.4182,5928.427
253,0.419867,5928.427
254,0.421533,6555.542
255,0.4232,7312.819
256,0.42485,8222.609
257,0.426517,8222.609
258,0.428183,9299.145
259,0.42985,10558.665
260,0.4315,10558.665
261,0.433167,12012.124
262,0.434833,13665.11
263,0.4365,15523.21
264,0.438167,15523.21
265,0.439833,17579.496
266,0.4415,19824.729
267,0.443167,22246.242
268,0.444833,22246.242
269,0.4465,24810.73
270,0.448167,27488.619
271,0.449833,30231.924
272,0.4515,30231.924
273,0.453167,32982.379
274,0.454833,35682.691
275,0.4565,38259.996
276,0.458167,38259.996
277,0.459833,40648.504
278,0.4615,42778.848
279,0.463167,42778.848
280,0.46485,44583.082
281,0.4665,46003.609
282,0.468167,46983.809
283,0.469833,46983.809
284,0.4715,47487.691
285,0.473183,47496.559
286,0.474833,47002.957
287,0.4765,47002.957
288,0.478167,46025.066
289,0.479833,44600.965
290,0.4815,42784.66
291,0.483167,42784.66
292,0.484833,40643.961
293,0.4865,38258.434
294,0.488167,38258.434
295,0.489833,35706.535
296,0.4915,33069.105
297,0.493233,30421.465
298,0.494817,30421.465
299,0.496483,27823.746
300,0.49815,25328.695
301,0.499817,22967.16
302,0.501483,22967.16
303,0.50315,20762.98
304,0.504817,18729.568
305,0.506483,16871.617
306,0.50815,16871.617
307,0.509817,15183.688
308,0.511483,13658.926
309,0.51315,12286.306
310,0.514817,12286.306
311,0.516483,11056.14
312,0.51815,9957.924999999999
313,0.519817,9957.924999999999
314,0.521483,8976.459999999999
315,0.52315,8106.604
316,0.524817,7329.807
317,0.526583,7329.807
318,0.52815,6637.275
319,0.529817,6025.583
320,0.531483,5480.796
321,0.53315,5480.796
322,0.534817,5000.681
323,0.536483,4576.445
324,0.53815,4200.339
325,0.539817,4200.339
326,0.5415,3871.173
327,0.54315,3577.471
328,0.544817,3577.471
329,0.5464830000000001,3320.202
330,0.54815,3095.418
331,0.549817,2895.817
332,0.551467,2895.817
333,0.553133,2718.344
334,0.5548,2562.18
335,0.556467,2422.109
336,0.558133,2422.109
337,0.5598,2295.151
338,0.561467,2187.639
339,0.563133,2091.825
340,0.5648,2091.825
341,0.5664670000000001,2009.496
342,0.568133,1937.375
343,0.5698,1937.375
344,0.5714669999999999,1868.382
345,0.573133,1805.872
346,0.5748,1748.651
347,0.576467,1748.651
348,0.578133,1698.211
349,0.5798,1653.805
350,0.581467,1616.18
351,0.583133,1616.18
352,0.5848,1581.162
353,0.586467,1547.933
354,0.588133,1519.695
355,0.5898,1519.695
356,0.591467,1492.202
357,0.593133,1470.447
358,0.5948,1452.193
359,0.596467,1452.193
360,0.598133,1433.715
361,0.5998,1417.92
362,0.601467,1417.92
363,0.603133,1399.666
364,0.6048,1384.69
365,0.606467,1374.036
366,0.608133,1374.036
367,0.6098,1364.201
368,0.611483,1353.845
369,0.613117,1341.477
370,0.614783,1341.477
371,0.6164500000000001,1329.631
372,0.618117,1319.721
373,0.619783,1311.526
374,0.6214499999999999,1311.526
375,0.623117,1308.471
376,0.624783,1303.777
377,0.62645,1303.777
378,0.628117,1301.244
379,0.629783,1298.785
380,0.63145,1293.048
381,0.633117,1293.048
382,0.634783,1288.28
383,0.63645,1282.543
384,0.638117,1277.7
385,0.639783,1277.7
386,0.64145,1273.304
387,0.643117,1268.908
388,0.6449,1265.034
389,0.64645,1265.034
390,0.648133,1262.054
391,0.649783,1260.34
392,0.65145,1258.925
393,0.6531169999999999,1258.925
394,0.654783,1257.136
395,0.65645,1252.741
396,0.658117,1252.741
397,0.659783,1248.866
398,0.66155,1245.812
399,0.663117,1242.608
400,0.664783,1242.608
401,0.66645,1243.129
402,0.668117,1241.714
403,0.669783,1240.969
404,0.67145,1240.969
405,0.6731,1240.596
406,0.674767,1238.659
407,0.676433,1237.989
408,0.6781,1237.989
409,0.679767,1235.381
410,0.681433,1234.04
411,0.6831,1234.04
412,0.684783,1235.306
413,0.686433,1233.742
414,0.6881,1233.965
415,0.689767,1233.965
416,0.691433,1230.314
417,0.6931,1228.228
418,0.694767,1230.016
419,0.696433,1230.016
420,0.6981000000000001,1228.228
421,0.699767,1230.91
422,0.701433,1227.558
423,0.7030999999999999,1227.558
424,0.704767,1220.107
425,0.706433,1217.276
426,0.7081,1212.88
427,0.709767,1212.88
428,0.711433,1212.806
429,0.7131,1216.009
430,0.714767,1216.009
431,0.716417,1218.095
432,0.718083,1221.97
433,0.71975,1220.927
434,0.721433,1220.927
435,0.723083,1219.287
436,0.72475,1216.754
437,0.726417,1210.868
438,0.728117,1210.868
439,0.72975,1207.814
440,0.7314000000000001,1208.41
441,0.733067,1208.186
442,0.734733,1208.186
443,0.7364000000000001,1207.739
444,0.738067,1210.496
445,0.739733,1210.496
446,0.7413999999999999,1208.186
447,0.743067,1206.696
448,0.744733,1206.771
449,0.7464499999999999,1206.771
450,0.748067,1205.653
451,0.749733,1204.386
452,0.7514,1203.641
453,0.753067,1203.641
454,0.754733,1202.3
455,0.7564,1200.959
456,0.758067,1204.163
457,0.759733,1204.163
458,0.7614,1203.567
459,0.763167,1203.045
460,0.764733,1203.045
461,0.7664,1205.28
462,0.7680670000000001,1204.163
463,0.769733,1204.982
464,0.7714,1204.982
465,0.7730669999999999,1206.547
466,0.774733,1203.12
467,0.7764,1200.736
468,0.778067,1200.736
469,0.779833,1200.214
470,0.7814,1195.371
471,0.783067,1193.509
472,0.784733,1193.509
473,0.7864,1192.316
474,0.788067,1190.677
475,0.789733,1193.732
476,0.7914,1193.732
477,0.79305,1195.371
478,0.794717,1193.807
479,0.796383,1193.807
480,0.79805,1192.763
481,0.799717,1190.305
482,0.801383,1188.07
483,0.80305,1188.07
484,0.804717,1188.219
485,0.806383,1190.007
486,0.80805,1189.336
487,0.809717,1189.336
488,0.811383,1189.634
489,0.8130500000000001,1188.964
490,0.814717,1190.677
491,0.816383,1190.677
492,0.818067,1191.273
493,0.819717,1194.104
494,0.821383,1194.104
495,0.8230499999999999,1195.222
496,0.824717,1192.167
497,0.8264,1193.583
498,0.82805,1193.583
499,0.829717,1189.634
500,0.831383,1187.548
501,0.83305,1185.462
502,0.834717,1185.462
503,0.836383,1183.45
504,0.83805,1183.152
505,0.839717,1183.078
506,0.841383,1183.078
507,0.84305,1187.026
508,0.8447170000000001,1187.846
509,0.846383,1190.901
510,0.84805,1190.901
511,0.8497169999999999,1191.422
512,0.851383,1188.07
513,0.853033,1188.07
514,0.8547,1189.038
515,0.856367,1186.132
516,0.858033,1188.144
517,0.8597,1188.144
518,0.861367,1188.07
519,0.8630330000000001,1186.058
520,0.864733,1187.176
521,0.866367,1187.176
522,0.8680330000000001,1184.866
523,0.8697,1186.877
524,0.871367,1188.07
525,0.8730329999999999,1188.07
526,0.8747,1186.281
527,0.876367,1189.634
528,0.878033,1189.634
529,0.8797,1188.517
530,0.8814,1187.399
531,0.883033,1187.324
532,0.8847,1187.324
533,0.886367,1186.729
534,0.888033,1188.07
535,0.8897,1187.399
536,0.891367,1187.399
537,0.893033,1191.05
538,0.8947000000000001,1191.348
539,0.896367,1187.548
540,0.8981170000000001,1187.548
541,0.8997000000000001,1189.187
542,0.901367,1184.866
543,0.903033,1181.737
544,0.9046999999999999,1181.737
545,0.906367,1182.556
546,0.908033,1180.917
547,0.9097,1180.917
548,0.911367,1184.195
549,0.913017,1187.324
550,0.914683,1190.454
551,0.91635,1190.454
552,0.918017,1191.124
553,0.919683,1189.783
554,0.92135,1188.815
555,0.923017,1188.815
556,0.924683,1188.964
557,0.92635,1190.156
558,0.928017,1191.646
559,0.929683,1191.646
560,0.93135,1192.242
561,0.933017,1187.474
562,0.934683,1187.474
563,0.93635,1182.184
564,0.938017,1179.427
565,0.939683,1175.702
566,0.94135,1175.702
567,0.943017,1176.745
568,0.9446830000000001,1179.352
569,0.94635,1178.831
570,0.948017,1178.831
571,0.9497,1179.278
572,0.95135,1179.129
573,0.953017,1178.458
574,0.9546829999999999,1178.458
575,0.95635,1177.266
576,0.958017,1177.862
577,0.959683,1177.639
578,0.96135,1177.639
579,0.963017,1178.235
580,0.964683,1179.501
581,0.96635,1179.501
582,0.968017,1180.545
583,0.9697,1177.639
584,0.971333,1176.745
585,0.973,1176.745
586,0.9747,1176.596
587,0.976333,1173.168
588,0.978,1176.968
589,0.979667,1176.968
590,0.981333,1178.905
591,0.983,1179.203
592,0.984667,1178.905
593,0.986333,1178.905
594,0.988,1177.49
595,0.989667,1176.894
596,0.991333,1176.894
597,0.993,1178.011
598,0.994667,1181.439
599,0.996333,1182.854
600,0.998,1182.854
601,0.999683,1182.482
602,1.001333,1182.631
603,1.003,1182.854
604,1.004667,1182.854
605,1.006333,1182.184
606,1.007983,1181.96
607,1.00965,1180.023
608,1.011317,1180.023
609,1.012983,1176
610,1.01465,1172.796
611,1.016383,1171.976
612,1.017983,1171.976
613,1.01965,1174.659
614,1.021317,1179.054
615,1.022983,1179.054
616,1.02465,1185.015
617,1.026317,1186.877
618,1.027983,1187.548
619,1.02965,1187.548
620,1.031317,1187.846
621,1.032967,1187.548
622,1.034633,1186.43
623,1.0363,1186.43
624,1.037967,1179.874
625,1.039633,1178.607
626,1.0413,1177.937
627,1.042967,1177.937
628,1.044633,1180.693
629,1.0463,1186.803
630,1.047967,1186.803
631,1.049633,1185.536
632,1.05135,1183.078
633,1.052967,1180.321
634,1.054633,1180.321
635,1.0563,1176.968
636,1.057967,1177.266
637,1.059633,1177.043
638,1.0613,1177.043
639,1.062967,1177.49
640,1.064633,1176.074
641,1.0663,1175.851
642,1.067967,1175.851
643,1.069633,1176.968
644,1.0713,1177.043
645,1.072967,1177.043
646,1.074633,1178.682
647,1.0763,1179.352
648,1.077967,1179.65
649,1.079633,1179.65
650,1.0813,1181.662
651,1.082967,1182.333
652,1.084633,1180.246
653,1.0863,1180.246
654,1.087967,1179.799
655,1.089633,1177.415
656,1.091283,1177.043
657,1.09295,1177.043
658,1.094617,1178.756
659,1.096283,1178.086
660,1.09795,1178.682
661,1.099617,1178.682
662,1.1013,1178.011
663,1.10295,1173.466
664,1.104617,1173.466
665,1.106283,1172.125
666,1.10795,1169.816
667,1.109617,1168.549
668,1.111283,1168.549
669,1.11295,1170.635
670,1.114617,1174.51
671,1.116283,1176
672,1.118,1176
673,1.119617,1177.564
674,1.121283,1179.129
675,1.122967,1176.596
676,1.124667,1176.596
677,1.126283,1176.745
678,1.12795,1176.149
679,1.129617,1176.149
680,1.131283,1176.372
681,1.13295,1178.98
682,1.134733,1178.086
683,1.136283,1178.086
684,1.13795,1179.427
685,1.139617,1176.298
686,1.141283,1172.051
687,1.14295,1172.051
688,1.144617,1171.231
689,1.146283,1171.455
690,1.14795,1173.168
691,1.149617,1173.168
692,1.151267,1173.168
693,1.152933,1175.18
694,1.1546,1175.18
695,1.156267,1172.87
696,1.157933,1172.572
697,1.1596,1173.317
698,1.161267,1173.317
699,1.162933,1173.094
700,1.1646,1174.212
701,1.166267,1172.945
702,1.167933,1172.945
703,1.1696,1172.945
704,1.171267,1172.647
705,1.172933,1172.945
706,1.1746,1172.945
707,1.176267,1175.478
708,1.177933,1174.957
709,1.1796,1173.615
710,1.181267,1173.615
711,1.182933,1173.094
712,1.1846,1173.913
713,1.186267,1173.913
714,1.187933,1175.627
715,1.1896,1177.564
716,1.191267,1178.682
717,1.19295,1178.682
718,1.19465,1177.266
719,1.196267,1176.372
720,1.197933,1174.659
721,1.1996,1174.659
722,1.201267,1174.51
723,1.202933,1176.596
724,1.2046,1176
725,1.206267,1176
726,1.207933,1174.063
727,1.2096,1173.168
728,1.21125,1173.168
729,1.212917,1172.125
730,1.214583,1173.913
731,1.21625,1177.415
732,1.217917,1177.415
733,1.219667,1175.702
734,1.22125,1173.392
735,1.222917,1173.019
736,1.224583,1173.019
737,1.22625,1169.667
738,1.227917,1169.667
739,1.229583,1171.082
740,1.23125,1171.082
741,1.232917,1169.518
742,1.234583,1174.51
743,1.23625,1176.894
744,1.237917,1176.894
745,1.239583,1177.564
746,1.24125,1180.172
747,1.242917,1180.172
748,1.244583,1175.925
749,1.24625,1177.043
750,1.247917,1177.043
751,1.249583,1177.043
752,1.25125,1171.529
753,1.253017,1172.2
754,1.254583,1168.773
755,1.25625,1168.773
756,1.257917,1167.804
757,1.259583,1170.784
758,1.26125,1171.604
759,1.262917,1171.604
760,1.264583,1170.561
761,1.26625,1168.027
762,1.267917,1168.027
763,1.269583,1167.804
764,1.271283,1165.122
765,1.272933,1167.506
766,1.274567,1167.506
767,1.276233,1170.784
768,1.2779,1172.796
769,1.279567,1178.533
770,1.281233,1178.533
771,1.2829,1178.98
772,1.284567,1178.309
773,1.286233,1175.255
774,1.2879,1175.255
775,1.289567,1169.22
776,1.291233,1167.804
777,1.2929,1167.432
778,1.294567,1167.432
779,1.296233,1168.4
780,1.2979,1172.647
781,1.299567,1172.647
782,1.301217,1175.404
783,1.302883,1177.043
784,1.30455,1178.831
785,1.306217,1178.831
786,1.307883,1176.074
787,1.30955,1174.063
788,1.311217,1170.933
789,1.312883,1170.933
790,1.31455,1167.58
791,1.316217,1165.941
792,1.317883,1165.867
793,1.31955,1165.867
794,1.321217,1168.996
795,1.322883,1169.667
796,1.32455,1169.667
797,1.326217,1171.008
798,1.327883,1171.38
799,1.32955,1173.541
800,1.3312,1173.541
801,1.332867,1176.372
802,1.334533,1179.799
803,1.3362,1180.545
804,1.337967,1180.545
805,1.339583,1176.894
806,1.3412,1176.521
807,1.342867,1172.572
808,1.344533,1172.572
809,1.3462,1170.486
810,1.347867,1167.953
811,1.349533,1167.953
812,1.3512,1167.282
813,1.352867,1169.071
814,1.354533,1171.678
815,1.3562,1171.678
816,1.357867,1175.851
817,1.359533,1175.478
818,1.3612,1175.255
819,1.362867,1175.255
820,1.364533,1174.807
821,1.3662,1173.541
822,1.367867,1172.647
823,1.369533,1172.647
824,1.371317,1173.317
825,1.372867,1173.243
826,1.374533,1173.392
827,1.3762,1173.392
828,1.377867,1174.584
829,1.379533,1176.372
830,1.3812,1176.372
831,1.382867,1174.286
832,1.384533,1172.498
833,1.3862,1171.529
834,1.387867,1171.529
835,1.389517,1168.102
836,1.391183,1169.592
837,1.39285,1171.157
838,1.394517,1171.157
839,1.396183,1172.87
840,1.39785,1174.957
841,1.399517,1174.137
842,1.401183,1174.137
843,1.40285,1175.031
844,1.404517,1174.063
845,1.406183,1174.063
846,1.40785,1171.604
847,1.409517,1172.796
848,1.4112,1174.063
849,1.4129,1174.063
850,1.414517,1175.925
851,1.416183,1180.693
852,1.41785,1180.843
853,1.419517,1180.843
854,1.421183,1178.458
855,1.42285,1177.192
856,1.424517,1172.796
857,1.426183,1172.796
858,1.42785,1172.498
859,1.429517,1172.796
860,1.431183,1170.784
861,1.43285,1170.784
862,1.434517,1170.486
863,1.436183,1169.294
864,1.43785,1169.294
865,1.439517,1165.867
866,1.441183,1165.42
867,1.44285,1165.345
868,1.444517,1165.345
869,1.446183,1166.314
870,1.44785,1169.89
871,1.449517,1170.188
872,1.451183,1170.188
873,1.452833,1172.796
874,1.4545,1173.392
875,1.456217,1173.243
876,1.457833,1173.243
877,1.4595,1177.49
878,1.461167,1174.807
879,1.462833,1174.807
880,1.4645,1172.349
881,1.466167,1174.957
882,1.467833,1173.541
883,1.4695,1173.541
884,1.471167,1176.894
885,1.472833,1180.693
886,1.4745,1180.545
887,1.476167,1180.545
888,1.477833,1179.799
889,1.4795,1178.98
890,1.481167,1176.223
891,1.482833,1176.223
892,1.4845,1173.019
893,1.486167,1172.2
894,1.487867,1168.996
895,1.489583,1168.996
896,1.491167,1165.718
897,1.492833,1164.6
898,1.4945,1164.6
899,1.496167,1162.44
900,1.497833,1162.589
901,1.4995,1163.408
902,1.501167,1163.408
903,1.502833,1163.93
904,1.5045,1165.345
905,1.506167,1166.388
906,1.507833,1166.388
907,1.5095,1169.89
908,1.511167,1171.604
909,1.512817,1172.125
910,1.514483,1172.125
911,1.51615,1174.063
912,1.517817,1172.274
913,1.519483,1172.274
914,1.52115,1173.69
915,1.522817,1176.149
916,1.524483,1176.596
917,1.52615,1176.596
918,1.527833,1178.011
919,1.529483,1175.478
920,1.53115,1173.541
921,1.532817,1173.541
