"ID","sea_time","fid_signal"
1,0,1175.255
2,0.001667,1177.117
3,0.003333,1177.117
4,0.005,1173.988
5,0.006667,1170.412
6,0.008333,1166.686
7,0.01,1166.686
8,0.011667,1163.706
9,0.013333,1163.781
10,0.015033,1164.898
11,0.016667,1164.898
12,0.018333,1164.973
13,0.02,1164.824
14,0.021667,1164.824
15,0.023333,1166.984
16,0.025,1169.667
17,0.026667,1169.965
18,0.028333,1169.965
19,0.03,1170.412
20,0.031767,1168.773
21,0.033333,1164.973
22,0.035,1164.973
23,0.036667,1165.345
24,0.038333,1164.675
25,0.04,1163.483
26,0.04165,1163.483
27,0.043317,1165.271
28,0.044983,1163.855
29,0.04665,1163.855
30,0.048433,1165.867
31,0.049983,1168.251
32,0.05165,1168.773
33,0.053317,1168.773
34,0.054983,1171.827
35,0.05665,1173.765
36,0.058317,1171.231
37,0.059983,1171.231
38,0.06165,1170.486
39,0.063317,1168.773
40,0.064983,1165.047
41,0.06665,1165.047
42,0.068317,1169.294
43,0.069983,1168.624
44,0.07165000000000001,1168.624
45,0.07331699999999999,1166.165
46,0.07498299999999999,1167.953
47,0.07665,1164.675
48,0.078317,1164.675
49,0.079983,1165.792
50,0.08165,1167.208
51,0.083317,1163.855
52,0.084983,1163.855
53,0.08665,1164.824
54,0.08831700000000001,1166.686
55,0.08998299999999999,1165.643
56,0.09165,1165.643
57,0.093317,1167.58
58,0.094983,1170.188
59,0.09665,1168.027
60,0.098317,1168.027
61,0.1,1172.051
62,0.10165,1172.647
63,0.1033,1172.647
64,0.104967,1170.933
65,0.106633,1174.212
66,0.1083,1175.553
67,0.109967,1175.553
68,0.111633,1174.807
69,0.1133,1172.572
70,0.114967,1169.443
71,0.116633,1169.443
72,0.1183,1166.686
73,0.119967,1165.718
74,0.121633,1167.059
75,0.1233,1167.059
76,0.124967,1169.071
77,0.126633,1167.133
78,0.1283,1167.133
79,0.129967,1167.655
80,0.131633,1166.09
81,0.133367,1163.259
82,0.134967,1163.259
83,0.136633,1164.824
84,0.1383,1163.93
85,0.139967,1162.961
86,0.141633,1162.961
87,0.1433,1163.408
88,0.144967,1162.142
89,0.146633,1161.993
90,0.1483,1161.993
91,0.149967,1164.824
92,0.151633,1163.185
93,0.1533,1164.6
94,0.154967,1164.6
95,0.156633,1168.027
96,0.1583,1168.624
97,0.159967,1168.624
98,0.161617,1170.263
99,0.163283,1170.114
100,0.16495,1166.984
101,0.166667,1166.984
102,0.168283,1166.09
103,0.16995,1167.506
104,0.171617,1167.655
105,0.173283,1167.655
106,0.17495,1167.282
107,0.176617,1168.698
108,0.178283,1168.027
109,0.17995,1168.027
110,0.181617,1167.879
111,0.183283,1168.4
112,0.18495,1168.4
113,0.186617,1167.133
114,0.188283,1166.165
115,0.18995,1166.463
116,0.191617,1166.463
117,0.193283,1167.879
118,0.19495,1168.549
119,0.196617,1168.027
120,0.198283,1168.027
121,0.19995,1166.388
122,0.201617,1167.059
123,0.203283,1167.357
124,0.20495,1167.357
125,0.206617,1171.306
126,0.208283,1173.615
127,0.20995,1172.721
128,0.211617,1172.721
129,0.213283,1173.317
130,0.21495,1170.71
131,0.216617,1170.71
132,0.218267,1169.369
133,0.219933,1169.592
134,0.221583,1166.09
135,0.22325,1166.09
136,0.224917,1164.675
137,0.226583,1163.259
138,0.22825,1165.941
139,0.229917,1165.941
140,0.231583,1165.867
141,0.23325,1166.91
142,0.234917,1168.102
143,0.236583,1168.102
144,0.23825,1164.824
145,0.239917,1166.835
146,0.241617,1166.835
147,0.24325,1166.835
148,0.244917,1165.941
149,0.246583,1167.655
150,0.24825,1167.655
151,0.249917,1167.357
152,0.251633,1168.102
153,0.25325,1168.847
154,0.254917,1168.847
155,0.256583,1167.059
156,0.25825,1165.718
157,0.259917,1161.695
158,0.261583,1161.695
159,0.26325,1161.471
160,0.264917,1159.906
161,0.266583,1159.906
162,0.26825,1160.13
163,0.269917,1165.345
164,0.271583,1168.847
165,0.27325,1168.847
166,0.274917,1170.263
167,0.276583,1170.337
168,0.27825,1170.263
169,0.279917,1170.263
170,0.281567,1167.506
171,0.283233,1167.432
172,0.285033,1164.6
173,0.286567,1164.6
174,0.288233,1163.781
175,0.2899,1163.11
176,0.291567,1164.898
177,0.293233,1164.898
178,0.2949,1166.835
179,0.296567,1163.11
180,0.298233,1163.11
181,0.2999,1163.557
182,0.301567,1163.781
183,0.303233,1166.463
184,0.3049,1166.463
185,0.306567,1168.549
186,0.308233,1166.761
187,0.3099,1166.686
188,0.311567,1166.686
189,0.313233,1166.835
190,0.3149,1167.804
191,0.3166,1169.22
192,0.318233,1169.22
193,0.3199,1166.91
194,0.321567,1166.761
195,0.323233,1166.761
196,0.3249,1166.835
197,0.326567,1167.432
198,0.328233,1167.506
199,0.3299,1167.506
200,0.331567,1166.91
201,0.333233,1169.22
202,0.3349,1168.177
203,0.336567,1168.177
204,0.338233,1168.475
205,0.3399,1169.592
206,0.34155,1167.133
207,0.343217,1167.133
208,0.344883,1167.58
209,0.34655,1166.761
210,0.348217,1165.792
211,0.349883,1165.792
212,0.35155,1168.027
213,0.353217,1167.729
214,0.354883,1167.729
215,0.35655,1168.996
216,0.358217,1167.953
217,0.359883,1165.42
218,0.36155,1165.42
219,0.363217,1167.804
220,0.364883,1170.263
221,0.36655,1171.529
222,0.368217,1171.529
223,0.36995,1170.933
224,0.37155,1169.592
225,0.373217,1168.698
226,0.374883,1168.698
227,0.37655,1171.008
228,0.378217,1173.765
229,0.379883,1173.765
230,0.38155,1179.352
231,0.383217,1183.897
232,0.384883,1184.419
233,0.386633,1184.419
234,0.388217,1187.772
235,0.389883,1188.293
236,0.39155,1191.273
237,0.393217,1191.273
238,0.394883,1198.649
239,0.39655,1203.79
240,0.398217,1211.688
241,0.399883,1211.688
242,0.401533,1218.393
243,0.403333,1227.558
244,0.404867,1240.596
245,0.406533,1240.596
246,0.4082,1253.188
247,0.409867,1272.708
248,0.411533,1272.708
249,0.4132,1291.558
250,0.414867,1311.898
251,0.416533,1332.76
252,0.4182,1332.76
253,0.419867,1350.567
254,0.421533,1371.428
255,0.4232,1393.333
256,0.424867,1393.333
257,0.426533,1415.163
258,0.4282,1440.421
259,0.429867,1467.243
260,0.431533,1467.243
261,0.4332,1500.323
262,0.434883,1537.204
263,0.436533,1537.204
264,0.4382,1574.382
265,0.439867,1610.07
266,0.441533,1646.802
267,0.4432,1646.802
268,0.444867,1685.47
269,0.446533,1726.523
270,0.4482,1776.218
271,0.449867,1776.218
272,0.451533,1824.349
273,0.4532,1880.825
274,0.454883,1943.484
275,0.456533,1943.484
276,0.4582,2015.084
277,0.459867,2102.628
278,0.461517,2102.628
279,0.463183,2204.925
280,0.46485,2329.573
281,0.466517,2480.224
282,0.468183,2480.224
283,0.46985,2663.061
284,0.471517,2886.355
285,0.473183,3156.215
286,0.47485,3156.215
287,0.476533,3475.547
288,0.478183,3852.546
289,0.47985,4289.97
290,0.481517,4289.97
291,0.483183,4793.107
292,0.48485,5365.536
293,0.486517,6007.85
294,0.488183,6007.85
295,0.48985,6718.114
296,0.491517,7495.209
297,0.493183,7495.209
298,0.49485,8339.137000000001
299,0.496517,9242.52
300,0.498183,10201.559
301,0.49985,10201.559
302,0.501517,11214.688
303,0.503183,12278.482
304,0.504933,13388.991
305,0.506517,13388.991
306,0.5081830000000001,14546.886
307,0.509833,15745.908
308,0.5115,16980.395
309,0.513167,16980.395
310,0.514833,18249.527
311,0.5165,19546.896
312,0.518167,19546.896
313,0.519833,20871.311
314,0.52155,22217.93
315,0.52315,23584.217
316,0.52485,23584.217
317,0.526483,24967.492
318,0.52815,26366.041
319,0.529817,27775.467
320,0.531483,27775.467
321,0.53315,29195.994
322,0.534817,30625.984
323,0.536483,32055.75
324,0.538283,32055.75
325,0.539817,33486.559
326,0.541483,34915.285
327,0.54315,36337.598
328,0.544817,36337.598
329,0.5464830000000001,37749.93
330,0.54815,39149.969
331,0.549817,39149.969
332,0.5514829999999999,40529.668
333,0.55315,41891.559
334,0.554817,43233.559
335,0.5564829999999999,43233.559
336,0.55815,44558.57
337,0.559817,45867.934
338,0.561483,47156.066
339,0.56315,47156.066
340,0.564817,48424.602
341,0.566483,49665.793
342,0.56815,50877.781
343,0.569817,50877.781
344,0.571483,52054.824
345,0.57315,53190.813
346,0.574817,53190.813
347,0.576483,54270.105
348,0.5781500000000001,55275.113
349,0.5798,56171.789
350,0.581467,56171.789
351,0.583133,56903.063
352,0.5848,57361.797
353,0.586467,57329.016
354,0.588133,57329.016
355,0.5898,56435.613
356,0.591467,54220.035
357,0.59315,50357.133
358,0.5948,50357.133
359,0.596467,44913.293
360,0.598133,38409.68
361,0.5998,31662.285
362,0.601467,31662.285
363,0.603133,25450.959
364,0.6048,20240.023
365,0.606467,20240.023
366,0.608133,16150.251
367,0.6098170000000001,13062.06
368,0.611467,10770.932
369,0.613133,10770.932
370,0.6148,9075.627
371,0.616467,7806.197
372,0.618133,6841.123
373,0.6198,6841.123
374,0.621467,6088.913
375,0.62315,5491.674
376,0.6248,5004.555
377,0.626467,5004.555
378,0.6281330000000001,4600.063
379,0.6298,4260.838
380,0.631467,4260.838
381,0.6331329999999999,3968.775
382,0.6348,3719.628
383,0.636467,3503.114
384,0.638133,3503.114
385,0.639883,3310.591
386,0.64145,3139.675
387,0.643117,2986.044
388,0.644783,2986.044
389,0.64645,2846.867
390,0.6481170000000001,2725.422
391,0.649783,2613.44
392,0.65145,2613.44
393,0.6531169999999999,2511.814
394,0.654783,2419.874
395,0.656567,2331.51
396,0.658133,2331.51
397,0.659783,2254.769
398,0.66145,2189.279
399,0.663117,2189.279
400,0.664783,2128.109
401,0.666483,2074.093
402,0.668117,2020.001
403,0.669783,2020.001
404,0.67145,1968.518
405,0.673117,1923.367
406,0.674783,1883.134
407,0.67645,1883.134
408,0.678117,1846.477
409,0.679783,1814.291
410,0.68145,1781.434
411,0.683117,1781.434
412,0.684783,1749.769
413,0.68645,1723.021
414,0.688117,1723.021
415,0.689783,1698.211
416,0.69145,1676.753
417,0.693117,1654.849
418,0.694783,1654.849
419,0.69645,1633.987
420,0.698117,1614.988
421,0.699783,1597.479
422,0.701433,1597.479
423,0.7030999999999999,1584.142
424,0.704767,1570.061
425,0.706433,1555.458
426,0.7081,1555.458
427,0.709767,1540.109
428,0.711433,1525.581
429,0.7131,1525.581
430,0.714767,1513.734
431,0.716433,1500.547
432,0.7181,1490.936
433,0.719767,1490.936
434,0.721433,1481.399
435,0.7231,1470.074
436,0.7247670000000001,1461.431
437,0.726433,1461.431
438,0.7281,1453.161
439,0.7297670000000001,1446.828
440,0.731433,1443.401
441,0.733117,1443.401
442,0.7347669999999999,1435.578
443,0.736433,1429.17
444,0.7381,1421.347
445,0.739767,1421.347
446,0.7414500000000001,1412.63
447,0.7431,1406.744
448,0.744767,1406.744
449,0.746433,1399.666
450,0.7481,1392.141
451,0.749767,1388.118
452,0.751433,1388.118
453,0.7531,1381.338
454,0.754767,1376.867
455,0.756433,1372.024
456,0.7581329999999999,1372.024
457,0.759767,1364.723
458,0.761417,1361.37
459,0.763083,1357.57
460,0.76475,1357.57
461,0.766417,1352.802
462,0.768083,1348.63
463,0.76975,1348.63
464,0.771417,1344.308
465,0.773083,1338.869
466,0.774883,1336.634
467,0.776417,1336.634
468,0.778083,1332.089
469,0.7797500000000001,1329.258
470,0.781417,1327.321
471,0.783083,1327.321
472,0.7847499999999999,1323.447
473,0.786417,1320.69
474,0.788083,1315.027
475,0.78975,1315.027
476,0.791417,1312.271
477,0.793083,1309.589
478,0.79475,1309.216
479,0.796417,1309.216
480,0.798083,1308.173
481,0.799733,1303.479
482,0.8014,1303.479
483,0.803067,1299.232
484,0.804733,1296.699
485,0.8064,1297.221
486,0.808083,1297.221
487,0.809733,1294.613
488,0.8114,1295.805
489,0.813067,1293.868
490,0.814733,1293.868
491,0.8164,1287.237
492,0.818067,1282.543
493,0.819733,1278.222
494,0.821383,1278.222
495,0.8230499999999999,1276.21
496,0.824717,1276.88
497,0.826383,1276.88
498,0.82805,1278.818
499,0.829717,1277.253
500,0.831383,1275.614
501,0.83305,1275.614
502,0.834717,1273.453
503,0.836383,1271.442
504,0.83805,1269.653
505,0.839717,1269.653
506,0.841383,1265.109
507,0.84305,1264.736
508,0.8447170000000001,1265.407
509,0.846383,1265.407
510,0.84805,1263.917
511,0.8497169999999999,1263.022
512,0.851383,1263.022
513,0.85305,1260.862
514,0.8547169999999999,1257.211
515,0.856383,1254.38
516,0.85805,1254.38
517,0.859783,1252.89
518,0.861383,1247.972
519,0.86305,1244.694
520,0.864717,1244.694
521,0.866383,1246.035
522,0.86805,1248.196
523,0.869717,1250.133
524,0.871383,1250.133
525,0.87305,1250.282
526,0.874717,1248.792
527,0.87645,1244.172
528,0.87805,1244.172
529,0.879717,1242.682
530,0.881433,1241.192
531,0.883033,1241.192
532,0.8847,1242.161
533,0.886367,1240.969
534,0.888033,1243.204
535,0.8897,1243.204
536,0.891367,1243.874
537,0.893167,1240.224
538,0.8947000000000001,1240.82
539,0.896367,1240.82
540,0.898033,1237.616
541,0.8997000000000001,1235.53
542,0.901367,1234.114
543,0.903033,1234.114
544,0.9046999999999999,1231.581
545,0.906367,1227.036
546,0.908033,1227.036
547,0.9097,1225.844
548,0.911367,1224.726
549,0.913033,1226.217
550,0.9147,1226.217
551,0.916367,1230.165
552,0.918033,1229.346
553,0.9197,1232.177
554,0.921367,1232.177
555,0.923033,1230.463
556,0.9247,1226.738
557,0.9263670000000001,1229.569
558,0.928033,1229.569
559,0.9297,1227.483
560,0.9313669999999999,1230.687
561,0.933033,1232.997
562,0.9347,1232.997
563,0.9363669999999999,1233.518
564,0.938033,1233.816
565,0.9397,1233.816
566,0.94135,1232.103
567,0.943017,1228.75
568,0.9446830000000001,1223.832
569,0.94635,1223.832
570,0.948017,1220.778
571,0.9496830000000001,1218.468
572,0.95135,1218.692
573,0.95305,1218.692
574,0.9546829999999999,1218.915
575,0.95635,1220.554
576,0.958017,1221.001
577,0.959683,1221.001
578,0.961367,1222.417
579,0.963017,1221.597
580,0.964683,1221.597
581,0.96635,1218.617
582,0.968017,1217.723
583,0.969683,1217.797
584,0.97135,1217.797
585,0.973017,1217.574
586,0.974683,1218.617
587,0.9763500000000001,1216.009
588,0.978067,1216.009
589,0.979683,1214.445
590,0.9813499999999999,1214.817
591,0.983017,1215.041
592,0.984683,1215.041
593,0.9863499999999999,1215.637
594,0.988017,1215.264
595,0.989683,1213.998
596,0.99135,1213.998
597,0.993017,1213.402
598,0.994683,1214.966
599,0.99635,1214.966
600,0.998,1214.594
601,0.999683,1213.923
602,1.001333,1213.476
603,1.003,1213.476
604,1.004667,1208.708
605,1.006333,1208.931
606,1.008,1208.186
607,1.009667,1208.186
608,1.011467,1204.014
609,1.013017,1205.28
610,1.014667,1201.853
611,1.016333,1201.853
612,1.018,1201.928
613,1.019667,1205.057
614,1.021333,1205.057
615,1.023,1209.006
616,1.024683,1209.006
617,1.026333,1208.633
618,1.028,1208.633
619,1.029667,1206.249
620,1.031333,1201.704
621,1.033,1201.555
622,1.034667,1201.555
623,1.036333,1202.077
624,1.038,1204.833
625,1.039667,1205.429
626,1.041333,1205.429
627,1.043,1207.292
628,1.044667,1206.622
629,1.046333,1204.386
630,1.048,1204.386
631,1.049683,1203.194
632,1.051333,1202.449
633,1.053,1202.449
634,1.054667,1202.524
635,1.056333,1203.641
636,1.057983,1205.355
637,1.059667,1205.355
638,1.061317,1204.312
639,1.062983,1205.355
640,1.06465,1204.535
641,1.066317,1204.535
642,1.067983,1202.598
643,1.06965,1203.418
644,1.071317,1201.853
645,1.072983,1201.853
646,1.07465,1200.885
647,1.076317,1199.245
648,1.077983,1199.245
649,1.07965,1197.308
650,1.081317,1198.575
651,1.082983,1201.555
652,1.08465,1201.555
653,1.086317,1202.077
654,1.087983,1201.034
655,1.08965,1198.128
656,1.0913,1198.128
657,1.092967,1194.328
658,1.094633,1192.093
659,1.096367,1190.677
660,1.097967,1190.677
661,1.099633,1189.485
662,1.1013,1188.368
663,1.102967,1188.368
664,1.104633,1192.167
665,1.1063,1191.869
666,1.107967,1193.509
667,1.109633,1193.509
668,1.1113,1195.371
669,1.112967,1195.52
670,1.114633,1198.649
671,1.1163,1198.649
672,1.117967,1200.959
673,1.119633,1200.661
674,1.121283,1198.947
675,1.12295,1198.947
676,1.124617,1200.512
677,1.126283,1197.234
678,1.12795,1196.34
679,1.12975,1196.34
680,1.131283,1197.457
681,1.13295,1197.755
682,1.134617,1197.755
683,1.136283,1199.245
684,1.13795,1200.959
685,1.139617,1200.736
686,1.141283,1200.736
687,1.14295,1196.787
688,1.144617,1194.403
689,1.146283,1190.901
690,1.14795,1190.901
691,1.149617,1190.528
692,1.151283,1191.422
693,1.15295,1191.199
694,1.154617,1191.199
695,1.156283,1190.677
696,1.15795,1190.603
697,1.159617,1190.603
698,1.161283,1192.018
699,1.16295,1191.422
700,1.164617,1191.944
701,1.166283,1191.944
702,1.16795,1189.262
703,1.169617,1187.697
704,1.171283,1189.336
705,1.17295,1189.336
706,1.174617,1189.187
707,1.176283,1191.646
708,1.17795,1191.869
709,1.179617,1191.869
710,1.181267,1189.783
711,1.182933,1191.124
712,1.1846,1191.795
713,1.186267,1191.795
714,1.18795,1189.336
715,1.1896,1190.677
716,1.191267,1190.677
717,1.192933,1191.646
718,1.1946,1190.379
719,1.196267,1193.509
720,1.197933,1193.509
721,1.1996,1197.308
722,1.201267,1199.096
723,1.202933,1198.426
724,1.2046,1198.426
725,1.206267,1199.693
726,1.207933,1196.638
727,1.2096,1191.273
728,1.211267,1191.273
729,1.212933,1189.485
730,1.214667,1186.207
731,1.216267,1186.207
732,1.217933,1183.897
733,1.2196,1187.399
734,1.221283,1188.815
735,1.222933,1188.815
736,1.2246,1190.528
737,1.226267,1192.391
738,1.227933,1193.136
739,1.2296,1193.136
740,1.231317,1192.838
741,1.232933,1191.869
742,1.234617,1190.454
743,1.236267,1190.454
744,1.237933,1187.026
745,1.2396,1185.983
746,1.24125,1185.983
747,1.242917,1183.45
748,1.244583,1182.407
749,1.24625,1184.046
750,1.24805,1184.046
751,1.249583,1184.121
752,1.25125,1184.493
753,1.252917,1185.089
754,1.254583,1185.089
755,1.25625,1183.227
756,1.257917,1183.003
757,1.259583,1183.525
758,1.26125,1183.525
759,1.262917,1184.419
760,1.264583,1187.324
761,1.26625,1190.305
762,1.267917,1190.305
763,1.269583,1193.732
764,1.27125,1193.732
765,1.272917,1193.732
766,1.274583,1191.05
767,1.27625,1188.517
768,1.277917,1184.94
769,1.279583,1184.94
770,1.28125,1184.344
771,1.282917,1185.462
772,1.284583,1186.058
773,1.28625,1186.058
774,1.287917,1188.815
775,1.289583,1189.038
776,1.29125,1188.219
777,1.292917,1188.219
778,1.294583,1188.293
779,1.29625,1188.293
780,1.297917,1188.293
781,1.299567,1187.026
782,1.301233,1186.803
783,1.302933,1189.783
784,1.304567,1189.783
785,1.306267,1188.815
786,1.3079,1190.156
787,1.309567,1193.136
788,1.311233,1193.136
789,1.3129,1191.422
790,1.314567,1189.262
791,1.316233,1188.517
792,1.3179,1188.517
793,1.319567,1184.493
794,1.321233,1182.705
795,1.3229,1183.525
796,1.324567,1183.525
797,1.326233,1185.983
798,1.3279,1189.634
799,1.329567,1189.634
800,1.331233,1188.74
801,1.332917,1187.623
802,1.334567,1184.568
803,1.336233,1184.568
804,1.3379,1180.396
805,1.339567,1179.874
806,1.341233,1179.799
807,1.3429,1179.799
808,1.344567,1183.823
809,1.346233,1185.983
810,1.3479,1187.101
811,1.349667,1187.101
812,1.351233,1187.399
813,1.3529,1184.121
814,1.354567,1184.121
815,1.356233,1182.556
816,1.3579,1182.854
817,1.35955,1184.27
818,1.361217,1184.27
819,1.362883,1184.642
820,1.36455,1184.94
821,1.3663,1185.313
822,1.367883,1185.313
823,1.36955,1184.866
824,1.371217,1186.729
825,1.372883,1186.43
826,1.37455,1186.43
827,1.376217,1188.07
828,1.377883,1188.219
829,1.37955,1184.866
830,1.381217,1184.866
831,1.382967,1182.556
832,1.384533,1180.246
833,1.3862,1180.246
834,1.387867,1178.011
835,1.389533,1177.341
836,1.3912,1181.811
837,1.392867,1181.811
838,1.394533,1180.768
839,1.3962,1182.556
840,1.397867,1183.674
841,1.399533,1183.674
842,1.4012,1180.321
843,1.402867,1178.384
844,1.404533,1176
845,1.4062,1176
846,1.407867,1179.054
847,1.409533,1183.152
848,1.4112,1183.152
849,1.412867,1185.983
850,1.414533,1187.101
851,1.4162,1186.579
852,1.417867,1186.579
853,1.419517,1184.717
854,1.421183,1184.94
855,1.42285,1184.195
856,1.424517,1184.195
857,1.426183,1179.054
858,1.42785,1176.596
859,1.429517,1174.51
860,1.431183,1174.51
861,1.43285,1175.031
862,1.434517,1178.384
863,1.436183,1178.384
864,1.43785,1179.65
865,1.439517,1181.737
866,1.4412,1180.843
867,1.44285,1180.843
868,1.444517,1181.364
869,1.446183,1181.364
870,1.44785,1177.192
871,1.449517,1177.192
872,1.4512,1178.086
873,1.45285,1173.615
874,1.454517,1171.455
875,1.456183,1171.455
876,1.45785,1174.584
877,1.459517,1174.733
878,1.461183,1178.682
879,1.46285,1178.682
880,1.464517,1181.513
881,1.466183,1182.929
882,1.467917,1182.929
883,1.469517,1183.376
884,1.471183,1183.376
885,1.47285,1181.513
886,1.474517,1181.513
887,1.476183,1180.396
888,1.47785,1183.748
889,1.479517,1185.015
890,1.481167,1185.015
891,1.482833,1185.462
892,1.484583,1185.462
893,1.486167,1180.023
894,1.487833,1180.023
895,1.4895,1177.415
896,1.491167,1178.235
897,1.492833,1178.235
898,1.4945,1177.49
899,1.496167,1177.192
900,1.497833,1176.894
901,1.4995,1176.894
902,1.501267,1174.659
903,1.502833,1174.882
904,1.5045,1176.223
905,1.506167,1176.223
906,1.507833,1177.49
907,1.5095,1178.086
908,1.511167,1178.309
909,1.512833,1178.309
910,1.5145,1178.011
911,1.516167,1177.117
912,1.51785,1179.054
913,1.5195,1179.054
914,1.521167,1178.905
915,1.522833,1179.278
916,1.5245,1179.278
