"ID","sea_time","fid_signal"
1,0,37.671
2,0.001667,37.671
3,0.003333,37.667
4,0.005,37.683
5,0.006667,37.615
6,0.008333,37.615
7,0.01,37.448
8,0.011667,37.359
9,0.013333,37.359
10,0.015,37.277
11,0.016667,37.323
12,0.018333,37.483
13,0.020117,37.483
14,0.021667,37.593
15,0.023333,37.673
16,0.025,37.733
17,0.026667,37.733
18,0.028333,37.728
19,0.03,37.746
20,0.031683,37.757
21,0.033333,37.757
22,0.035,37.726
23,0.036767,37.733
24,0.038333,37.733
25,0.039983,37.722
26,0.04165,37.752
27,0.043317,37.784
28,0.044983,37.784
29,0.04665,37.809
30,0.048317,37.814
31,0.049983,37.809
32,0.05165,37.809
33,0.053317,37.804
34,0.054983,37.803
35,0.05665,37.771
36,0.058317,37.771
37,0.059983,37.739
38,0.06165,37.728
39,0.063317,37.728
40,0.064983,37.703
41,0.06665,37.702
42,0.068317,37.716
43,0.069983,37.716
44,0.07165000000000001,37.723
45,0.07331699999999999,37.741
46,0.07498299999999999,37.772
47,0.07665,37.772
48,0.078317,37.754
49,0.079983,37.73
50,0.08165,37.73
51,0.083317,37.73
52,0.084983,37.711
53,0.08665,37.716
54,0.08831700000000001,37.706
55,0.08998299999999999,37.706
56,0.09165,37.682
57,0.093317,37.699
58,0.094983,37.699
59,0.09665,37.715
60,0.098317,37.724
61,0.099967,37.717
62,0.101633,37.717
63,0.1033,37.699
64,0.104983,37.673
65,0.106633,37.679
66,0.1083,37.679
67,0.109967,37.686
68,0.111633,37.681
69,0.1133,37.683
70,0.114967,37.683
71,0.116633,37.685
72,0.1183,37.683
73,0.119967,37.683
74,0.121683,37.684
75,0.1233,37.685
76,0.124967,37.681
77,0.126633,37.681
78,0.1283,37.69
79,0.129967,37.683
80,0.131633,37.678
81,0.1333,37.678
82,0.134967,37.684
83,0.136633,37.687
84,0.13835,37.706
85,0.139967,37.706
86,0.141633,37.719
87,0.1433,37.711
88,0.144967,37.698
89,0.146633,37.698
90,0.1483,37.678
91,0.149967,37.663
92,0.151633,37.663
93,0.1533,37.672
94,0.155083,37.684
95,0.156633,37.713
96,0.1583,37.713
97,0.15995,37.713
98,0.16165,37.705
99,0.163283,37.691
100,0.16495,37.691
101,0.166617,37.666
102,0.168283,37.676
103,0.16995,37.687
104,0.171617,37.687
105,0.173283,37.707
106,0.17495,37.712
107,0.176617,37.712
108,0.178283,37.737
109,0.17995,37.72
110,0.181617,37.73
111,0.183283,37.73
112,0.18495,37.723
113,0.186617,37.715
114,0.188283,37.708
115,0.18995,37.708
116,0.191617,37.686
117,0.193267,37.717
118,0.194933,37.725
119,0.1966,37.725
120,0.198267,37.761
121,0.199933,37.774
122,0.2016,37.769
123,0.203267,37.769
124,0.204933,37.747
125,0.2066,37.71
126,0.208267,37.71
127,0.209933,37.69
128,0.2116,37.69
129,0.213267,37.686
130,0.214933,37.686
131,0.2166,37.71
132,0.218267,37.704
133,0.219933,37.704
134,0.221583,37.704
135,0.223267,37.702
136,0.224917,37.695
137,0.226583,37.713
138,0.22825,37.713
139,0.229917,37.692
140,0.231583,37.69
141,0.23325,37.69
142,0.234917,37.681
143,0.236583,37.672
144,0.23825,37.659
145,0.23995,37.659
146,0.241583,37.689
147,0.24325,37.694
148,0.244917,37.723
149,0.246583,37.723
150,0.24825,37.729
151,0.249917,37.687
152,0.251583,37.678
153,0.25325,37.678
154,0.254917,37.673
155,0.256617,37.698
156,0.25825,37.698
157,0.259917,37.745
158,0.261583,37.756
159,0.26325,37.707
160,0.264917,37.707
161,0.266583,37.686
162,0.26825,37.692
163,0.269917,37.716
164,0.271583,37.716
165,0.273367,37.755
166,0.274917,37.761
167,0.276583,37.727
168,0.27825,37.727
169,0.2799,37.72
170,0.281567,37.695
171,0.283267,37.718
172,0.2849,37.718
173,0.286567,37.757
174,0.288233,37.739
175,0.2899,37.739
176,0.291567,37.774
177,0.293233,37.744
178,0.2949,37.697
179,0.296567,37.697
180,0.298233,37.722
181,0.2999,37.719
182,0.301567,37.742
183,0.303233,37.742
184,0.3049,37.769
185,0.306567,37.765
186,0.308233,37.756
187,0.3099,37.756
188,0.311567,37.759
189,0.313233,37.745
190,0.3149,37.745
191,0.316567,37.711
192,0.318233,37.728
193,0.3199,37.72
194,0.321567,37.72
195,0.323233,37.76
196,0.3249,37.81
197,0.326567,37.834
198,0.328233,37.834
199,0.3299,37.855
200,0.331567,37.884
201,0.333233,37.903
202,0.3349,37.903
203,0.336567,37.897
204,0.338217,37.923
205,0.339883,37.913
206,0.34155,37.913
207,0.343217,37.924
208,0.344883,37.987
209,0.34655,37.987
210,0.348217,38.055
211,0.349883,38.131
212,0.35155,38.203
213,0.353217,38.203
214,0.354883,38.249
215,0.35655,38.312
216,0.358233,38.4
217,0.359883,38.4
218,0.36155,38.543
219,0.363233,38.702
220,0.364933,38.899
221,0.36655,38.899
222,0.368217,39.108
223,0.369883,39.317
224,0.37155,39.317
225,0.373217,39.568
226,0.374883,39.825
227,0.37655,40.142
228,0.378217,40.142
229,0.379883,40.514
230,0.38155,40.892
231,0.383217,41.328
232,0.384883,41.328
233,0.38655,41.788
234,0.388217,42.263
235,0.389883,42.838
236,0.391667,42.838
237,0.393217,43.419
238,0.394883,44.026
239,0.39655,44.677
240,0.3982,44.677
241,0.399883,45.329
242,0.401533,46.004
243,0.4032,46.004
244,0.404867,46.697
245,0.406533,47.4
246,0.4082,48.076
247,0.409867,48.076
248,0.411533,48.737
249,0.4132,49.353
250,0.414867,49.917
251,0.416533,49.917
252,0.4182,50.434
253,0.419867,50.904
254,0.421533,51.321
255,0.4232,51.321
256,0.424867,51.731
257,0.426533,52.07
258,0.4282,52.07
259,0.429867,52.284
260,0.431533,52.444
261,0.4332,52.481
262,0.434867,52.481
263,0.436533,52.471
264,0.4382,52.458
265,0.4399,52.337
266,0.441533,52.337
267,0.4432,52.172
268,0.444867,51.92
269,0.446533,51.639
270,0.4482,51.639
271,0.449867,51.305
272,0.451533,50.938
273,0.4532,50.938
274,0.454867,50.551
275,0.456533,50.066
276,0.458183,49.619
277,0.45985,49.619
278,0.461517,49.113
279,0.463183,48.584
280,0.46485,48.072
281,0.466517,48.072
282,0.468183,47.538
283,0.46985,47.008
284,0.471517,46.501
285,0.473183,46.501
286,0.47485,46.019
287,0.476567,45.547
288,0.478183,45.108
289,0.47985,45.108
290,0.481517,44.705
291,0.483167,44.289
292,0.484833,44.289
293,0.4865,43.875
294,0.488167,43.488
295,0.489833,43.123
296,0.4915,43.123
297,0.493167,42.833
298,0.494833,42.608
299,0.4965,42.379
300,0.498167,42.379
301,0.499833,42.199
302,0.5014999999999999,42.064
303,0.503167,41.953
304,0.504833,41.953
305,0.5065,41.901
306,0.508167,41.834
307,0.50995,41.769
308,0.5115,41.769
309,0.513167,41.743
310,0.514833,41.746
311,0.5165,41.746
312,0.51815,41.809
313,0.51985,41.903
314,0.521483,41.953
315,0.52315,41.953
316,0.524817,42.001
317,0.526483,42.038
318,0.52815,42.086
319,0.529817,42.086
320,0.531483,42.179
321,0.53315,42.266
322,0.534817,42.348
323,0.536483,42.348
324,0.53815,42.409
325,0.539817,42.509
326,0.541483,42.509
327,0.54315,42.629
328,0.544817,42.775
329,0.5464830000000001,42.949
330,0.54815,42.949
331,0.549817,43.114
332,0.5514829999999999,43.287
333,0.55315,43.506
334,0.554817,43.506
335,0.5564829999999999,43.79
336,0.55815,44.147
337,0.559817,44.598
338,0.561483,44.598
339,0.56315,45.099
340,0.564817,45.67
341,0.566483,45.67
342,0.56815,46.3
343,0.569817,47.052
344,0.571483,47.929
345,0.57315,47.929
346,0.574817,48.92
347,0.576483,50.019
348,0.5781500000000001,51.237
349,0.5798,51.237
350,0.581483,52.577
351,0.583183,54.041
352,0.5848,55.707
353,0.586467,55.707
354,0.588133,57.548
355,0.5898,59.58
356,0.591467,61.767
357,0.593133,61.767
358,0.59485,64.14700000000001
359,0.596467,66.718
360,0.598133,66.718
361,0.5998,69.47799999999999
362,0.601467,72.489
363,0.603133,75.709
364,0.6048,75.709
365,0.606467,79.158
366,0.608133,82.88
367,0.6098,86.91200000000001
368,0.611467,86.91200000000001
369,0.613133,91.205
370,0.6148,95.83199999999999
371,0.616467,100.814
372,0.618133,100.814
373,0.6198,106.127
374,0.621467,111.868
375,0.623133,111.868
376,0.6248,117.996
377,0.626467,124.592
378,0.62825,131.655
379,0.6298,131.655
380,0.631467,139.24
381,0.6331329999999999,147.415
382,0.6348,156.204
383,0.636467,156.204
384,0.638117,165.626
385,0.639783,175.725
386,0.64145,186.563
387,0.643117,186.563
388,0.644783,198.133
389,0.64645,210.59
390,0.6481170000000001,210.59
391,0.649783,223.949
392,0.65145,238.261
393,0.6531169999999999,253.566
394,0.654783,253.566
395,0.65645,269.882
396,0.658117,287.23
397,0.659783,305.627
398,0.66145,305.627
399,0.663117,325.117
400,0.664783,345.692
401,0.66645,367.389
402,0.668117,367.389
403,0.669783,390.164
404,0.67145,413.977
405,0.673117,438.83
406,0.674783,438.83
407,0.67645,464.635
408,0.678117,491.38
409,0.679783,491.38
410,0.68145,518.998
411,0.683117,547.429
412,0.684783,576.583
413,0.68645,576.583
414,0.688117,606.335
415,0.689783,636.564
416,0.69145,667.138
417,0.693117,667.138
418,0.694783,697.923
419,0.69645,728.84
420,0.698117,759.792
421,0.699783,759.792
422,0.701433,790.6
423,0.7030999999999999,821.1609999999999
424,0.704767,821.1609999999999
425,0.706433,851.253
426,0.7081,880.674
427,0.709767,909.2859999999999
428,0.711433,909.2859999999999
429,0.713133,936.909
430,0.714767,963.432
431,0.716433,988.771
432,0.7181,988.771
433,0.719767,1012.74
434,0.721433,1035.2
435,0.7231,1055.94
436,0.7248,1055.94
437,0.726433,1074.785
438,0.7281,1091.63
439,0.72985,1106.38
440,0.731433,1106.38
441,0.7331,1119.056
442,0.7347669999999999,1129.652
443,0.736433,1129.652
444,0.7381,1138.11
445,0.739767,1144.438
446,0.741433,1148.523
447,0.7431,1148.523
448,0.744767,1150.298
449,0.74655,1149.83
450,0.7481,1147.1
451,0.749767,1147.1
452,0.751433,1142.155
453,0.7531,1135.037
454,0.754767,1125.767
455,0.756433,1125.767
456,0.7581,1114.442
457,0.75975,1101.227
458,0.761417,1101.227
459,0.763083,1086.292
460,0.76475,1069.779
461,0.766417,1051.788
462,0.768083,1051.788
463,0.76975,1032.486
464,0.771417,1011.963
465,0.773083,990.381
466,0.774733,990.381
467,0.7764,967.931
468,0.778067,944.67
469,0.779733,920.761
470,0.7814,920.761
471,0.783067,896.308
472,0.784733,871.4589999999999
473,0.7864,846.343
474,0.788067,846.343
475,0.789733,821.059
476,0.7914,795.753
477,0.793067,795.753
478,0.794733,770.491
479,0.7964,745.426
480,0.798083,720.691
481,0.799733,720.691
482,0.8014,696.373
483,0.803083,672.537
484,0.804733,649.188
485,0.8064,649.188
486,0.808067,626.362
487,0.809733,604.092
488,0.8114,582.417
489,0.813067,582.417
490,0.814733,561.375
491,0.8164,540.995
492,0.8180500000000001,540.995
493,0.819717,521.26
494,0.821383,502.169
495,0.8230499999999999,483.744
496,0.824717,483.744
497,0.826383,465.962
498,0.82805,448.814
499,0.829717,432.331
500,0.831383,432.331
501,0.83305,416.505
502,0.834717,401.395
503,0.836383,386.938
504,0.83805,386.938
505,0.839717,373.135
506,0.841383,359.961
507,0.84305,359.961
508,0.8447170000000001,347.301
509,0.846383,335.223
510,0.848117,323.635
511,0.8497169999999999,323.635
512,0.851383,312.559
513,0.85305,301.988
514,0.8547169999999999,291.842
515,0.856383,291.842
516,0.85805,282.167
517,0.859717,272.907
518,0.861383,264.034
519,0.86305,264.034
520,0.8648169999999999,255.587
521,0.866383,247.508
522,0.86805,239.81
523,0.869717,239.81
524,0.871383,232.447
525,0.87305,225.417
526,0.874717,225.417
527,0.876383,218.693
528,0.878067,212.215
529,0.879717,206.038
530,0.881383,206.038
531,0.883033,200.158
532,0.8847,194.531
533,0.886367,189.185
534,0.888033,189.185
535,0.8897,184.058
536,0.891367,179.128
537,0.893033,174.464
538,0.8947000000000001,174.464
539,0.896367,169.982
540,0.898033,165.726
541,0.8997000000000001,165.726
542,0.901367,161.622
543,0.903033,157.647
544,0.9046999999999999,153.806
545,0.906367,153.806
546,0.908033,150.112
547,0.9097,146.589
548,0.911367,143.231
549,0.913033,143.231
550,0.9147,140.054
551,0.916367,136.95
552,0.918033,133.964
553,0.9197,133.964
554,0.921367,131.062
555,0.923033,128.262
556,0.9247,125.618
557,0.9263670000000001,125.618
558,0.928033,123.084
559,0.9297,120.608
560,0.9313669999999999,120.608
561,0.933033,118.243
562,0.9347,115.973
563,0.9363669999999999,113.755
564,0.938033,113.755
565,0.939683,111.684
566,0.94135,109.667
567,0.9430500000000001,107.688
568,0.9446830000000001,107.688
569,0.94635,105.817
570,0.948017,103.971
571,0.949717,102.184
572,0.95135,102.184
573,0.953017,100.494
574,0.9546829999999999,98.82299999999999
575,0.95635,98.82299999999999
576,0.958017,97.23099999999999
577,0.959683,95.691
578,0.96135,94.20099999999999
579,0.963017,94.20099999999999
580,0.964683,92.78400000000001
581,0.966417,91.41
582,0.968017,90.08499999999999
583,0.969683,90.08499999999999
584,0.97135,88.774
585,0.973017,87.508
586,0.974683,86.28
587,0.9763500000000001,86.28
588,0.978017,85.099
589,0.979683,83.97
590,0.9813499999999999,82.845
591,0.983083,82.845
592,0.984683,81.771
593,0.9863499999999999,80.742
594,0.988017,80.742
595,0.989683,79.747
596,0.99135,78.825
597,0.993017,77.943
598,0.994683,77.943
599,0.99635,77.03700000000001
600,0.998017,76.181
601,0.999667,75.298
602,1.001333,75.298
603,1.003,74.42100000000001
604,1.004667,73.608
605,1.006333,72.797
606,1.008,72.797
607,1.009667,72.023
608,1.011333,71.28
609,1.013,71.28
610,1.014667,70.56699999999999
611,1.016333,69.88
612,1.018,69.238
613,1.019667,69.238
614,1.021333,68.623
615,1.02305,67.995
616,1.024667,67.396
617,1.026333,67.396
618,1.028,66.783
619,1.029667,66.191
620,1.03135,65.62
621,1.033,65.62
622,1.034667,65.032
623,1.036333,64.49299999999999
624,1.038,63.933
625,1.039667,63.933
626,1.041333,63.418
627,1.043,62.906
628,1.044667,62.906
629,1.046333,62.438
630,1.048,61.987
631,1.049667,61.525
632,1.051333,61.525
633,1.053,61.064
634,1.054667,60.596
635,1.056333,60.143
636,1.058,60.143
637,1.05965,59.707
638,1.061317,59.307
639,1.062983,58.912
640,1.06465,58.912
641,1.0663,58.527
642,1.067967,58.152
643,1.069633,58.152
644,1.0713,57.817
645,1.072967,57.466
646,1.074633,57.161
647,1.0763,57.161
648,1.077967,56.843
649,1.079633,56.5
650,1.0813,56.203
651,1.082967,56.203
652,1.084717,55.862
653,1.0863,55.529
654,1.087967,55.267
655,1.089633,55.267
656,1.091317,54.934
657,1.092967,54.633
658,1.094633,54.633
659,1.0963,54.35
660,1.097967,54.049
661,1.099633,53.763
662,1.10135,53.763
663,1.102967,53.509
664,1.104633,53.271
665,1.1063,53.013
666,1.107967,53.013
667,1.109633,52.775
668,1.1113,52.54
669,1.112967,52.31
670,1.114633,52.31
671,1.1163,52.081
672,1.118067,51.901
673,1.119617,51.675
674,1.121283,51.675
675,1.12295,51.465
676,1.124617,51.288
677,1.126283,51.288
678,1.12795,51.083
679,1.129617,50.917
680,1.131283,50.706
681,1.13295,50.706
682,1.134617,50.483
683,1.136283,50.28
684,1.13795,50.099
685,1.139617,50.099
686,1.141283,49.923
687,1.14295,49.746
688,1.144617,49.585
689,1.146283,49.585
690,1.14795,49.381
691,1.149617,49.232
692,1.151283,49.232
693,1.15295,49.099
694,1.154617,48.922
695,1.156283,48.769
696,1.15795,48.769
697,1.159617,48.622
698,1.161283,48.474
699,1.163,48.34
700,1.164617,48.34
701,1.166283,48.228
702,1.16795,48.056
703,1.169617,47.895
704,1.171283,47.895
705,1.172967,47.754
706,1.174617,47.611
707,1.176283,47.516
708,1.177933,47.516
709,1.1796,47.393
710,1.181267,47.287
711,1.182933,47.287
712,1.1846,47.147
713,1.186267,47.022
714,1.187933,46.908
715,1.1896,46.908
716,1.191267,46.774
717,1.192933,46.674
718,1.1946,46.541
719,1.196267,46.541
720,1.197933,46.447
721,1.1996,46.373
722,1.201267,46.276
723,1.202933,46.276
724,1.2046,46.2
725,1.206283,46.094
726,1.207933,46.094
727,1.2096,45.967
728,1.211267,45.85
729,1.212933,45.725
730,1.2146,45.725
731,1.216267,45.606
732,1.217933,45.521
733,1.2196,45.462
734,1.221267,45.462
735,1.222933,45.389
736,1.2246,45.338
737,1.226267,45.27
738,1.227933,45.27
739,1.2296,45.169
740,1.231267,45.081
741,1.232933,45.081
742,1.2346,45.007
743,1.236367,44.927
744,1.237933,44.836
745,1.239583,44.836
746,1.241283,44.756
747,1.242917,44.639
748,1.244583,44.519
749,1.24625,44.519
750,1.247917,44.426
751,1.249583,44.397
752,1.25125,44.344
753,1.252917,44.344
754,1.254583,44.282
755,1.25625,44.232
756,1.257917,44.12
757,1.259583,44.12
758,1.26125,44.062
759,1.262917,44.017
760,1.2646,44.017
761,1.26625,43.952
762,1.267917,43.892
763,1.269583,43.836
764,1.27125,43.836
765,1.272917,43.769
766,1.274583,43.725
767,1.27625,43.676
768,1.277917,43.676
769,1.279583,43.583
770,1.28125,43.532
771,1.282917,43.494
772,1.284583,43.494
773,1.28625,43.412
774,1.287917,43.359
775,1.289583,43.359
776,1.29125,43.304
777,1.292917,43.218
778,1.294583,43.198
779,1.29625,43.198
780,1.2979,43.143
781,1.299567,43.087
782,1.301233,43.035
783,1.3029,43.035
784,1.304567,42.996
785,1.306233,43.005
786,1.3079,42.988
787,1.309617,42.988
788,1.311233,42.938
789,1.3129,42.862
790,1.314567,42.764
791,1.316233,42.764
792,1.3179,42.655
793,1.319567,42.599
794,1.32125,42.599
795,1.3229,42.572
796,1.324567,42.551
797,1.326233,42.555
798,1.3279,42.555
799,1.329567,42.553
800,1.331233,42.513
801,1.3329,42.439
802,1.334567,42.439
803,1.336233,42.396
804,1.3379,42.332
805,1.339567,42.27
806,1.341233,42.27
807,1.3429,42.231
808,1.344567,42.184
809,1.346233,42.184
810,1.3479,42.138
811,1.349567,42.106
812,1.351233,42.088
813,1.3529,42.088
814,1.354583,42.044
815,1.356233,42.014
816,1.357883,41.976
817,1.359533,41.976
818,1.3612,41.929
819,1.362867,41.904
820,1.364533,41.883
821,1.3662,41.883
822,1.367867,41.866
823,1.369533,41.848
824,1.3712,41.798
825,1.372867,41.798
826,1.374533,41.775
827,1.3762,41.756
828,1.377867,41.756
829,1.379533,41.725
830,1.381217,41.734
831,1.3829,41.675
832,1.384533,41.675
833,1.3862,41.612
834,1.387867,41.589
835,1.389533,41.564
836,1.3912,41.564
837,1.392867,41.582
838,1.394533,41.585
839,1.3962,41.568
840,1.397867,41.568
841,1.399533,41.515
842,1.4012,41.451
843,1.402867,41.451
844,1.404533,41.419
845,1.4062,41.353
846,1.407867,41.321
847,1.409533,41.321
848,1.4112,41.284
849,1.412867,41.22
850,1.414533,41.196
851,1.4162,41.196
852,1.41785,41.161
853,1.419517,41.127
854,1.421183,41.145
855,1.42285,41.145
856,1.424517,41.156
857,1.426183,41.133
858,1.42785,41.133
859,1.429533,41.121
860,1.431183,41.053
861,1.43285,40.992
862,1.434517,40.992
863,1.436183,40.971
864,1.43785,40.943
865,1.4396,40.935
866,1.441183,40.935
867,1.44285,40.91
868,1.444517,40.913
869,1.446183,40.89
870,1.44785,40.89
871,1.449517,40.863
872,1.451183,40.868
873,1.45285,40.837
874,1.454517,40.837
875,1.456183,40.832
876,1.457867,40.817
877,1.459517,40.817
878,1.461183,40.765
879,1.46285,40.719
880,1.464517,40.683
881,1.466183,40.683
882,1.46785,40.665
883,1.469517,40.641
884,1.471183,40.621
885,1.47295,40.621
886,1.474517,40.584
887,1.476183,40.554
888,1.47785,40.568
889,1.4795,40.568
890,1.481167,40.558
891,1.482833,40.579
892,1.4845,40.579
893,1.486167,40.58
894,1.487833,40.551
895,1.4895,40.539
896,1.491167,40.539
897,1.492833,40.497
898,1.4945,40.461
899,1.496167,40.447
900,1.497833,40.447
901,1.4995,40.436
902,1.501167,40.426
903,1.502833,40.413
904,1.5045,40.413
905,1.506167,40.386
906,1.507833,40.354
907,1.5095,40.34
908,1.511167,40.34
909,1.512833,40.323
910,1.5145,40.337
911,1.516167,40.337
912,1.517833,40.326
913,1.5195,40.288
914,1.521167,40.279
915,1.522833,40.279
916,1.5245,40.243
917,1.526167,40.238
918,1.52785,40.247
919,1.5295,40.247
920,1.531167,40.24
921,1.532833,40.211
922,1.5345,40.187
923,1.536167,40.187
924,1.537833,40.165
925,1.539483,40.147
926,1.54115,40.147
927,1.542817,40.141
928,1.544483,40.126
929,1.54615,40.116
930,1.547817,40.116
931,1.549483,40.101
932,1.55115,40.095
933,1.552817,40.071
934,1.554483,40.071
935,1.55615,40.041
936,1.557867,40.008
937,1.559483,39.984
938,1.56115,39.984
939,1.562817,39.972
940,1.564483,39.957
941,1.56615,39.951
942,1.567817,39.951
943,1.569483,39.943
944,1.57115,39.973
945,1.572817,39.973
946,1.574483,39.995
947,1.57615,39.982
948,1.577817,39.978
949,1.579483,39.978
950,1.58115,39.934
951,1.582817,39.901
952,1.584483,39.899
953,1.58615,39.899
954,1.587817,39.87
955,1.589483,39.858
956,1.591217,39.864
957,1.592817,39.864
958,1.594483,39.869
959,1.59615,39.861
960,1.597817,39.861
961,1.599467,39.838
962,1.601133,39.805
963,1.6028,39.774
964,1.6045,39.774
965,1.606183,39.771
966,1.6078,39.759
967,1.609483,39.729
968,1.611133,39.729
969,1.6128,39.723
970,1.614467,39.739
971,1.616133,39.76
972,1.6178,39.76
973,1.619467,39.76
974,1.621133,39.749
975,1.6228,39.714
976,1.624467,39.714
977,1.626133,39.654
978,1.6278,39.663
979,1.629467,39.663
980,1.631133,39.641
981,1.6328,39.636
982,1.634467,39.668
983,1.636133,39.668
984,1.6378,39.639
985,1.639467,39.639
986,1.641133,39.601
987,1.6428,39.601
988,1.644467,39.592
989,1.646133,39.595
990,1.6478,39.575
991,1.64945,39.575
992,1.651117,39.582
993,1.652783,39.554
994,1.65445,39.554
995,1.656117,39.551
