"ID","sea_time","fid_signal"
1,0,141.516
2,0.001667,141.516
3,0.003333,141.792
4,0.005,141.785
5,0.006667,141.785
6,0.008333,141.762
7,0.01,141.524
8,0.011667,141.121
9,0.013333,141.121
10,0.015,141.121
11,0.016667,141.419
12,0.018333,141.703
13,0.0201,141.703
14,0.021667,141.986
15,0.023333,142.09
16,0.025,142.016
17,0.026667,142.016
18,0.028333,142.142
19,0.03,142.053
20,0.031667,142.179
21,0.033317,142.179
22,0.034983,142.343
23,0.03665,142.209
24,0.038317,142.209
25,0.039983,142.06
26,0.04165,142.038
27,0.043317,141.77
28,0.044983,141.77
29,0.04665,141.688
30,0.048317,141.643
31,0.049983,141.419
32,0.05165,141.419
33,0.053317,141.487
34,0.054983,141.539
35,0.05665,141.665
36,0.058317,141.665
37,0.059983,141.747
38,0.06165,141.636
39,0.063317,141.636
40,0.064983,141.844
41,0.06665,141.807
42,0.068317,141.732
43,0.069983,141.732
44,0.07165000000000001,142.105
45,0.07331699999999999,142.03
46,0.07498299999999999,142.254
47,0.0767,142.254
48,0.078317,142.485
49,0.079983,142.157
50,0.08165,142.209
51,0.083317,142.209
52,0.084983,142.209
53,0.08665,142.321
54,0.08831700000000001,142.492
55,0.08998299999999999,142.492
56,0.09165,142.44
57,0.09329999999999999,142.232
58,0.094967,142.232
59,0.096633,141.956
60,0.098317,141.755
61,0.099967,141.881
62,0.101633,141.881
63,0.1033,142.135
64,0.104967,142.135
65,0.106633,142.232
66,0.1083,142.232
67,0.109967,142.261
68,0.111633,141.911
69,0.1133,141.889
70,0.114967,141.889
71,0.116633,141.829
72,0.1183,141.844
73,0.119967,141.844
74,0.121683,142.135
75,0.1233,142.373
76,0.124967,142.545
77,0.126633,142.545
78,0.1283,142.425
79,0.129967,142.187
80,0.131633,142.105
81,0.1333,142.105
82,0.134967,142.105
83,0.136633,142.299
84,0.1384,142.731
85,0.139967,142.731
86,0.141633,142.649
87,0.1433,142.395
88,0.144967,142.395
89,0.146633,142.246
90,0.1483,141.65
91,0.149967,141.449
92,0.151617,141.449
93,0.153317,141.352
94,0.155067,141.174
95,0.156683,141.338
96,0.158283,141.338
97,0.15995,141.591
98,0.161617,141.971
99,0.163283,142.321
100,0.16495,142.321
101,0.166617,142.343
102,0.168283,142.328
103,0.16995,141.993
104,0.171617,141.993
105,0.173283,141.688
106,0.17495,141.606
107,0.176617,141.606
108,0.178283,141.65
109,0.17995,141.673
110,0.181617,141.688
111,0.183283,141.688
112,0.18495,141.956
113,0.186617,141.77
114,0.188283,141.837
115,0.18995,141.837
116,0.191617,141.695
117,0.193283,141.598
118,0.19495,141.926
119,0.196617,141.926
120,0.198283,141.896
121,0.19995,141.934
122,0.201617,141.934
123,0.203283,141.732
124,0.20495,141.583
125,0.206617,141.487
126,0.208283,141.487
127,0.20995,141.434
128,0.211617,141.717
129,0.213267,141.74
130,0.214933,141.74
131,0.2166,142.053
132,0.218267,142.381
133,0.219933,142.336
134,0.221617,142.336
135,0.223267,142.559
136,0.224933,142.202
137,0.2266,141.807
138,0.228267,141.807
139,0.229933,141.807
140,0.2316,141.345
141,0.233267,141.345
142,0.234933,141.479
143,0.2366,141.583
144,0.238267,141.621
145,0.240017,141.621
146,0.2416,141.755
147,0.243267,141.762
148,0.244933,141.807
149,0.2466,141.807
150,0.24825,141.665
151,0.249917,141.867
152,0.251583,141.889
153,0.25325,141.889
154,0.254917,142.224
155,0.256667,142.381
156,0.25825,142.381
157,0.259917,142.351
158,0.261583,142.314
159,0.26325,141.993
160,0.264917,141.993
161,0.266583,141.881
162,0.26825,141.993
163,0.269917,142.135
164,0.271567,142.135
165,0.273367,142.477
166,0.2749,142.403
167,0.276567,142.522
168,0.278233,142.522
169,0.2799,142.649
170,0.281567,142.485
171,0.283233,142.686
172,0.2849,142.686
173,0.286567,142.209
174,0.288233,142.276
175,0.2899,142.276
176,0.291567,142.515
177,0.293233,142.992
178,0.2949,143.759
179,0.296567,143.759
180,0.298233,144.511
181,0.2999,145.718
182,0.301567,147.38
183,0.303233,147.38
184,0.3049,149.608
185,0.306567,152.305
186,0.308233,155.643
187,0.309917,155.643
188,0.311567,159.36
189,0.313233,164.174
190,0.3149,164.174
191,0.316567,170.35
192,0.318233,177.488
193,0.3199,186.346
194,0.321567,186.346
195,0.323233,196.509
196,0.3249,207.871
197,0.326567,220.738
198,0.328233,220.738
199,0.3299,235.289
200,0.33155,251.427
201,0.333217,269.234
202,0.334883,269.234
203,0.33655,288.695
204,0.338217,309.505
205,0.339883,309.505
206,0.34155,332.199
207,0.343217,356.436
208,0.344883,382.066
209,0.34655,382.066
210,0.348217,409.313
211,0.349883,438.005
212,0.35155,468.068
213,0.353217,468.068
214,0.354883,499.971
215,0.35655,533.745
216,0.358267,569.306
217,0.359883,569.306
218,0.36155,606.7380000000001
219,0.363233,646.42
220,0.364883,687.726
221,0.36655,687.726
222,0.368217,731.0359999999999
223,0.369883,777.006
224,0.37155,777.006
225,0.373217,825.629
226,0.374917,877.432
227,0.37655,932.328
228,0.378217,932.328
229,0.379883,990.853
230,0.38155,1053.266
231,0.383217,1120.508
232,0.384883,1120.508
233,0.38655,1193.024
234,0.388217,1271.106
235,0.389883,1355.246
236,0.391667,1355.246
237,0.3932,1446.143
238,0.394867,1544.788
239,0.396533,1544.788
240,0.3982,1651.883
241,0.399867,1767.643
242,0.40155,1892.068
243,0.4032,1892.068
244,0.404867,2024.651
245,0.406533,2164.856
246,0.4082,2312.079
247,0.409867,2312.079
248,0.411533,2464.026
249,0.4132,2619.438
250,0.414867,2775.49
251,0.416533,2775.49
252,0.4182,2929.516
253,0.419867,3079.362
254,0.421533,3221.221
255,0.4232,3221.221
256,0.424867,3352.717
257,0.426533,3469.929
258,0.4282,3469.929
259,0.429867,3570.207
260,0.431533,3651.492
261,0.4332,3711.06
262,0.434867,3711.06
263,0.436533,3748.216
264,0.438217,3762.029
265,0.439867,3751.926
266,0.441533,3751.926
267,0.4432,3718.406
268,0.444867,3662.34
269,0.446533,3584.989
270,0.4482,3584.989
271,0.449867,3488.503
272,0.451517,3375.262
273,0.453183,3375.262
274,0.45485,3247.641
275,0.456517,3108.256
276,0.458183,2959.87
277,0.45985,2959.87
278,0.461517,2805.233
279,0.463183,2646.461
280,0.46485,2486.341
281,0.466517,2486.341
282,0.468183,2327.047
283,0.46985,2170.198
284,0.471517,2017.774
285,0.473183,2017.774
286,0.47485,1870.774
287,0.476567,1729.973
288,0.478183,1596.279
289,0.47985,1596.279
290,0.481517,1470.007
291,0.483183,1352.079
292,0.48485,1352.079
293,0.486517,1242.094
294,0.488183,1140.378
295,0.48985,1046.985
296,0.491517,1046.985
297,0.493183,961.162
298,0.49485,882.551
299,0.496517,811.1
300,0.498183,811.1
301,0.49985,746.153
302,0.501517,687.428
303,0.503183,635.0650000000001
304,0.50485,635.0650000000001
305,0.506517,587.501
306,0.5081830000000001,544.801
307,0.5099669999999999,506.468
308,0.5115,506.468
309,0.513167,471.994
310,0.514867,441.283
311,0.5165,441.283
312,0.518167,414.066
313,0.519833,389.636
314,0.5215,367.701
315,0.523167,367.701
316,0.524833,348.032
317,0.5265,330.351
318,0.5281670000000001,314.437
319,0.529833,314.437
320,0.5315,300.258
321,0.5331669999999999,287.503
322,0.534833,276.29
323,0.5365,276.29
324,0.538167,266.179
325,0.539817,257.44
326,0.541483,257.44
327,0.54315,249.475
328,0.544817,241.891
329,0.5464830000000001,235.051
330,0.54815,235.051
331,0.549817,228.688
332,0.5514829999999999,223.152
333,0.55315,218.123
334,0.554817,218.123
335,0.5564829999999999,213.802
336,0.55815,209.905
337,0.559817,206.195
338,0.561483,206.195
339,0.563167,202.879
340,0.564817,199.571
341,0.566483,199.571
342,0.56815,196.613
343,0.569817,194.065
344,0.5714669999999999,191.547
345,0.573133,191.547
346,0.5748,189.289
347,0.576467,187.114
348,0.578133,185.125
349,0.5798,185.125
350,0.5815,183.664
351,0.583133,182.047
352,0.5848,180.416
353,0.586467,180.416
354,0.588133,178.963
355,0.5898,177.577
356,0.591467,177.577
357,0.593133,176.556
358,0.5948,175.431
359,0.596467,174.381
360,0.598133,174.381
361,0.5998,173.166
362,0.601467,172.302
363,0.603133,171.788
364,0.6048,171.788
365,0.606467,170.842
366,0.608133,170.015
367,0.6098,168.897
368,0.611467,168.897
369,0.613133,167.929
370,0.6148,167.206
371,0.616467,166.625
372,0.618133,166.625
373,0.6198,166.044
374,0.621467,165.44
375,0.623133,165.44
376,0.6248,165.023
377,0.626467,164.621
378,0.62815,164.233
379,0.6298,164.233
380,0.631467,163.764
381,0.633117,163.205
382,0.634783,162.408
383,0.63645,162.408
384,0.638117,161.983
385,0.639783,161.409
386,0.64145,161.171
387,0.643117,161.171
388,0.644783,161.231
389,0.64645,161.082
390,0.6481170000000001,161.082
391,0.649783,160.687
392,0.65145,160.269
393,0.6531169999999999,159.837
394,0.654783,159.837
395,0.656467,159.226
396,0.658117,159.167
397,0.659783,158.742
398,0.66145,158.742
399,0.663117,158.407
400,0.664783,158.265
401,0.66645,157.9
402,0.668117,157.9
403,0.669783,157.602
404,0.67145,157.326
405,0.673117,156.85
406,0.674783,156.85
407,0.67645,156.41
408,0.678117,156.209
409,0.679783,156.209
410,0.68145,155.941
411,0.683117,155.993
412,0.684783,155.59
413,0.68645,155.59
414,0.688117,155.3
415,0.689783,155.084
416,0.69145,154.898
417,0.6931,154.898
418,0.694767,155.047
419,0.696433,154.994
420,0.6981000000000001,154.831
421,0.699767,154.831
422,0.701433,154.197
423,0.7030999999999999,153.765
424,0.704767,153.765
425,0.706433,153.475
426,0.7081,153.117
427,0.709767,153.422
428,0.711433,153.422
429,0.713133,153.348
430,0.714767,153.504
431,0.716433,153.854
432,0.7181,153.854
433,0.719767,153.586
434,0.721433,153.43
435,0.7231,153.057
436,0.7247670000000001,153.057
437,0.726433,152.506
438,0.7281,152.573
439,0.729783,152.491
440,0.731433,152.491
441,0.7331,152.275
442,0.7347669999999999,152.58
443,0.736433,152.58
444,0.7381,152.402
445,0.739767,152.312
446,0.741433,152.253
447,0.7431,152.253
448,0.744767,151.865
449,0.746533,151.649
450,0.7481,151.53
451,0.749767,151.53
452,0.751417,151.716
453,0.7530829999999999,151.657
454,0.75475,151.739
455,0.756417,151.739
456,0.758083,151.694
457,0.75975,151.441
458,0.761417,151.441
459,0.763083,151.403
460,0.76475,151.299
461,0.766417,151.269
462,0.768083,151.269
463,0.76975,151.142
464,0.771417,151.068
465,0.773083,150.755
466,0.77475,150.755
467,0.776417,150.718
468,0.778083,150.591
469,0.7797500000000001,150.189
470,0.781417,150.189
471,0.783083,150.04
472,0.7847499999999999,149.727
473,0.786417,149.727
474,0.788083,149.846
475,0.78975,149.786
476,0.791417,149.541
477,0.793083,149.541
478,0.79475,149.66
479,0.796417,149.332
480,0.798083,149.548
481,0.79975,149.548
482,0.801417,149.757
483,0.803083,149.511
484,0.80475,149.25
485,0.8064170000000001,149.25
486,0.808083,149.041
487,0.80975,148.878
488,0.8114,148.93
489,0.8131,148.93
490,0.814733,149.406
491,0.8164,149.384
492,0.818067,149.384
493,0.819733,149.153
494,0.8214,148.922
495,0.823067,148.43
496,0.824733,148.43
497,0.8264,148.512
498,0.828067,148.408
499,0.8297330000000001,148.393
500,0.83145,148.393
501,0.83305,148.699
502,0.834717,148.401
503,0.836383,148.498
504,0.83805,148.498
505,0.839717,148.475
506,0.841383,148.192
507,0.84305,148.192
508,0.8447170000000001,148.304
509,0.846383,148.17
510,0.84805,148.125
511,0.8497169999999999,148.125
512,0.851383,147.954
513,0.85305,147.574
514,0.8547169999999999,147.425
515,0.856383,147.425
516,0.85805,147.425
517,0.859717,147.328
518,0.861383,147.544
519,0.86305,147.544
520,0.864833,147.581
521,0.866383,147.171
522,0.86805,147.238
523,0.869717,147.238
524,0.871367,147.127
525,0.8730329999999999,147.209
526,0.8747,147.209
527,0.876367,147.589
528,0.87805,147.693
529,0.8797,147.685
530,0.881367,147.685
531,0.883033,147.559
532,0.8847,147.663
533,0.886367,147.685
534,0.888033,147.685
535,0.8897,147.425
536,0.891367,147.521
537,0.893033,147.179
538,0.8947000000000001,147.179
539,0.896367,146.918
540,0.898033,147.022
541,0.8997000000000001,147.022
542,0.901367,146.955
543,0.90305,146.911
544,0.9047500000000001,146.843
545,0.906367,146.843
546,0.908033,146.724
547,0.9097,146.464
548,0.911367,146.575
549,0.913033,146.575
550,0.9147,146.65
551,0.916367,146.806
552,0.918033,147
553,0.9197,147
554,0.921367,146.851
555,0.923033,146.806
556,0.9247,146.806
557,0.9263670000000001,146.739
558,0.928033,146.784
559,0.9297,146.873
560,0.93135,146.873
561,0.933017,146.754
562,0.934683,146.568
563,0.93635,146.545
564,0.938017,146.545
565,0.939683,146.27
566,0.94135,146.247
567,0.943017,146.441
568,0.9446830000000001,146.441
569,0.94635,146.359
570,0.948017,146.709
571,0.949733,146.568
572,0.95135,146.568
573,0.953017,146.158
574,0.9546829999999999,145.949
575,0.95635,145.949
576,0.958017,145.726
577,0.959683,145.867
578,0.96135,145.786
579,0.963017,145.786
580,0.964683,145.689
581,0.9664,145.577
582,0.968017,145.346
583,0.969683,145.346
584,0.97135,145.853
585,0.973017,146.009
586,0.974683,145.882
587,0.9763500000000001,145.882
588,0.978017,146.128
589,0.979683,145.83
590,0.9813499999999999,145.83
591,0.9831,145.726
592,0.984683,145.599
593,0.9863499999999999,145.562
594,0.988017,145.562
595,0.9897,145.599
596,0.991333,145.547
597,0.993,145.458
598,0.994667,145.458
599,0.996333,145.212
600,0.998,145.003
601,0.999667,145.152
602,1.001333,145.152
603,1.003,145.592
604,1.004667,145.704
605,1.006333,145.867
606,1.008,145.867
607,1.009667,145.942
608,1.011333,145.555
609,1.013,145.555
610,1.014667,145.547
611,1.016333,145.51
612,1.018,145.257
613,1.019667,145.257
614,1.021333,145.681
615,1.023,145.637
616,1.024667,145.51
617,1.026333,145.51
618,1.028,145.51
619,1.029667,145.175
620,1.031333,144.914
621,1.033,144.914
622,1.034667,144.869
623,1.036333,144.921
624,1.038,144.921
625,1.039667,144.906
626,1.041333,145.368
627,1.043,145.383
628,1.044667,145.383
629,1.046333,145.368
630,1.048,145.309
631,1.049667,144.906
632,1.051317,144.906
633,1.052983,144.899
634,1.05465,144.862
635,1.056317,145.011
636,1.057983,145.011
637,1.05965,145.078
638,1.061317,144.996
639,1.062983,144.914
640,1.06465,144.914
641,1.066317,144.713
642,1.068033,144.705
643,1.069667,144.705
644,1.071317,144.698
645,1.072983,144.683
646,1.07465,144.638
647,1.076317,144.638
648,1.077983,144.72
649,1.07965,144.899
650,1.081317,144.929
651,1.082983,144.929
652,1.084717,145.249
653,1.086317,145.279
654,1.087983,145.338
655,1.08965,145.338
656,1.091317,145.495
657,1.092983,145.286
658,1.09465,145.286
659,1.096317,145.286
660,1.097983,145.458
661,1.09965,145.264
662,1.1014,145.264
663,1.102983,144.921
664,1.10465,144.564
665,1.106317,144.087
666,1.107983,144.087
667,1.10965,144.064
668,1.1113,144.191
669,1.112967,144.377
670,1.114633,144.377
671,1.1163,144.377
672,1.118083,144.4
673,1.119633,144.802
674,1.1213,144.802
675,1.12295,144.944
676,1.124617,145.048
677,1.126283,145.048
678,1.12795,144.847
679,1.129617,144.348
680,1.131283,144.273
681,1.13295,144.273
682,1.134617,144.124
683,1.136283,144.213
684,1.13795,144.154
685,1.139617,144.154
686,1.141283,144.109
687,1.14295,143.96
688,1.144617,143.99
689,1.146283,143.99
690,1.14795,144.34
691,1.149617,144.392
692,1.151283,144.392
693,1.15295,144.884
694,1.154617,144.921
695,1.1563,144.802
696,1.15795,144.802
697,1.159617,144.75
698,1.161283,144.534
699,1.16295,144.549
700,1.164617,144.549
701,1.166283,144.631
702,1.16795,144.713
703,1.169617,144.675
704,1.171283,144.675
705,1.172933,144.474
706,1.1746,144.243
707,1.176267,144.243
708,1.177933,143.997
709,1.1796,143.893
710,1.181267,144.176
711,1.182933,144.176
712,1.1846,144.258
713,1.186267,144.415
714,1.187933,144.534
715,1.1896,144.534
716,1.191267,144.303
717,1.192933,144.228
718,1.1946,144.258
719,1.196267,144.258
720,1.197933,144.184
721,1.1996,144.012
722,1.201267,143.878
723,1.203,143.878
724,1.2046,143.722
725,1.206267,143.819
726,1.207933,143.819
727,1.2096,143.96
728,1.211267,144.042
729,1.212933,144.035
730,1.2146,144.035
731,1.216267,143.692
732,1.217933,143.819
733,1.219667,144.094
734,1.221267,144.094
735,1.222933,143.826
736,1.2246,143.901
737,1.226267,143.893
738,1.227933,143.893
739,1.2296,143.953
740,1.23125,144.079
741,1.232917,144.079
742,1.234583,144.079
743,1.236367,143.893
744,1.237917,143.744
745,1.239583,143.744
746,1.24125,143.774
747,1.24295,143.811
748,1.244583,143.796
749,1.24625,143.796
750,1.247917,143.498
751,1.249583,143.521
752,1.25125,143.521
753,1.252917,143.521
754,1.254583,143.379
755,1.25625,143.498
756,1.257917,143.468
757,1.259583,143.468
758,1.26125,143.468
759,1.262917,143.565
760,1.264583,143.565
761,1.26625,143.729
762,1.267917,143.953
763,1.269583,144.064
764,1.27125,144.064
765,1.272917,144.452
766,1.274583,144.213
767,1.27625,144.035
768,1.277917,144.035
769,1.279583,143.878
770,1.28125,143.64
771,1.282917,143.528
772,1.284583,143.528
773,1.28625,143.543
774,1.287917,143.856
775,1.289583,143.856
776,1.291233,143.61
777,1.2929,143.751
778,1.294567,143.938
779,1.296233,143.938
780,1.2979,143.826
781,1.299567,143.893
782,1.301233,143.871
783,1.3029,143.871
784,1.304567,143.543
785,1.306233,143.312
786,1.307917,143.558
787,1.309567,143.558
788,1.311233,143.722
789,1.3129,144.072
790,1.314567,144.362
791,1.316233,144.362
792,1.3179,144.124
793,1.319567,144.251
794,1.321283,144.251
795,1.3229,144.042
796,1.324567,143.833
797,1.326233,143.863
798,1.3279,143.863
799,1.329567,143.953
800,1.331233,144.154
801,1.3329,144.37
802,1.334567,144.37
803,1.336233,144.489
804,1.337917,144.161
805,1.339567,143.699
806,1.341233,143.699
807,1.3429,143.61
808,1.344567,143.528
809,1.346233,143.528
810,1.3479,143.386
811,1.349567,143.275
812,1.351217,143.215
813,1.352883,143.215
814,1.354667,143.155
815,1.356217,143.29
816,1.357883,143.737
817,1.35955,143.737
818,1.361217,143.453
819,1.362883,143.304
820,1.36455,143.29
821,1.366217,143.29
822,1.367883,143.364
823,1.36955,143.774
824,1.371217,143.774
825,1.372883,143.811
826,1.37455,143.707
827,1.376217,143.461
828,1.377883,143.461
829,1.3796,143.208
830,1.381217,143.632
831,1.382883,143.923
832,1.38455,143.923
833,1.386217,144.124
834,1.387883,144.34
835,1.38955,144.251
836,1.391217,144.251
837,1.392883,144.288
838,1.39455,144.042
839,1.396217,143.699
840,1.397883,143.699
841,1.39955,143.409
842,1.401217,143.185
843,1.4029,143.185
844,1.40455,143.29
845,1.406217,143.312
846,1.407883,143.215
847,1.40955,143.215
848,1.4112,143.036
849,1.412867,142.82
850,1.414517,142.82
851,1.416183,142.82
852,1.41785,142.969
853,1.419517,142.895
854,1.421183,142.969
855,1.42285,142.969
856,1.424517,142.753
857,1.426183,142.939
858,1.42785,142.939
859,1.429517,143.014
860,1.431183,142.857
861,1.43285,143.051
862,1.434517,143.051
863,1.436183,142.91
864,1.43785,142.887
865,1.439583,143.059
866,1.441183,143.059
867,1.44285,143.044
868,1.444517,142.984
869,1.446183,143.126
870,1.44785,143.126
871,1.449517,142.999
872,1.451183,142.954
873,1.45285,143.111
874,1.454517,143.111
875,1.456183,143.088
876,1.45785,143.304
877,1.459517,143.304
878,1.461183,143.692
879,1.46285,143.729
880,1.464517,143.908
881,1.466183,143.908
882,1.46785,144.02
883,1.469517,143.558
884,1.471183,143.357
885,1.4729,143.357
886,1.4745,143.059
887,1.476167,142.895
888,1.477833,142.932
889,1.4795,142.932
890,1.481167,143.044
891,1.48285,143.282
892,1.4845,143.282
893,1.486167,143.163
894,1.487833,143.401
895,1.4895,143.386
896,1.491167,143.386
897,1.492833,143.461
898,1.4945,143.647
899,1.496167,143.506
900,1.497833,143.506
901,1.4995,143.558
902,1.501167,143.558
903,1.502833,143.439
904,1.5045,143.439
905,1.506167,143.357
906,1.507833,142.843
907,1.5095,142.82
908,1.511167,142.82
909,1.512833,143.17
910,1.5145,143.535
911,1.516167,143.535
912,1.517833,143.595
913,1.519517,143.163
914,1.521167,142.932
915,1.522833,142.932
916,1.5245,142.545
917,1.526167,142.738
918,1.527833,142.798
919,1.5295,142.798
920,1.53115,142.686
921,1.532817,142.746
922,1.534483,142.902
923,1.53615,142.902
924,1.537817,143.126
925,1.539483,143.036
926,1.54115,143.036
927,1.542817,143.036
928,1.544483,142.872
929,1.54615,142.984
930,1.547817,142.984
931,1.549483,142.969
932,1.55115,142.79
933,1.552817,142.798
934,1.554483,142.798
935,1.55615,142.612
936,1.557867,142.761
937,1.559483,143.051
938,1.56115,143.051
939,1.562817,143.029
940,1.564483,143.275
941,1.56615,143.275
942,1.567817,142.984
943,1.569483,142.917
944,1.57115,143.029
945,1.572817,143.029
946,1.574483,142.463
947,1.57615,142.403
948,1.577817,142.463
949,1.579483,142.463
950,1.58115,142.395
951,1.582817,142.559
952,1.584483,142.649
953,1.58615,142.649
954,1.587817,142.515
955,1.589483,142.373
956,1.591217,142.425
957,1.5928,142.425
958,1.594467,142.641
959,1.596133,142.746
960,1.5978,142.746
