"ID","sea_time","fid_signal"
1,0,37.897
2,0.001667,37.956
3,0.003333,37.971
4,0.004983,37.971
5,0.00665,37.897
6,0.008317,37.745
7,0.010067,37.573
8,0.01165,37.573
9,0.013317,37.461
10,0.014983,37.47
11,0.01665,37.47
12,0.018317,37.575
13,0.019983,37.728
14,0.02165,37.839
15,0.023317,37.839
16,0.024983,37.901
17,0.026733,37.923
18,0.028333,37.912
19,0.029983,37.912
20,0.03165,37.893
21,0.033317,37.878
22,0.034983,37.891
23,0.03665,37.891
24,0.0383,37.893
25,0.039967,37.904
26,0.041633,37.904
27,0.043433,37.918
28,0.044967,37.906
29,0.046633,37.915
30,0.0483,37.915
31,0.049967,37.937
32,0.051633,37.915
33,0.0533,37.934
34,0.054967,37.934
35,0.056633,37.937
36,0.0583,37.922
37,0.059967,37.941
38,0.061633,37.941
39,0.0633,37.946
40,0.064967,37.94
41,0.066633,37.94
42,0.0683,37.926
43,0.069967,37.905
44,0.071633,37.881
45,0.0733,37.881
46,0.07496700000000001,37.909
47,0.07663300000000001,37.914
48,0.07829999999999999,37.899
49,0.079967,37.899
50,0.081633,37.924
51,0.0833,37.908
52,0.084967,37.915
53,0.086633,37.915
54,0.0883,37.933
55,0.08996700000000001,37.901
56,0.09163300000000001,37.891
57,0.09329999999999999,37.891
58,0.094967,37.882
59,0.09661699999999999,37.891
60,0.0983,37.891
61,0.09995,37.903
62,0.10165,37.9
63,0.103283,37.894
64,0.10495,37.894
65,0.106617,37.879
66,0.108283,37.903
67,0.10995,37.923
68,0.111617,37.923
69,0.113283,37.931
70,0.11495,37.945
71,0.116617,37.947
72,0.118283,37.947
73,0.11995,37.937
74,0.121617,37.961
75,0.123283,37.961
76,0.12495,37.964
77,0.126617,37.932
78,0.128333,37.934
79,0.12995,37.934
80,0.131617,37.933
81,0.133283,37.945
82,0.13495,37.947
83,0.136617,37.947
84,0.138283,37.932
85,0.13995,37.902
86,0.141617,37.871
87,0.143283,37.871
88,0.145,37.844
89,0.146617,37.834
90,0.1483,37.859
91,0.14995,37.859
92,0.151617,37.891
93,0.153283,37.933
94,0.15495,37.933
95,0.156617,37.969
96,0.158283,37.948
97,0.159933,37.952
98,0.1617,37.952
99,0.163267,37.962
100,0.164933,37.938
101,0.1666,37.964
102,0.168283,37.964
103,0.169933,37.961
104,0.1716,37.936
105,0.173267,37.964
106,0.174933,37.964
107,0.1766,37.955
108,0.1783,37.953
109,0.179933,37.953
110,0.1816,37.976
111,0.183267,37.97
112,0.184933,37.957
113,0.1866,37.957
114,0.188267,37.94
115,0.189933,37.913
116,0.1916,37.896
117,0.193267,37.896
118,0.194933,37.927
119,0.1966,37.95
120,0.198267,37.973
121,0.199933,37.973
122,0.2016,37.968
123,0.203267,37.935
124,0.204933,37.935
125,0.2066,37.907
126,0.208267,37.915
127,0.209933,37.926
128,0.2116,37.926
129,0.213267,37.926
130,0.214933,37.953
131,0.2166,37.935
132,0.21825,37.935
133,0.219917,37.956
134,0.221583,37.979
135,0.22325,37.982
136,0.224917,37.982
137,0.226583,37.967
138,0.22825,37.932
139,0.229917,37.908
140,0.231583,37.908
141,0.23325,37.901
142,0.234917,37.935
143,0.236583,37.935
144,0.23825,37.966
145,0.239917,37.986
146,0.241583,37.963
147,0.24325,37.963
148,0.24495,37.925
149,0.24665,37.882
150,0.24825,37.855
151,0.249917,37.855
152,0.251583,37.887
153,0.25325,37.897
154,0.254917,37.897
155,0.256583,37.897
156,0.25825,37.904
157,0.259917,37.868
158,0.261583,37.868
159,0.263267,37.87
160,0.264917,37.906
161,0.266583,37.9
162,0.26825,37.9
163,0.269917,37.9
164,0.271583,37.903
165,0.27325,37.909
166,0.274917,37.909
167,0.276583,37.938
168,0.278233,37.983
169,0.280033,37.991
170,0.281567,37.991
171,0.283233,37.961
172,0.2849,37.967
173,0.286567,37.947
174,0.288233,37.947
175,0.2899,37.963
176,0.291567,37.985
177,0.293233,37.985
178,0.2949,38.007
179,0.29655,38.037
180,0.298217,38.09
181,0.299883,38.09
182,0.30155,38.213
183,0.303217,38.373
184,0.304883,38.635
185,0.30655,38.635
186,0.308217,38.985
187,0.309883,39.48
188,0.31155,40.168
189,0.313217,40.168
190,0.314883,41.109
191,0.31655,42.395
192,0.318217,42.395
193,0.319883,44.098
194,0.321567,46.314
195,0.323233,49.132
196,0.324883,49.132
197,0.32655,52.634
198,0.328217,56.969
199,0.329883,62.246
200,0.33155,62.246
201,0.333217,68.557
202,0.334883,76.05
203,0.33655,84.76300000000001
204,0.3382,84.76300000000001
205,0.339867,94.756
206,0.341533,106.177
207,0.3432,106.177
208,0.344867,118.994
209,0.346533,133.237
210,0.3482,148.967
211,0.349867,148.967
212,0.351533,166.074
213,0.3532,184.618
214,0.354867,204.486
215,0.356533,204.486
216,0.3582,225.595
217,0.359867,247.935
218,0.361533,271.39
219,0.3632,271.39
220,0.364867,295.935
221,0.366533,321.501
222,0.3682,348.018
223,0.369867,348.018
224,0.371533,375.459
225,0.3732,403.805
226,0.374867,403.805
227,0.376533,433.01
228,0.3782,463.008
229,0.379867,493.792
230,0.3816,493.792
231,0.3832,525.405
232,0.384867,557.894
233,0.386533,591.346
234,0.3882,591.346
235,0.389867,625.8150000000001
236,0.391533,661.317
237,0.3932,697.934
238,0.394867,697.934
239,0.396533,735.734
240,0.398317,774.777
241,0.39985,774.777
242,0.401517,815.251
243,0.403183,857.3
244,0.40485,901.072
245,0.406517,901.072
246,0.408183,946.7619999999999
247,0.40985,994.504
248,0.411517,1044.521
249,0.413183,1044.521
250,0.41485,1096.924
251,0.416517,1151.95
252,0.418183,1209.717
253,0.41985,1209.717
254,0.421517,1270.257
255,0.423183,1333.676
256,0.42485,1399.849
257,0.426517,1399.849
258,0.428183,1468.544
259,0.42985,1539.387
260,0.431517,1539.387
261,0.433183,1611.877
262,0.43485,1685.315
263,0.436517,1758.779
264,0.438183,1758.779
265,0.43985,1831.26
266,0.441517,1901.477
267,0.443183,1967.958
268,0.44485,1967.958
269,0.446517,2029.372
270,0.448183,2084.173
271,0.44985,2130.853
272,0.451517,2130.853
273,0.453183,2168.076
274,0.45485,2194.601
275,0.456517,2194.601
276,0.458167,2209.402
277,0.459867,2211.83
278,0.4615,2201.514
279,0.463167,2201.514
280,0.464833,2178.366
281,0.4665,2142.63
282,0.468167,2094.914
283,0.46985,2094.914
284,0.4715,2036.231
285,0.473167,1967.673
286,0.474833,1890.628
287,0.4765,1890.628
288,0.478167,1806.52
289,0.479833,1716.761
290,0.4815,1622.911
291,0.483233,1622.911
292,0.484833,1526.47
293,0.4865,1428.907
294,0.488167,1428.907
295,0.489833,1331.568
296,0.4915,1235.555
297,0.493167,1141.956
298,0.494833,1141.956
299,0.4965,1051.585
300,0.498167,965.0890000000001
301,0.499833,883.068
302,0.5014999999999999,883.068
303,0.503167,805.8630000000001
304,0.504833,733.7569999999999
305,0.5065,666.84
306,0.508167,666.84
307,0.509833,605.119
308,0.5115,548.535
309,0.513167,548.535
310,0.514833,496.856
311,0.516617,449.921
312,0.51815,407.432
313,0.519817,407.432
314,0.521483,369.076
315,0.52315,334.615
316,0.524817,303.695
317,0.526483,303.695
318,0.52815,276.057
319,0.529817,251.4
320,0.531483,229.4
321,0.53315,229.4
322,0.534817,209.802
323,0.536517,192.371
324,0.53815,176.869
325,0.539817,176.869
326,0.541483,163.064
327,0.54315,150.803
328,0.544817,150.803
329,0.5464830000000001,139.888
330,0.54815,130.194
331,0.549817,121.588
332,0.5515,121.588
333,0.55315,113.942
334,0.554817,107.113
335,0.5565,100.987
336,0.55815,100.987
337,0.559817,95.53
338,0.561483,90.637
339,0.56315,86.282
340,0.564817,86.282
341,0.566483,82.38200000000001
342,0.56815,78.904
343,0.569817,78.904
344,0.571483,75.771
345,0.57315,72.949
346,0.574817,70.45
347,0.576483,70.45
348,0.578133,68.13200000000001
349,0.5798,66.04000000000001
350,0.581467,64.161
351,0.583133,64.161
352,0.5848,62.453
353,0.586467,60.917
354,0.588117,59.514
355,0.5897829999999999,59.514
356,0.59145,58.229
357,0.593117,57.032
358,0.594783,57.032
359,0.59645,55.975
360,0.598117,55.043
361,0.599783,54.169
362,0.601517,54.169
363,0.603133,53.377
364,0.604783,52.603
365,0.60645,51.89
366,0.608117,51.89
367,0.609783,51.276
368,0.61145,50.706
369,0.613117,50.168
370,0.614783,50.168
371,0.6164500000000001,49.644
372,0.618117,49.158
373,0.619783,48.675
374,0.6214499999999999,48.675
375,0.623117,48.295
376,0.624783,47.939
377,0.62645,47.939
378,0.628117,47.595
379,0.629783,47.266
380,0.63145,46.952
381,0.633117,46.952
382,0.634867,46.673
383,0.636467,46.385
384,0.6381,46.153
385,0.639767,46.153
386,0.641433,45.917
387,0.6431,45.685
388,0.644767,45.485
389,0.646433,45.485
390,0.6481,45.291
391,0.649767,45.06
392,0.651433,45.06
393,0.6531,44.858
394,0.654767,44.679
395,0.656433,44.541
396,0.6581,44.541
397,0.659767,44.423
398,0.661433,44.297
399,0.6631,44.179
400,0.664767,44.179
401,0.6664330000000001,44.031
402,0.6681,43.897
403,0.669767,43.762
404,0.6714329999999999,43.762
405,0.6731,43.598
406,0.674767,43.468
407,0.676433,43.332
408,0.6781,43.332
409,0.679783,43.234
410,0.681433,43.125
411,0.6831,43.125
412,0.684767,42.983
413,0.686433,42.911
414,0.6881,42.809
415,0.689767,42.809
416,0.691433,42.747
417,0.6931,42.693
418,0.694767,42.629
419,0.696433,42.629
420,0.6981000000000001,42.573
421,0.69975,42.5
422,0.701417,42.437
423,0.703083,42.437
424,0.70475,42.345
425,0.706417,42.235
426,0.708083,42.235
427,0.70975,42.184
428,0.711417,42.125
429,0.713083,42.075
430,0.714767,42.075
431,0.716417,42.047
432,0.718083,41.988
433,0.719783,41.93
434,0.721417,41.93
435,0.723083,41.863
436,0.72475,41.775
437,0.726433,41.675
438,0.728083,41.675
439,0.72975,41.604
440,0.731417,41.579
441,0.733083,41.553
442,0.73475,41.553
443,0.736467,41.52
444,0.738083,41.483
445,0.73975,41.483
446,0.741417,41.395
447,0.743083,41.37
448,0.74475,41.348
449,0.746417,41.348
450,0.7480830000000001,41.312
451,0.74975,41.31
452,0.751433,41.239
453,0.753183,41.239
454,0.75475,41.176
455,0.756417,41.097
456,0.758067,41.015
457,0.759733,41.015
458,0.7614,40.951
459,0.7630670000000001,40.913
460,0.764733,40.913
461,0.7664,40.901
462,0.7680670000000001,40.847
463,0.769733,40.84
464,0.7714,40.84
465,0.7730669999999999,40.806
466,0.774733,40.755
467,0.7764,40.735
468,0.778067,40.735
469,0.779733,40.693
470,0.7814,40.662
471,0.783067,40.689
472,0.784733,40.689
473,0.7864,40.696
474,0.788067,40.662
475,0.789733,40.662
476,0.7914,40.626
477,0.793067,40.547
478,0.794733,40.489
479,0.7964,40.489
480,0.798067,40.47
481,0.799733,40.416
482,0.8014,40.396
483,0.803067,40.396
484,0.804733,40.368
485,0.8064,40.357
486,0.808067,40.348
487,0.809733,40.348
488,0.8114,40.326
489,0.813067,40.281
490,0.814733,40.223
491,0.8164,40.223
492,0.8180500000000001,40.177
493,0.819733,40.128
494,0.821383,40.128
495,0.8230499999999999,40.087
496,0.824717,40.046
497,0.826383,40.028
498,0.82805,40.028
499,0.829717,40.027
500,0.831383,40.008
501,0.83305,39.993
502,0.834717,39.993
503,0.836383,39.972
504,0.838067,39.928
505,0.839717,39.912
506,0.841383,39.912
507,0.84305,39.881
508,0.8447170000000001,39.849
509,0.846383,39.849
510,0.84805,39.817
511,0.8497169999999999,39.794
512,0.851383,39.77
513,0.85305,39.77
514,0.8548,39.785
515,0.856383,39.789
516,0.85805,39.791
517,0.859717,39.791
518,0.861383,39.795
519,0.86305,39.763
520,0.864717,39.713
521,0.866383,39.713
522,0.86805,39.697
523,0.869717,39.665
524,0.8714499999999999,39.646
525,0.87305,39.646
526,0.874717,39.667
527,0.876383,39.656
528,0.878017,39.656
529,0.879683,39.634
530,0.88135,39.612
531,0.8830170000000001,39.548
532,0.884683,39.548
533,0.88635,39.493
534,0.8880169999999999,39.494
535,0.889683,39.474
536,0.89135,39.474
537,0.8930169999999999,39.461
538,0.894683,39.469
539,0.896383,39.429
540,0.898017,39.429
541,0.899683,39.434
542,0.901367,39.461
543,0.903017,39.461
544,0.904683,39.44
545,0.90635,39.463
546,0.908017,39.455
547,0.909683,39.455
548,0.91135,39.449
549,0.913017,39.434
550,0.914683,39.402
551,0.91635,39.402
552,0.918017,39.376
553,0.919683,39.341
554,0.92135,39.335
555,0.923017,39.335
556,0.924683,39.323
557,0.92635,39.317
558,0.928017,39.314
559,0.929683,39.314
560,0.93135,39.303
561,0.933017,39.288
562,0.934683,39.288
563,0.93635,39.28
564,0.9379999999999999,39.274
565,0.939667,39.28
566,0.941333,39.28
567,0.9429999999999999,39.3
568,0.944667,39.301
569,0.946333,39.268
570,0.948,39.268
571,0.949667,39.246
572,0.951333,39.197
573,0.953,39.142
574,0.954667,39.142
575,0.956383,39.119
576,0.958,39.093
577,0.959683,39.093
578,0.961383,39.122
579,0.963,39.143
580,0.9646670000000001,39.153
581,0.966333,39.153
582,0.968,39.167
583,0.9696669999999999,39.141
584,0.971333,39.133
585,0.973067,39.133
586,0.974667,39.142
587,0.976333,39.142
588,0.978,39.13
589,0.979667,39.13
590,0.981333,39.101
591,0.983,39.063
592,0.984667,39.063
593,0.986333,39.028
594,0.988,39.005
595,0.989717,39.023
596,0.991333,39.023
597,0.993,39.016
598,0.994667,39.033
599,0.996317,39.035
600,0.997983,39.035
601,0.99965,39.002
602,1.001317,39.001
603,1.002983,39.019
604,1.00465,39.019
605,1.006433,39.023
606,1.007983,39.054
607,1.00965,39.084
608,1.011317,39.084
609,1.012983,39.044
610,1.01465,39.026
611,1.016317,39.026
612,1.017983,38.988
613,1.01965,38.937
614,1.021317,38.911
615,1.022983,38.911
616,1.02465,38.889
617,1.026317,38.88
618,1.027983,38.887
619,1.02965,38.887
620,1.031317,38.896
621,1.032983,38.921
622,1.034683,38.928
623,1.036317,38.928
624,1.037983,38.926
625,1.03965,38.91
626,1.041317,38.91
627,1.042983,38.916
628,1.04465,38.938
629,1.046317,38.922
630,1.047983,38.922
631,1.04965,38.927
632,1.051317,38.895
633,1.052983,38.85
634,1.05465,38.85
635,1.056317,38.859
636,1.057983,38.881
637,1.059633,38.904
638,1.0613,38.904
639,1.062967,38.9
640,1.064633,38.879
641,1.0663,38.823
642,1.067967,38.823
643,1.069633,38.784
644,1.0713,38.777
645,1.072967,38.777
646,1.074633,38.765
647,1.0763,38.759
648,1.077967,38.788
649,1.079633,38.788
650,1.0813,38.822
651,1.082967,38.861
652,1.084633,38.903
653,1.0863,38.903
654,1.087967,38.894
655,1.089633,38.825
656,1.091367,38.783
657,1.092967,38.783
658,1.094633,38.726
659,1.0963,38.674
660,1.097967,38.674
661,1.099633,38.675
662,1.1013,38.654
663,1.102967,38.658
664,1.104633,38.658
665,1.1063,38.692
666,1.108083,38.713
667,1.109633,38.708
668,1.1113,38.708
669,1.112967,38.74
670,1.114633,38.747
671,1.1163,38.768
672,1.117967,38.768
673,1.119617,38.802
674,1.121283,38.768
675,1.12295,38.724
676,1.124733,38.724
677,1.126283,38.686
678,1.12795,38.7
679,1.129633,38.7
680,1.131283,38.698
681,1.13295,38.73
682,1.134617,38.73
683,1.136283,38.73
684,1.13795,38.705
685,1.139617,38.718
686,1.141283,38.689
687,1.14295,38.689
688,1.144617,38.674
689,1.146283,38.687
690,1.14795,38.695
691,1.149617,38.695
692,1.151283,38.694
693,1.15295,38.697
694,1.154617,38.697
695,1.156283,38.683
696,1.15795,38.658
697,1.159617,38.658
698,1.161283,38.658
699,1.16295,38.656
700,1.164617,38.639
701,1.166283,38.626
702,1.16795,38.626
703,1.1696,38.625
704,1.171267,38.602
705,1.172933,38.598
706,1.1746,38.598
707,1.17625,38.62
708,1.177917,38.637
709,1.179583,38.637
710,1.18125,38.648
711,1.182917,38.637
712,1.184583,38.616
713,1.18625,38.616
714,1.187917,38.592
715,1.189583,38.629
716,1.191267,38.634
717,1.192917,38.634
718,1.194583,38.615
719,1.19625,38.597
720,1.197917,38.572
721,1.199583,38.572
722,1.20125,38.576
723,1.202917,38.605
724,1.204583,38.613
725,1.20625,38.613
726,1.207917,38.607
727,1.209583,38.618
728,1.21125,38.618
729,1.212917,38.609
730,1.214583,38.592
731,1.21625,38.565
732,1.217917,38.565
733,1.219583,38.54
734,1.22125,38.514
735,1.222917,38.539
736,1.224583,38.539
737,1.22625,38.566
738,1.227917,38.567
739,1.229583,38.598
740,1.23125,38.598
741,1.232917,38.571
742,1.234583,38.567
743,1.23625,38.567
744,1.2379,38.581
745,1.239567,38.543
746,1.241233,38.566
747,1.243033,38.566
748,1.244567,38.564
749,1.246233,38.561
750,1.2479,38.569
751,1.249567,38.569
752,1.251267,38.561
753,1.2529,38.563
754,1.254567,38.551
755,1.256233,38.551
756,1.2579,38.568
757,1.259567,38.582
758,1.261233,38.575
759,1.2629,38.575
760,1.264567,38.547
761,1.266233,38.508
762,1.2679,38.508
763,1.269567,38.484
764,1.271233,38.446
765,1.2729,38.454
766,1.274567,38.454
767,1.276233,38.485
768,1.2779,38.507
769,1.279567,38.551
770,1.28125,38.551
771,1.2829,38.549
772,1.284567,38.538
773,1.286233,38.53
774,1.2879,38.53
775,1.289567,38.482
776,1.291233,38.468
777,1.2929,38.468
778,1.294567,38.462
779,1.296233,38.439
780,1.297883,38.446
781,1.29955,38.446
782,1.301217,38.463
783,1.302883,38.449
784,1.304567,38.449
785,1.306217,38.449
786,1.307883,38.457
787,1.30955,38.481
788,1.311217,38.493
789,1.312883,38.493
790,1.314583,38.492
791,1.316217,38.481
792,1.317883,38.473
793,1.31955,38.473
794,1.321217,38.467
795,1.322883,38.452
796,1.32455,38.452
797,1.326217,38.464
798,1.32795,38.449
799,1.32955,38.44
800,1.331217,38.44
801,1.332883,38.445
802,1.33455,38.439
803,1.336217,38.428
804,1.337883,38.428
805,1.33955,38.444
806,1.341217,38.444
807,1.342883,38.438
808,1.34455,38.438
809,1.346217,38.435
810,1.347883,38.421
811,1.34955,38.421
812,1.351217,38.429
813,1.352883,38.416
814,1.35455,38.406
815,1.3562,38.406
816,1.357867,38.403
817,1.359533,38.394
818,1.361283,38.417
819,1.362867,38.417
820,1.364533,38.42
821,1.3662,38.434
822,1.367867,38.446
823,1.369533,38.446
824,1.3712,38.414
825,1.372867,38.383
826,1.374533,38.383
827,1.3762,38.337
828,1.377867,38.321
829,1.379533,38.327
830,1.3812,38.327
831,1.382867,38.368
832,1.384533,38.385
833,1.3862,38.376
834,1.387867,38.376
835,1.389533,38.385
836,1.3912,38.37
837,1.392867,38.351
838,1.394533,38.351
839,1.3962,38.337
840,1.397867,38.321
841,1.399533,38.332
842,1.4012,38.332
843,1.402867,38.367
844,1.404533,38.385
845,1.4062,38.385
846,1.407867,38.388
847,1.409533,38.379
848,1.4112,38.375
849,1.412867,38.375
850,1.414533,38.391
851,1.4162,38.406
852,1.417867,38.409
853,1.419517,38.409
854,1.421183,38.402
855,1.42285,38.368
856,1.424517,38.361
857,1.426183,38.361
858,1.42785,38.367
859,1.429517,38.371
860,1.431183,38.371
861,1.43285,38.391
862,1.434517,38.403
863,1.436183,38.405
864,1.43785,38.405
865,1.439517,38.406
866,1.441183,38.406
867,1.44285,38.368
868,1.444533,38.368
869,1.44625,38.337
870,1.44785,38.314
871,1.449517,38.282
872,1.451183,38.282
873,1.45285,38.289
874,1.454517,38.323
875,1.456183,38.32
876,1.45785,38.32
877,1.459517,38.307
878,1.461167,38.303
879,1.462833,38.303
880,1.4645,38.261
881,1.466167,38.286
882,1.467833,38.33
883,1.4695,38.33
884,1.471167,38.341
885,1.472833,38.35
886,1.4745,38.341
887,1.476167,38.341
888,1.477817,38.341
889,1.4796,38.376
890,1.48115,38.387
891,1.482817,38.387
892,1.484483,38.376
893,1.48615,38.337
894,1.487817,38.337
895,1.489483,38.279
896,1.49115,38.251
897,1.492817,38.228
898,1.494483,38.228
899,1.49615,38.237
900,1.497817,38.283
901,1.499483,38.318
902,1.50115,38.318
903,1.502817,38.326
904,1.504483,38.318
905,1.50615,38.309
906,1.507817,38.309
907,1.509483,38.313
908,1.51115,38.337
909,1.512817,38.362
910,1.514483,38.362
911,1.51615,38.356
912,1.517817,38.351
913,1.519483,38.351
914,1.52115,38.334
915,1.522817,38.306
916,1.524483,38.281
917,1.526183,38.281
918,1.527833,38.251
919,1.529483,38.235
920,1.53115,38.236
921,1.532817,38.236
922,1.534483,38.226
923,1.53615,38.249
924,1.5378,38.253
925,1.539467,38.253
926,1.541133,38.293
927,1.5428,38.293
928,1.544467,38.293
929,1.546133,38.251
930,1.5478,38.285
931,1.549467,38.25
932,1.551133,38.25
933,1.5528,38.268
934,1.554467,38.287
935,1.556133,38.29
936,1.5578,38.29
937,1.559467,38.293
938,1.561133,38.285
939,1.5628,38.307
940,1.564517,38.307
941,1.566133,38.294
942,1.5678,38.318
943,1.569467,38.318
944,1.571133,38.338
945,1.5728,38.284
946,1.574467,38.237
947,1.576133,38.237
948,1.5778,38.201
949,1.579467,38.167
950,1.581133,38.182
951,1.5828,38.182
952,1.584467,38.187
953,1.586133,38.188
954,1.5878,38.19
955,1.589467,38.19
956,1.591133,38.209
957,1.5928,38.247
958,1.594467,38.252
959,1.596133,38.252
960,1.5978,38.255
961,1.5995,38.251
962,1.601117,38.251
963,1.602783,38.224
964,1.60445,38.245
965,1.606117,38.239
966,1.607783,38.239
967,1.60945,38.236
968,1.611117,38.248
969,1.612783,38.226
970,1.61445,38.226
971,1.616117,38.23
972,1.617783,38.228
973,1.61945,38.232
974,1.621117,38.232
975,1.622783,38.251
976,1.62445,38.265
977,1.626117,38.265
978,1.627783,38.268
979,1.62945,38.271
980,1.631117,38.279
981,1.632783,38.279
982,1.63445,38.268
983,1.636117,38.266
984,1.637783,38.256
985,1.63945,38.256
986,1.641117,38.26
987,1.642783,38.262
988,1.64445,38.256
989,1.646117,38.256
990,1.647783,38.252
991,1.64945,38.21
992,1.651117,38.174
993,1.652783,38.174
994,1.65445,38.148
995,1.656117,38.155
996,1.657767,38.155
997,1.659433,38.186
998,1.6611,38.248
999,1.662767,38.279
1000,1.664433,38.279
1001,1.6661,38.298
1002,1.6678,38.262
