"ID","sea_time","fid_signal"
1,0,1161.247
2,0.001667,1162.44
3,0.003333,1162.44
4,0.005,1165.047
5,0.00665,1168.251
6,0.008317,1172.796
7,0.009983000000000001,1172.796
8,0.01165,1171.38
9,0.0133,1168.475
10,0.014967,1164.079
11,0.01675,1164.079
12,0.0183,1159.683
13,0.019967,1159.683
14,0.021633,1159.534
15,0.0233,1159.534
16,0.024967,1161.396
17,0.026633,1161.844
18,0.0283,1161.844
19,0.029967,1163.781
20,0.031633,1164.898
21,0.0333,1163.93
22,0.034967,1163.93
23,0.036633,1163.483
24,0.0383,1163.706
25,0.039967,1163.036
26,0.04165,1163.036
27,0.0433,1164.079
28,0.044967,1165.42
29,0.046633,1166.09
30,0.0483,1166.09
31,0.049967,1169.518
32,0.051633,1171.529
33,0.0533,1173.69
34,0.054967,1173.69
35,0.056633,1174.36
36,0.0583,1173.317
37,0.059967,1173.317
38,0.061633,1174.882
39,0.0633,1175.776
40,0.064967,1176.223
41,0.066633,1176.223
42,0.0683,1174.659
43,0.069967,1173.243
44,0.071633,1171.902
45,0.0733,1171.902
46,0.07495,1173.765
47,0.076617,1173.839
48,0.07828300000000001,1172.423
49,0.07994999999999999,1172.423
50,0.081617,1169.592
51,0.083283,1168.177
52,0.08495,1168.177
53,0.086617,1170.71
54,0.088283,1170.263
55,0.08995,1170.188
56,0.091617,1170.188
57,0.093317,1169.89
58,0.09495000000000001,1167.506
59,0.09661699999999999,1169.667
60,0.098283,1169.667
61,0.09995,1173.988
62,0.101683,1175.329
63,0.103283,1176.968
64,0.10495,1176.968
65,0.106617,1175.106
66,0.108283,1173.019
67,0.10995,1169.518
68,0.111617,1169.518
69,0.113283,1166.835
70,0.11495,1168.847
71,0.116617,1168.847
72,0.118283,1168.475
73,0.11995,1169.592
74,0.121617,1170.561
75,0.123283,1170.561
76,0.12495,1166.984
77,0.126617,1165.196
78,0.128283,1163.557
79,0.12995,1163.557
80,0.131617,1161.62
81,0.133267,1161.62
82,0.135067,1165.122
83,0.1366,1165.122
84,0.138267,1167.208
85,0.139933,1169.965
86,0.1416,1169.965
87,0.143267,1170.188
88,0.144933,1167.432
89,0.1466,1166.016
90,0.148267,1166.016
91,0.149933,1164.228
92,0.1516,1164.675
93,0.153267,1164.377
94,0.154933,1164.377
95,0.1566,1165.718
96,0.158267,1167.729
97,0.159933,1170.412
98,0.1616,1170.412
99,0.163267,1173.019
100,0.164933,1173.392
101,0.1666,1171.38
102,0.168267,1171.38
103,0.169933,1165.569
104,0.1716,1160.651
105,0.173267,1160.651
106,0.174933,1158.267
107,0.1766,1159.236
108,0.178267,1163.632
109,0.179933,1163.632
110,0.1816,1165.271
111,0.183267,1168.773
112,0.184933,1168.624
113,0.1866,1168.624
114,0.188267,1171.231
115,0.189933,1176.298
116,0.1916,1175.553
117,0.19325,1175.553
118,0.194917,1173.019
119,0.196583,1168.027
120,0.19825,1168.027
121,0.199933,1163.855
122,0.201583,1161.396
123,0.203267,1161.695
124,0.204917,1161.695
125,0.206583,1162.514
126,0.20825,1162.589
127,0.209917,1163.483
128,0.211583,1163.483
129,0.21325,1167.208
130,0.214917,1167.655
131,0.216583,1168.102
132,0.21825,1168.102
133,0.219983,1170.412
134,0.221583,1170.263
135,0.22325,1173.541
136,0.224917,1173.541
137,0.226583,1176.745
138,0.22825,1173.168
139,0.229917,1173.168
140,0.231583,1173.466
141,0.23325,1169.22
142,0.234917,1167.58
143,0.236583,1167.58
144,0.23825,1167.282
145,0.239917,1165.718
146,0.241583,1168.922
147,0.24325,1168.922
148,0.244917,1170.412
149,0.246583,1171.827
150,0.24825,1174.36
151,0.249917,1174.36
152,0.251583,1172.87
153,0.25335,1168.549
154,0.2549,1168.549
155,0.256567,1169.741
156,0.258233,1168.4
157,0.2599,1168.027
158,0.261567,1168.027
159,0.263233,1168.922
160,0.2649,1169.965
161,0.266567,1171.455
162,0.268233,1171.455
163,0.2699,1173.69
164,0.271567,1172.796
165,0.273233,1169.816
166,0.2749,1169.816
167,0.276567,1167.58
168,0.278233,1166.984
169,0.2799,1166.984
170,0.281567,1167.804
171,0.283233,1169.443
172,0.2849,1171.082
173,0.286567,1171.082
174,0.288233,1171.455
175,0.2899,1174.807
176,0.291567,1173.243
177,0.293233,1173.243
178,0.2949,1171.306
179,0.296567,1169.816
180,0.298217,1168.922
181,0.299883,1168.922
182,0.30155,1168.624
183,0.303217,1169.071
184,0.304883,1167.879
185,0.30655,1167.879
186,0.308233,1166.09
187,0.309883,1168.4
188,0.31155,1168.4
189,0.3132,1171.976
190,0.314867,1177.117
191,0.316533,1181.513
192,0.3182,1181.513
193,0.319867,1188.442
194,0.321533,1193.807
195,0.3232,1202.3
196,0.324867,1202.3
197,0.326533,1212.209
198,0.3282,1226.142
199,0.329867,1245.216
200,0.331533,1245.216
201,0.3332,1267.12
202,0.334867,1291.856
203,0.336533,1291.856
204,0.338267,1318.306
205,0.339883,1349.151
206,0.341533,1384.765
207,0.3432,1384.765
208,0.344867,1425.147
209,0.346533,1473.054
210,0.3482,1521.334
211,0.349867,1521.334
212,0.351533,1576.245
213,0.3532,1639.575
214,0.354867,1701.191
215,0.356533,1701.191
216,0.3582,1770.854
217,0.359867,1842.901
218,0.361533,1915.842
219,0.3632,1915.842
220,0.364867,1996.458
221,0.366533,2078.786
222,0.3682,2078.786
223,0.369867,2163.351
224,0.37155,2254.546
225,0.373183,2347.827
226,0.37485,2347.827
227,0.376517,2444.833
228,0.3782,2541.468
229,0.37985,2638.325
230,0.381517,2638.325
231,0.383183,2737.567
232,0.384883,2839.938
233,0.386517,2950.579
234,0.388183,2950.579
235,0.38985,3064.573
236,0.391517,3181.547
237,0.393183,3181.547
238,0.39485,3307.462
239,0.396517,3441.051
240,0.398183,3587.827
241,0.39985,3587.827
242,0.401517,3752.708
243,0.403183,3936.291
244,0.40485,4149.675
245,0.406517,4149.675
246,0.408183,4407.689
247,0.40985,4723.221
248,0.411517,5113.557
249,0.413183,5113.557
250,0.41485,5602.464
251,0.416517,6206.93
252,0.418183,6960.63
253,0.41985,6960.63
254,0.421517,7890.388
255,0.423183,9023.696
256,0.42485,9023.696
257,0.426517,10394.081
258,0.428183,12020.543
259,0.42985,13926.849
260,0.431517,13926.849
261,0.433167,16137.063
262,0.434833,18664.674
263,0.4365,21517.5
264,0.438167,21517.5
265,0.439833,24699.643
266,0.4415,28197.691
267,0.443167,31980.053
268,0.444833,31980.053
269,0.4465,36008.508
270,0.448167,40229.781
271,0.449833,40229.781
272,0.4515,44568.926
273,0.453167,48952.027
274,0.454833,53295.715
275,0.456517,53295.715
276,0.458167,57501.867
277,0.459833,61476.754
278,0.4615,65121.5
279,0.463167,65121.5
280,0.464833,68331.508
281,0.4665,71014.016
282,0.468167,73075.594
283,0.469833,73075.594
284,0.4715,74434.281
285,0.473233,75019.523
286,0.474833,75019.523
287,0.4765,74784.531
288,0.478167,73707.625
289,0.479833,71807.5
290,0.4815,71807.5
291,0.483167,69143.17999999999
292,0.484833,65805.766
293,0.4865,61927.887
294,0.488167,61927.887
295,0.489933,57655.871
296,0.4915,53144.172
297,0.49315,48548.059
298,0.494817,48548.059
299,0.496483,44000.746
300,0.49815,39616.375
301,0.499817,35482.273
302,0.501483,35482.273
303,0.50315,31654.313
304,0.504817,28168.336
305,0.506617,25029.555
306,0.50815,25029.555
307,0.509817,22232.83
308,0.511483,19755.811
309,0.51315,19755.811
310,0.514817,17567.725
311,0.516483,15641.302
312,0.51815,13944.655
313,0.519817,13944.655
314,0.521483,12451.484
315,0.52315,11142.194
316,0.524817,9989.067999999999
317,0.526483,9989.067999999999
318,0.52815,8976.385
319,0.529817,8088.425
320,0.531483,8088.425
321,0.53315,7302.687
322,0.534817,6613.061
323,0.536483,6007.626
324,0.53815,6007.626
325,0.539817,5473.047
326,0.541483,5002.32
327,0.54315,4587.397
328,0.544817,4587.397
329,0.5464830000000001,4223.958
330,0.54815,3901.72
331,0.549817,3618.151
332,0.551467,3618.151
333,0.553133,3365.874
334,0.5548,3139.675
335,0.556467,2942.756
336,0.558133,2942.756
337,0.5598,2769.977
338,0.561467,2619.624
339,0.563133,2619.624
340,0.5648,2483.875
341,0.5664670000000001,2362.654
342,0.568133,2251.417
343,0.5698,2251.417
344,0.5714669999999999,2150.386
345,0.573133,2060.756
346,0.5748,1984.164
347,0.576467,1984.164
348,0.578133,1916.066
349,0.5798,1856.238
350,0.581467,1803.115
351,0.583133,1803.115
352,0.5848,1751.855
353,0.586467,1708.418
354,0.588117,1708.418
355,0.5898,1669.675
356,0.591533,1634.806
357,0.593117,1604.333
358,0.594783,1604.333
359,0.59645,1574.308
360,0.598117,1549.87
361,0.599783,1526.4
362,0.60145,1526.4
363,0.603117,1502.484
364,0.604783,1481.995
365,0.60645,1458.749
366,0.6082,1458.749
367,0.609783,1443.475
368,0.61145,1429.766
369,0.613117,1429.766
370,0.614767,1418.442
371,0.616433,1407.787
372,0.6181,1395.941
373,0.619767,1395.941
374,0.621433,1383.871
375,0.6231,1373.217
376,0.6249,1365.319
377,0.626433,1365.319
378,0.6281,1356.155
379,0.629767,1349.449
380,0.631433,1341.477
381,0.6331,1341.477
382,0.634767,1333.654
383,0.636433,1325.831
384,0.6381,1317.635
385,0.639767,1317.635
386,0.641433,1312.42
387,0.6431,1308.918
388,0.644767,1308.918
389,0.646433,1304.671
390,0.6481,1303.181
391,0.649767,1297.519
392,0.651433,1297.519
393,0.6531,1294.091
394,0.654767,1292.08
395,0.656433,1287.907
396,0.6581,1287.907
397,0.659767,1284.927
398,0.661433,1279.488
399,0.6631,1275.837
400,0.664767,1275.837
401,0.6664330000000001,1271.591
402,0.6681,1270.1
403,0.669767,1270.1
404,0.6714329999999999,1266.599
405,0.673083,1264.811
406,0.674783,1262.65
407,0.676417,1262.65
408,0.678083,1259.595
409,0.67975,1260.862
410,0.6814170000000001,1258.105
411,0.683083,1258.105
412,0.68475,1258.701
413,0.6864170000000001,1256.242
414,0.688083,1252.219
415,0.68975,1252.219
416,0.6914169999999999,1250.803
417,0.6931,1246.631
418,0.69475,1244.694
419,0.696417,1244.694
420,0.698083,1248.047
421,0.69975,1246.333
422,0.701417,1246.333
423,0.703083,1245.365
424,0.70475,1244.992
425,0.706417,1239.031
426,0.708083,1239.031
427,0.7097830000000001,1236.424
428,0.711417,1237.839
429,0.713083,1238.063
430,0.71475,1238.063
431,0.716417,1238.659
432,0.718083,1239.702
433,0.71975,1240.82
434,0.721417,1240.82
435,0.723083,1240.149
436,0.72475,1239.479
437,0.7265,1236.349
438,0.728083,1236.349
439,0.72975,1229.644
440,0.7314000000000001,1225.546
441,0.733067,1225.546
442,0.734733,1223.609
443,0.7364000000000001,1222.491
444,0.738067,1224.652
445,0.739733,1224.652
446,0.7414500000000001,1224.652
447,0.743183,1223.013
448,0.744733,1222.789
449,0.7464,1222.789
450,0.748067,1219.586
451,0.749733,1219.139
452,0.7514,1217.574
453,0.753067,1217.574
454,0.754733,1216.754
455,0.7564,1217.723
456,0.758067,1217.723
457,0.759733,1220.405
458,0.7614,1222.715
459,0.7630670000000001,1222.715
460,0.764733,1222.715
461,0.7664,1221.001
462,0.7680670000000001,1219.362
463,0.769733,1218.692
464,0.7714,1218.692
465,0.7730669999999999,1218.99
466,0.774733,1217.499
467,0.7764,1216.531
468,0.778067,1216.531
469,0.779733,1213.625
470,0.7814,1212.582
471,0.783067,1212.582
472,0.784733,1212.656
473,0.7864,1212.656
474,0.788067,1215.041
475,0.789733,1215.041
476,0.7914,1214.519
477,0.79305,1215.19
478,0.794717,1210.943
479,0.796383,1210.943
480,0.79805,1205.951
481,0.799717,1205.429
482,0.801383,1205.355
483,0.80305,1205.355
484,0.804717,1207.218
485,0.806383,1208.484
486,0.80805,1206.323
487,0.809717,1206.323
488,0.811383,1204.163
489,0.8130500000000001,1204.461
490,0.814717,1204.461
491,0.816383,1205.355
492,0.8180500000000001,1209.08
493,0.819717,1209.155
494,0.821383,1209.155
495,0.8230499999999999,1207.665
496,0.824717,1205.355
497,0.826383,1201.406
498,0.828083,1201.406
499,0.829717,1200.438
500,0.831383,1199.32
501,0.83305,1196.563
502,0.8347329999999999,1196.563
503,0.836383,1194.85
504,0.83805,1194.701
505,0.839717,1194.701
506,0.841383,1194.328
507,0.84305,1196.712
508,0.84475,1200.885
509,0.846383,1200.885
510,0.84805,1201.406
511,0.8497169999999999,1203.641
512,0.851383,1204.461
513,0.85305,1204.461
514,0.8547169999999999,1204.684
515,0.856367,1204.461
516,0.858033,1201.257
517,0.8597,1201.257
518,0.861433,1202.002
519,0.8630330000000001,1198.798
520,0.8647,1198.798
521,0.866367,1197.681
522,0.8680330000000001,1194.701
523,0.8697,1192.912
524,0.871367,1192.912
525,0.8730329999999999,1190.305
526,0.8747,1191.646
527,0.876367,1195.893
528,0.878033,1195.893
529,0.879683,1196.563
530,0.88135,1195.148
531,0.8830170000000001,1190.752
532,0.884683,1190.752
533,0.88635,1186.654
534,0.8880169999999999,1185.387
535,0.889683,1189.485
536,0.89135,1189.485
537,0.8930169999999999,1189.187
538,0.894683,1190.528
539,0.89635,1190.528
540,0.898017,1190.975
541,0.899683,1189.485
542,0.90135,1192.391
543,0.903017,1192.391
544,0.904683,1194.999
545,0.90635,1194.85
546,0.908017,1193.136
547,0.909683,1193.136
548,0.91135,1192.018
549,0.913,1189.485
550,0.914667,1187.101
551,0.916333,1187.101
552,0.918,1187.101
553,0.919667,1185.983
554,0.921333,1185.983
555,0.923,1185.164
556,0.924667,1185.536
557,0.926333,1185.983
558,0.928017,1185.983
559,0.929667,1184.94
560,0.931333,1187.623
561,0.9330000000000001,1189.262
562,0.934667,1189.262
563,0.936333,1188.517
564,0.9379999999999999,1188.517
565,0.939667,1184.27
566,0.941333,1184.27
567,0.9429999999999999,1183.152
568,0.944667,1185.983
569,0.94635,1188.666
570,0.948,1188.666
571,0.949667,1192.242
572,0.951333,1190.975
573,0.953,1190.975
574,0.954667,1188.517
575,0.956333,1186.729
576,0.958,1188.144
577,0.959667,1188.144
578,0.961333,1189.411
579,0.963,1192.167
580,0.9646670000000001,1191.646
581,0.966333,1191.646
582,0.968,1187.623
583,0.9696669999999999,1187.176
584,0.971333,1187.995
585,0.972983,1187.995
586,0.97465,1189.485
587,0.976317,1189.709
588,0.977983,1189.709
589,0.9798,1191.422
590,0.981317,1187.026
591,0.9829830000000001,1185.164
592,0.98465,1185.164
593,0.986317,1184.791
594,0.9879829999999999,1184.717
595,0.98965,1184.27
596,0.991317,1184.27
597,0.9929829999999999,1183.823
598,0.99465,1184.568
599,0.996317,1180.917
600,0.997983,1180.917
601,0.99965,1179.129
602,1.001317,1182.482
603,1.002983,1182.258
604,1.00465,1182.258
605,1.006317,1184.642
606,1.007983,1190.454
607,1.009667,1190.454
608,1.011317,1188.74
609,1.012983,1185.462
610,1.01465,1183.823
611,1.016317,1183.823
612,1.017983,1179.725
613,1.01965,1179.427
614,1.021333,1183.301
615,1.022983,1183.301
616,1.02465,1185.387
617,1.026317,1186.579
618,1.027983,1187.101
619,1.02965,1187.101
620,1.031317,1185.685
621,1.032967,1183.897
622,1.034633,1183.897
623,1.0363,1184.195
624,1.037967,1183.003
625,1.039633,1182.258
626,1.0413,1182.258
627,1.042967,1181.141
628,1.044633,1179.203
629,1.0463,1176.596
630,1.047967,1176.596
631,1.049633,1177.192
632,1.0513,1176.745
633,1.052967,1178.384
634,1.054633,1178.384
635,1.0563,1179.799
636,1.057967,1181.96
637,1.059633,1181.96
638,1.0613,1182.184
639,1.062967,1179.427
640,1.064683,1181.737
641,1.0663,1181.737
642,1.067967,1180.246
643,1.069633,1179.501
644,1.0713,1182.78
645,1.072967,1182.78
646,1.074633,1180.172
647,1.0763,1179.129
648,1.077967,1180.619
649,1.079633,1180.619
650,1.081317,1178.309
651,1.082967,1182.109
652,1.084633,1182.705
653,1.0863,1182.705
654,1.087967,1182.705
655,1.089633,1183.376
656,1.091317,1183.376
657,1.092967,1179.799
658,1.094617,1180.246
659,1.096283,1180.097
660,1.098067,1180.097
661,1.099617,1183.078
662,1.101283,1186.505
663,1.10295,1185.313
664,1.104617,1185.313
665,1.106283,1184.866
666,1.10795,1182.705
667,1.109617,1179.203
668,1.111283,1179.203
669,1.11295,1180.172
670,1.114617,1180.545
671,1.116283,1180.545
672,1.11795,1178.682
673,1.119617,1180.843
674,1.121283,1178.384
675,1.12295,1178.384
676,1.124617,1176.745
677,1.126283,1177.564
678,1.12795,1176.968
679,1.129617,1176.968
680,1.131283,1179.65
681,1.13295,1183.45
682,1.134617,1181.588
683,1.136283,1181.588
684,1.13795,1180.097
685,1.139617,1181.215
686,1.141283,1179.427
687,1.14295,1179.427
688,1.144617,1180.843
689,1.146283,1182.333
690,1.14795,1182.333
691,1.149617,1182.929
692,1.151283,1184.94
693,1.15295,1188.889
694,1.1546,1188.889
695,1.156267,1189.336
696,1.157933,1189.56
697,1.159617,1187.623
698,1.161267,1187.623
699,1.163,1184.493
700,1.1646,1182.78
701,1.166267,1177.192
702,1.167933,1177.192
703,1.1696,1175.329
704,1.17125,1174.36
705,1.172917,1174.36
706,1.174583,1175.18
707,1.17625,1178.16
708,1.177917,1179.427
709,1.179583,1179.427
710,1.18125,1177.788
711,1.182983,1177.415
712,1.1846,1174.807
713,1.18625,1174.807
714,1.187917,1172.572
715,1.189583,1174.807
716,1.19125,1175.031
717,1.192917,1175.031
718,1.194583,1174.733
719,1.19625,1176.223
720,1.197917,1176.745
721,1.199583,1176.745
722,1.20125,1178.756
723,1.202917,1180.396
724,1.204583,1180.396
725,1.20625,1178.309
726,1.207917,1176.745
727,1.209583,1173.392
728,1.21125,1173.392
729,1.2129,1171.678
730,1.214567,1172.349
731,1.216367,1173.466
732,1.2179,1173.466
733,1.219567,1175.031
734,1.221233,1177.043
735,1.2229,1178.533
736,1.224567,1178.533
737,1.226233,1176.149
738,1.2279,1176.074
739,1.229567,1176.074
740,1.231233,1178.607
741,1.2329,1179.576
742,1.2346,1181.29
743,1.236233,1181.29
744,1.2379,1180.619
745,1.239567,1177.713
746,1.241233,1173.094
747,1.2429,1173.094
748,1.244567,1172.2
749,1.246233,1171.529
750,1.2479,1170.486
751,1.249567,1170.486
752,1.251233,1175.925
753,1.2529,1177.043
754,1.254567,1177.043
755,1.256233,1175.255
756,1.2579,1176.894
757,1.259567,1174.584
758,1.261233,1174.584
759,1.2629,1175.404
760,1.264567,1177.713
761,1.266233,1177.49
762,1.2679,1177.49
763,1.269567,1180.396
764,1.271233,1182.705
765,1.272883,1183.003
766,1.27455,1183.003
767,1.276217,1182.929
768,1.277883,1180.619
769,1.27955,1178.458
770,1.281217,1178.458
771,1.282883,1177.49
772,1.28455,1177.192
773,1.286217,1177.192
774,1.287883,1177.639
775,1.28955,1175.627
776,1.291217,1177.117
777,1.292883,1177.117
778,1.29455,1178.458
779,1.296217,1178.458
780,1.297883,1179.799
781,1.29955,1179.799
782,1.301217,1176.521
783,1.302883,1177.49
784,1.30455,1175.478
785,1.306217,1175.478
786,1.307883,1171.157
787,1.30955,1170.114
788,1.311217,1170.114
789,1.312883,1166.09
790,1.31455,1165.047
791,1.316217,1169.443
792,1.317917,1169.443
793,1.31955,1175.255
794,1.321217,1178.533
795,1.322883,1184.344
796,1.32455,1184.344
797,1.326217,1184.419
798,1.327883,1184.419
799,1.32955,1183.674
800,1.331217,1183.674
801,1.332867,1181.662
802,1.33465,1178.607
803,1.3362,1174.063
804,1.337867,1174.063
805,1.339533,1170.263
806,1.3412,1167.506
807,1.342867,1167.506
808,1.344533,1169.965
809,1.3462,1171.604
810,1.347867,1174.36
811,1.349533,1174.36
812,1.351333,1175.702
813,1.352867,1175.627
814,1.354533,1176.521
815,1.3562,1176.521
816,1.357867,1176.521
817,1.359533,1176.223
818,1.3612,1177.341
819,1.362867,1177.341
820,1.364533,1175.18
821,1.3662,1178.086
822,1.367867,1178.086
823,1.369533,1176
824,1.3712,1174.137
825,1.372867,1174.733
826,1.37455,1174.733
827,1.3762,1171.902
828,1.377867,1174.584
829,1.379533,1175.478
830,1.3812,1175.478
831,1.382867,1176.968
832,1.384533,1179.054
833,1.3862,1178.98
834,1.387867,1178.98
835,1.389533,1179.129
836,1.3912,1177.49
837,1.39285,1177.341
838,1.39455,1177.341
839,1.396183,1177.043
840,1.39785,1177.192
841,1.399517,1177.192
842,1.401183,1178.458
843,1.40285,1176.596
844,1.404517,1173.615
845,1.406183,1173.615
846,1.40785,1171.231
847,1.409517,1168.922
848,1.411183,1167.879
849,1.412867,1167.879
850,1.414517,1169.667
851,1.416183,1170.933
852,1.41785,1173.839
853,1.419517,1173.839
854,1.421183,1175.702
855,1.42285,1178.682
856,1.424517,1178.682
857,1.426183,1178.235
858,1.42785,1174.51
859,1.429517,1173.243
860,1.431183,1173.243
861,1.43285,1169.965
862,1.434517,1172.349
863,1.43625,1174.063
864,1.43785,1174.063
865,1.439517,1174.957
866,1.441183,1177.415
867,1.442867,1176
868,1.444517,1176
869,1.446183,1178.011
870,1.44785,1176.298
871,1.449517,1176.298
872,1.451183,1173.168
873,1.452917,1171.902
874,1.4545,1168.698
875,1.456167,1168.698
876,1.457833,1172.274
877,1.4595,1177.415
878,1.461167,1176.596
879,1.462817,1176.596
880,1.464483,1176.298
881,1.46615,1174.882
882,1.467817,1172.796
883,1.4696,1172.796
884,1.47115,1175.255
885,1.472817,1177.788
886,1.474483,1178.235
887,1.47615,1178.235
888,1.477817,1176.447
889,1.479483,1173.392
890,1.48115,1173.392
891,1.482817,1171.827
892,1.4845,1167.804
893,1.48615,1168.177
894,1.487817,1168.177
895,1.489483,1171.082
896,1.49115,1172.349
897,1.492817,1178.309
898,1.494483,1178.309
899,1.49615,1177.192
900,1.497817,1177.564
901,1.499483,1175.404
902,1.50115,1175.404
903,1.502817,1169.89
904,1.504483,1169.071
905,1.50615,1169.071
906,1.507817,1168.4
907,1.509483,1170.71
908,1.511133,1171.008
909,1.512833,1171.008
910,1.514467,1175.255
911,1.516133,1176.67
912,1.5178,1174.659
913,1.519467,1174.659
914,1.521133,1176.372
915,1.5228,1171.902
916,1.524467,1168.624
917,1.526133,1168.624
