"ID","sea_time","fid_signal"
1,0,1177.564
2,0.001667,1172.274
3,0.003333,1168.996
4,0.005017,1168.996
5,0.006667,1165.569
6,0.008333,1164.004
7,0.01,1162.812
8,0.011667,1162.812
9,0.013333,1163.259
10,0.015,1163.408
11,0.016667,1165.792
12,0.018333,1165.792
13,0.02,1170.933
14,0.021667,1173.019
15,0.023333,1175.702
16,0.025,1175.702
17,0.026667,1175.702
18,0.028317,1173.913
19,0.029983,1173.913
20,0.03165,1173.913
21,0.033317,1172.423
22,0.034983,1174.212
23,0.03665,1174.212
24,0.038317,1172.498
25,0.040017,1170.635
26,0.04165,1170.784
27,0.043317,1170.784
28,0.044983,1168.847
29,0.046667,1172.423
30,0.048317,1172.125
31,0.049983,1172.125
32,0.05165,1173.615
33,0.053317,1174.807
34,0.054983,1174.807
35,0.05665,1174.659
36,0.058317,1178.533
37,0.06,1177.266
38,0.06165,1177.266
39,0.063433,1175.404
40,0.064983,1172.572
41,0.06665,1170.263
42,0.068317,1170.263
43,0.069983,1169.667
44,0.07165000000000001,1168.549
45,0.07331699999999999,1169.816
46,0.07498299999999999,1169.816
47,0.07665,1170.486
48,0.078317,1170.859
49,0.079983,1171.082
50,0.08165,1171.082
51,0.083317,1170.486
52,0.084983,1171.157
53,0.08665,1171.157
54,0.0883,1174.435
55,0.08996700000000001,1177.341
56,0.09163300000000001,1177.341
57,0.09329999999999999,1177.341
58,0.094967,1176.67
59,0.096633,1173.913
60,0.0983,1170.263
61,0.099967,1170.263
62,0.101633,1170.188
63,0.1033,1170.114
64,0.104967,1168.475
65,0.106633,1168.475
66,0.1083,1170.188
67,0.109967,1171.753
68,0.111633,1171.753
69,0.1133,1168.773
70,0.114967,1170.784
71,0.116633,1169.816
72,0.1183,1169.816
73,0.119967,1169.965
74,0.121633,1171.38
75,0.1233,1172.572
76,0.124967,1172.572
77,0.126633,1173.317
78,0.1283,1173.168
79,0.12995,1174.286
80,0.131617,1174.286
81,0.133283,1171.455
82,0.13495,1172.572
83,0.136633,1173.541
84,0.138283,1173.541
85,0.13995,1175.553
86,0.141617,1174.212
87,0.143283,1174.212
88,0.14495,1172.2
89,0.146617,1168.624
90,0.148333,1167.506
91,0.149933,1167.506
92,0.1516,1171.008
93,0.153267,1174.063
94,0.154933,1176.894
95,0.1566,1176.894
96,0.158267,1175.627
97,0.159933,1176.372
98,0.1616,1174.286
99,0.163267,1174.286
100,0.164933,1172.423
101,0.1666,1173.466
102,0.168267,1173.466
103,0.169933,1171.827
104,0.1716,1172.349
105,0.173267,1171.604
106,0.174933,1171.604
107,0.1766,1169.741
108,0.178267,1167.729
109,0.17995,1166.761
110,0.181633,1166.761
111,0.183267,1167.208
112,0.184933,1168.624
113,0.1866,1169.22
114,0.188267,1169.22
115,0.189933,1170.784
116,0.1916,1173.839
117,0.193267,1172.125
118,0.194933,1172.125
119,0.1966,1172.423
120,0.198267,1171.455
121,0.199933,1171.455
122,0.2016,1171.008
123,0.203267,1170.337
124,0.204933,1169.667
125,0.2066,1169.667
126,0.208267,1168.996
127,0.209917,1166.09
128,0.211583,1167.208
129,0.21325,1167.208
130,0.214917,1166.388
131,0.216583,1167.879
132,0.21825,1167.953
133,0.219917,1167.953
134,0.221583,1168.922
135,0.22325,1173.019
136,0.224917,1173.019
137,0.226583,1173.243
138,0.22825,1173.839
139,0.229917,1175.776
140,0.231583,1175.776
141,0.23325,1174.063
142,0.234917,1170.263
143,0.236583,1169.816
144,0.23825,1169.816
145,0.239917,1167.059
146,0.241583,1166.09
147,0.24325,1165.569
148,0.244917,1165.569
149,0.246583,1164.824
150,0.24825,1164.302
151,0.249917,1164.302
152,0.251583,1164.451
153,0.25325,1168.4
154,0.254917,1170.784
155,0.256583,1170.784
156,0.25825,1172.647
157,0.259917,1173.765
158,0.261583,1175.255
159,0.26325,1175.255
160,0.264917,1172.498
161,0.266617,1173.317
162,0.26825,1173.69
163,0.2699,1173.69
164,0.271567,1170.412
165,0.273233,1170.784
166,0.2749,1168.624
167,0.276567,1168.624
168,0.278233,1166.016
169,0.2799,1164.6
170,0.281567,1164.6
171,0.28335,1164.973
172,0.2849,1166.016
173,0.286567,1168.027
174,0.288233,1168.027
175,0.2899,1168.475
176,0.291567,1168.475
177,0.293233,1167.953
178,0.2949,1167.953
179,0.296567,1165.345
180,0.298233,1165.494
181,0.299983,1166.463
182,0.301567,1166.463
183,0.303233,1168.102
184,0.3049,1171.753
185,0.306567,1171.753
186,0.308233,1171.827
187,0.3099,1170.412
188,0.311567,1169.294
189,0.313233,1169.294
190,0.3149,1169.071
191,0.316567,1171.678
192,0.318233,1175.627
193,0.3199,1175.627
194,0.321567,1178.905
195,0.323233,1178.98
196,0.3249,1180.917
197,0.326567,1180.917
198,0.32825,1182.109
199,0.329883,1179.948
200,0.33155,1185.387
201,0.333217,1185.387
202,0.334883,1189.783
203,0.33655,1193.732
204,0.338217,1193.732
205,0.339883,1202.151
206,0.34155,1206.845
207,0.343217,1215.562
208,0.344883,1215.562
209,0.34655,1228.899
210,0.348217,1247.823
211,0.349883,1269.653
212,0.35155,1269.653
213,0.353217,1294.687
214,0.354883,1325.309
215,0.35655,1353.845
216,0.358217,1353.845
217,0.359883,1390.576
218,0.36155,1427.233
219,0.363217,1427.233
220,0.364883,1467.243
221,0.36655,1517.534
222,0.368217,1570.657
223,0.369883,1570.657
224,0.37155,1635.775
225,0.373217,1710.355
226,0.374883,1789.63
227,0.37655,1789.63
228,0.378217,1880.601
229,0.379883,1977.608
230,0.38155,2080.128
231,0.383217,2080.128
232,0.384933,2192.184
233,0.38655,2311.245
234,0.388217,2440.736
235,0.389867,2440.736
236,0.39155,2581.477
237,0.39325,2736.822
238,0.394867,2736.822
239,0.396533,2908.483
240,0.3982,3098.25
241,0.399867,3309.175
242,0.401583,3309.175
243,0.4032,3550.872
244,0.404867,3833.026
245,0.406533,4176.795
246,0.408217,4176.795
247,0.409867,4606.769
248,0.411533,5152.375
249,0.4132,5863.756
250,0.414867,5863.756
251,0.416533,6790.31
252,0.418267,8001.998
253,0.419867,8001.998
254,0.421517,9570.047
255,0.423183,11563.376
256,0.42485,14059.097
257,0.426517,14059.097
258,0.428183,17113.984
259,0.42985,20776.018
260,0.431517,25058.537
261,0.433183,25058.537
262,0.434967,29931.217
263,0.436517,35317.391
264,0.438183,41082.277
265,0.43985,41082.277
266,0.441517,47049
267,0.443183,53013.117
268,0.44485,53013.117
269,0.446517,58760.941
270,0.448183,64086.766
271,0.449833,68818.781
272,0.4515,68818.781
273,0.453167,72815.19500000001
274,0.454833,75979.156
275,0.4565,78252.55499999999
276,0.458167,78252.55499999999
277,0.459833,79618.69500000001
278,0.4615,80098.359
279,0.463167,79746.69500000001
280,0.464833,79746.69500000001
281,0.466567,78652.57799999999
282,0.468167,76915.92200000001
283,0.469833,74655.711
284,0.4715,74655.711
285,0.473167,71981.54700000001
286,0.474833,69001.914
287,0.4765,69001.914
288,0.478167,65819.25
289,0.479833,62517.746
290,0.4815,59178.172
291,0.483167,59178.172
292,0.484833,55861.621
293,0.4865,52623.227
294,0.488167,49500.539
295,0.489833,49500.539
296,0.4915,46522.395
297,0.493167,43706.969
298,0.494833,41059.703
299,0.4965,41059.703
300,0.498167,38587.004
301,0.499833,36286.785
302,0.5014999999999999,36286.785
303,0.503167,34159.199
304,0.504833,32199.1
305,0.5065,30393.898
306,0.50815,30393.898
307,0.509817,28735.176
308,0.511483,27203.561
309,0.51315,25792.121
310,0.514817,25792.121
311,0.516483,24488.27
312,0.51815,23280.309
313,0.519883,22166.744
314,0.521483,22166.744
315,0.52315,21130.814
316,0.524817,20173.938
317,0.526483,19283.146
318,0.52815,19283.146
319,0.529817,18450.916
320,0.531483,17671.436
321,0.53315,17671.436
322,0.534817,16935.467
323,0.5365,16243.011
324,0.538167,15593.32
325,0.539817,15593.32
326,0.541483,14984.161
327,0.54315,14412.627
328,0.544817,13873.727
329,0.5464830000000001,13873.727
330,0.54815,13363.659
331,0.549817,12876.839
332,0.5514829999999999,12415.35
333,0.553233,12415.35
334,0.554817,11977.926
335,0.5564829999999999,11558.831
336,0.55815,11558.831
337,0.559817,11160.374
338,0.561483,10778.755
339,0.56315,10413.379
340,0.564817,10413.379
341,0.566483,10061.487
342,0.568133,9726.584000000001
343,0.5698,9405.314
344,0.5714669999999999,9405.314
345,0.573133,9096.190000000001
346,0.5748,8800.477000000001
347,0.576467,8518.323
348,0.578133,8518.323
349,0.5798,8245.334000000001
350,0.581467,7985.607
351,0.5831499999999999,7740.557
352,0.5848,7740.557
353,0.586467,7502.511
354,0.588133,7277.28
355,0.5898,7277.28
356,0.591467,7061.511
357,0.593133,6852.299
358,0.5948,6652.251
359,0.596467,6652.251
360,0.598133,6456.151
361,0.5998,6265.193
362,0.601467,6087.05
363,0.603133,6087.05
364,0.6048,5913.004
365,0.606467,5746.633
366,0.608133,5587.488
367,0.6098,5587.488
368,0.611467,5431.473
369,0.613133,5283.803
370,0.6148,5283.803
371,0.616467,5145.594
372,0.618133,5012.005
373,0.6198,4879.758
374,0.621467,4879.758
375,0.623133,4756.153
376,0.6248,4636.347
377,0.626467,4524.216
378,0.628117,4524.216
379,0.629783,4415.438
380,0.63145,4306.436
381,0.633117,4200.19
382,0.634783,4200.19
383,0.63645,4096.404
384,0.638117,3998.28
385,0.639783,3998.28
386,0.64145,3908.053
387,0.643117,3819.838
388,0.644783,3735.349
389,0.64645,3735.349
390,0.6481170000000001,3655.553
391,0.649783,3575.31
392,0.65145,3501.698
393,0.6531169999999999,3501.698
394,0.6548,3432.11
395,0.65645,3364.608
396,0.658117,3297.851
397,0.659783,3297.851
398,0.66145,3230.944
399,0.663117,3164.411
400,0.664783,3102.943
401,0.66645,3102.943
402,0.668117,3045.425
403,0.669783,2987.683
404,0.671567,2934.039
405,0.673117,2934.039
406,0.674783,2879.053
407,0.67645,2826.154
408,0.678117,2826.154
409,0.679783,2776.533
410,0.68145,2730.489
411,0.683117,2684.817
412,0.684783,2684.817
413,0.68645,2642.348
414,0.6881,2604.723
415,0.689767,2565.756
416,0.691433,2565.756
417,0.6931,2529.472
418,0.694767,2490.878
419,0.696433,2490.878
420,0.6981000000000001,2453.923
421,0.699767,2416.298
422,0.701433,2382.994
423,0.7030999999999999,2382.994
424,0.704767,2350.435
425,0.70645,2314.672
426,0.7081,2283.529
427,0.709767,2283.529
428,0.711433,2251.044
429,0.713083,2219.677
430,0.71475,2192.035
431,0.716417,2192.035
432,0.718083,2164.617
433,0.71975,2138.168
434,0.721417,2111.197
435,0.723083,2111.197
436,0.72475,2086.535
437,0.726417,2064.183
438,0.728083,2064.183
439,0.72975,2043.769
440,0.731417,2025.887
441,0.733083,2007.335
442,0.73475,2007.335
443,0.736417,1986.399
444,0.738083,1963.824
445,0.73975,1944.527
446,0.741417,1944.527
447,0.743083,1925.006
448,0.74475,1903.772
449,0.746417,1883.879
450,0.748067,1883.879
451,0.749767,1865.998
452,0.7514,1848.564
453,0.753067,1848.564
454,0.754733,1833.513
455,0.7564,1817.197
456,0.758083,1801.699
457,0.759733,1801.699
458,0.7614,1786.649
459,0.7630670000000001,1772.568
460,0.764733,1759.157
461,0.7664,1759.157
462,0.7680670000000001,1743.361
463,0.769733,1731.515
464,0.7714,1719.37
465,0.7730669999999999,1719.37
466,0.774733,1707.45
467,0.7764,1694.337
468,0.778067,1679.733
469,0.779733,1679.733
470,0.7814,1666.546
471,0.783067,1654.476
472,0.784733,1654.476
473,0.7864,1644.567
474,0.788067,1634.359
475,0.789783,1624.152
476,0.7914,1624.152
477,0.793067,1613.87
478,0.794733,1603.663
479,0.7964,1594.573
480,0.798067,1594.573
481,0.799733,1583.621
482,0.8014,1575.351
483,0.803067,1566.187
484,0.804733,1566.187
485,0.8064,1559.109
486,0.80805,1551.732
487,0.809717,1551.732
488,0.811383,1543.984
489,0.8130500000000001,1536.98
490,0.814717,1527.965
491,0.816383,1527.965
492,0.8180500000000001,1519.471
493,0.819717,1512.617
494,0.821383,1505.986
495,0.8230499999999999,1505.986
496,0.824717,1497.865
497,0.826383,1490.265
498,0.82805,1480.207
499,0.829717,1480.207
500,0.831383,1473.129
501,0.83305,1466.87
502,0.834717,1466.87
503,0.836383,1461.953
504,0.83805,1457.334
505,0.839717,1449.51
506,0.841383,1449.51
507,0.84305,1445.562
508,0.8447170000000001,1441.687
509,0.846383,1439.899
510,0.84805,1439.899
511,0.8497169999999999,1434.609
512,0.851383,1426.935
513,0.85305,1419.112
514,0.8547169999999999,1419.112
515,0.856383,1412.928
516,0.85805,1410.171
517,0.859717,1408.234
518,0.861383,1408.234
519,0.863067,1404.807
520,0.864717,1400.188
521,0.866367,1400.188
522,0.8680330000000001,1395.717
523,0.8697,1389.161
524,0.871367,1387.075
525,0.8730329999999999,1387.075
526,0.874717,1384.094
527,0.876367,1381.189
528,0.878033,1378.804
529,0.8797,1378.804
530,0.881367,1375.079
531,0.883033,1368.821
532,0.8847,1366.437
533,0.886367,1366.437
534,0.888033,1363.978
535,0.8897,1358.092
536,0.891383,1358.092
537,0.893033,1354.143
538,0.8947000000000001,1350.79
539,0.896367,1346.841
540,0.898033,1346.841
541,0.8997000000000001,1344.234
542,0.901367,1343.712
543,0.903033,1337.752
544,0.9046999999999999,1337.752
545,0.906367,1334.25
546,0.90815,1334.995
547,0.9097,1333.356
548,0.911367,1333.356
549,0.913033,1332.387
550,0.9147,1329.556
551,0.916367,1321.137
552,0.918033,1321.137
553,0.9197,1316.667
554,0.921367,1312.941
555,0.923033,1312.941
556,0.9247,1310.93
557,0.9263670000000001,1315.251
558,0.928017,1313.612
559,0.929683,1313.612
560,0.93135,1314.357
561,0.933017,1311.824
562,0.934683,1305.938
563,0.93635,1305.938
564,0.938017,1302.66
565,0.939683,1298.264
566,0.94135,1293.942
567,0.943017,1293.942
568,0.9446830000000001,1292.154
569,0.94635,1292.005
570,0.948017,1292.005
571,0.9496830000000001,1291.26
572,0.95135,1292.676
573,0.953017,1293.123
574,0.9546829999999999,1293.123
575,0.95635,1290.664
576,0.958017,1289.397
577,0.959683,1286.864
578,0.961367,1286.864
579,0.963017,1281.574
580,0.964683,1280.382
581,0.96635,1276.359
582,0.968017,1276.359
583,0.969683,1275.39
584,0.97135,1276.359
585,0.973017,1275.092
586,0.974683,1275.092
587,0.9763500000000001,1275.39
588,0.978017,1273.23
589,0.979683,1273.23
590,0.9813499999999999,1269.355
591,0.983017,1264.438
592,0.984683,1260.638
593,0.9863499999999999,1260.638
594,0.988017,1258.329
595,0.989667,1257.733
596,0.991333,1257.733
597,0.993083,1257.733
598,0.994667,1258.999
599,0.996333,1259.893
600,0.998,1261.756
601,0.999667,1261.756
602,1.001333,1263.395
603,1.003,1261.532
604,1.00465,1261.532
605,1.006317,1257.956
606,1.007983,1253.411
607,1.00965,1251.325
608,1.011317,1251.325
609,1.012983,1251.847
610,1.01465,1252.964
611,1.016317,1251.325
612,1.017983,1251.325
613,1.01965,1247.227
614,1.021317,1244.396
615,1.022983,1240.894
616,1.02465,1240.894
617,1.026383,1240.671
618,1.027983,1241.937
619,1.02965,1241.937
620,1.031317,1240
621,1.032983,1240.149
622,1.03465,1238.584
623,1.036317,1238.584
624,1.038017,1239.777
625,1.03965,1240
626,1.041317,1239.553
627,1.042983,1239.553
628,1.04465,1239.255
629,1.046317,1237.467
630,1.047967,1237.467
631,1.049633,1237.467
632,1.0513,1236.647
633,1.052967,1235.902
634,1.054633,1235.753
635,1.0563,1235.753
636,1.057967,1235.008
637,1.059633,1233.146
638,1.0613,1233.146
639,1.062967,1232.475
640,1.064633,1231.059
641,1.0663,1228.452
642,1.067967,1228.452
643,1.069633,1231.357
644,1.0713,1232.997
645,1.072967,1232.251
646,1.074633,1232.251
647,1.0763,1234.71
648,1.077967,1231.432
649,1.079633,1229.346
650,1.0813,1229.346
651,1.082967,1227.483
652,1.084633,1223.013
653,1.0863,1223.013
654,1.087967,1222.342
655,1.089633,1219.884
656,1.0913,1219.139
657,1.092967,1219.139
658,1.094633,1220.182
659,1.0963,1219.809
660,1.097967,1218.542
661,1.09965,1218.542
662,1.1013,1215.413
663,1.102983,1215.041
664,1.104633,1213.402
665,1.1063,1213.402
666,1.107967,1215.488
667,1.109617,1217.276
668,1.1113,1216.605
669,1.11295,1216.605
670,1.114617,1216.754
671,1.116283,1214.892
672,1.11795,1214.892
673,1.119617,1215.562
674,1.121283,1212.433
675,1.12295,1210.645
676,1.124617,1210.645
677,1.126283,1209.974
678,1.128067,1209.751
679,1.129617,1211.762
680,1.131283,1211.762
681,1.13295,1213.327
682,1.134617,1214.296
683,1.136283,1213.774
684,1.13795,1213.774
685,1.139617,1214.594
686,1.141283,1212.806
687,1.14295,1212.806
688,1.144733,1210.421
689,1.146283,1207.367
690,1.14795,1206.398
691,1.149617,1206.398
692,1.151283,1208.186
693,1.15295,1209.602
694,1.154617,1209.602
695,1.156283,1209.602
696,1.15795,1207.59
697,1.159617,1203.418
698,1.161283,1202.375
699,1.16295,1202.375
700,1.164617,1203.194
701,1.166283,1203.865
702,1.167933,1205.131
703,1.1696,1205.131
704,1.171267,1204.833
705,1.172933,1203.418
706,1.1746,1203.418
707,1.176283,1202.077
708,1.177933,1204.759
709,1.1796,1207.069
710,1.181267,1207.069
711,1.182933,1208.708
712,1.1846,1208.112
713,1.186267,1204.312
714,1.187933,1204.312
715,1.1896,1201.63
716,1.191267,1198.351
717,1.192933,1201.406
718,1.1946,1201.406
719,1.196267,1201.928
720,1.197933,1200.065
721,1.1996,1200.065
722,1.201267,1200.81
723,1.202933,1200.065
724,1.2046,1201.034
725,1.206267,1201.034
726,1.207933,1204.312
727,1.2096,1204.386
728,1.211267,1203.269
729,1.212933,1203.269
730,1.214617,1202.673
731,1.216267,1200.214
732,1.217933,1199.99
733,1.2196,1199.99
734,1.221267,1198.277
735,1.222933,1194.552
736,1.2246,1194.552
737,1.226267,1191.944
738,1.227917,1189.56
739,1.229617,1191.05
740,1.23125,1191.05
741,1.232917,1194.328
742,1.234583,1197.457
743,1.23625,1200.512
744,1.237917,1200.512
745,1.239583,1201.108
746,1.24125,1203.045
747,1.242917,1203.269
748,1.244583,1203.269
749,1.24635,1204.982
750,1.247917,1206.174
751,1.249583,1204.312
752,1.25125,1204.312
753,1.252917,1205.057
754,1.254583,1202.002
755,1.25625,1202.002
756,1.257917,1197.532
757,1.259583,1196.265
758,1.26125,1192.465
759,1.263,1192.465
760,1.264583,1190.379
761,1.26625,1190.826
762,1.267917,1187.772
763,1.269583,1187.772
764,1.27125,1188.144
765,1.272917,1190.156
766,1.274583,1189.783
767,1.27625,1189.783
768,1.277917,1193.136
769,1.279683,1194.477
770,1.28125,1194.477
771,1.282933,1195.595
772,1.284583,1196.712
773,1.28625,1196.34
774,1.287917,1196.34
775,1.289567,1199.842
776,1.291233,1200.587
777,1.2929,1200.587
778,1.294567,1200.587
779,1.296217,1198.947
780,1.297883,1196.563
781,1.29955,1194.179
782,1.301217,1194.179
783,1.302883,1193.21
784,1.30455,1193.285
785,1.306217,1193.136
786,1.307883,1193.136
787,1.30955,1194.104
788,1.311233,1193.509
789,1.312883,1193.509
790,1.31455,1194.999
791,1.316217,1193.732
792,1.317883,1195.222
793,1.31955,1195.222
794,1.321217,1195.669
795,1.322883,1195.222
796,1.32455,1194.104
797,1.326217,1194.104
798,1.327883,1192.316
799,1.32955,1193.21
800,1.331217,1194.924
801,1.332883,1194.924
802,1.33455,1195.073
803,1.336217,1195.669
804,1.337883,1195.669
805,1.33955,1194.03
806,1.341217,1192.093
807,1.342883,1191.05
808,1.34455,1191.05
809,1.346217,1187.101
810,1.347917,1188.219
811,1.349533,1186.281
812,1.3512,1186.281
813,1.352867,1187.474
814,1.354533,1188.889
815,1.3562,1187.921
816,1.357867,1187.921
817,1.359533,1191.199
818,1.3612,1189.038
819,1.362867,1189.932
820,1.364617,1189.932
821,1.3662,1188.74
822,1.367867,1186.207
823,1.369533,1186.207
824,1.3712,1186.132
825,1.372867,1186.654
826,1.374533,1188.964
827,1.3762,1188.964
828,1.377867,1188.442
829,1.379533,1190.826
830,1.3813,1191.199
831,1.382867,1191.199
832,1.384533,1191.348
833,1.3862,1190.454
834,1.387867,1190.826
835,1.38955,1190.826
836,1.3912,1189.411
837,1.392867,1189.113
838,1.394533,1189.113
839,1.3962,1189.187
840,1.39795,1189.187
841,1.399533,1190.454
842,1.4012,1190.454
843,1.402867,1186.877
844,1.404533,1185.76
845,1.4062,1185.834
846,1.40785,1185.834
847,1.409517,1184.195
848,1.411183,1183.599
849,1.41285,1184.791
850,1.414517,1184.791
851,1.416183,1183.972
852,1.41785,1185.611
853,1.419517,1185.611
854,1.421183,1188.368
855,1.42285,1189.113
856,1.424517,1187.324
857,1.426183,1187.324
858,1.42785,1184.94
859,1.429517,1183.823
860,1.431183,1183.376
861,1.43285,1183.376
862,1.434517,1184.195
863,1.436183,1184.27
864,1.43785,1180.545
865,1.439517,1180.545
866,1.441183,1181.141
867,1.44285,1179.948
868,1.444517,1178.756
869,1.446183,1178.756
870,1.447883,1181.886
871,1.449517,1181.811
872,1.451183,1181.811
873,1.45285,1182.333
874,1.454533,1185.462
875,1.456183,1185.76
876,1.45785,1185.76
877,1.459517,1185.313
878,1.461183,1185.387
879,1.46285,1183.674
880,1.464517,1183.674
881,1.466183,1183.525
882,1.46785,1184.866
883,1.4695,1186.281
884,1.471167,1186.281
885,1.472833,1186.132
886,1.4745,1186.207
887,1.476167,1186.207
888,1.477833,1185.983
889,1.4795,1183.972
890,1.481167,1183.525
891,1.48285,1183.525
892,1.4845,1186.505
893,1.486167,1186.505
894,1.487833,1186.654
895,1.4895,1186.654
896,1.491167,1186.654
897,1.492833,1183.227
898,1.4945,1180.693
899,1.496167,1180.693
900,1.497833,1180.023
901,1.499533,1178.086
902,1.501167,1177.043
903,1.502833,1177.043
904,1.5045,1177.49
905,1.506167,1177.49
906,1.507833,1177.49
907,1.5095,1179.129
908,1.511167,1179.874
909,1.512833,1179.278
910,1.5145,1179.278
