"ID","sea_time","fid_signal"
1,0,1226.217
2,0.001667,1226.217
3,0.003333,1227.632
4,0.005,1228.75
5,0.006667,1225.844
6,0.008333,1225.844
7,0.01,1214.892
8,0.011667,1206.696
9,0.013333,1201.704
10,0.015,1201.704
11,0.01675,1201.406
12,0.018317,1208.633
13,0.019983,1208.633
14,0.02165,1215.711
15,0.023317,1219.064
16,0.024983,1221.821
17,0.02665,1221.821
18,0.028317,1221.448
19,0.029983,1221.597
20,0.03165,1218.766
21,0.033317,1218.766
22,0.034983,1212.731
23,0.03665,1212.06
24,0.038317,1214.594
25,0.039983,1214.594
26,0.04165,1217.425
27,0.043317,1219.287
28,0.044983,1219.884
29,0.04665,1219.884
30,0.048317,1216.754
31,0.049983,1215.637
32,0.051667,1215.637
33,0.053317,1217.723
34,0.054983,1218.766
35,0.05665,1218.617
36,0.058317,1218.617
37,0.059983,1218.17
38,0.06165,1222.044
39,0.063317,1221.076
40,0.064983,1221.076
41,0.06665,1218.021
42,0.068317,1220.554
43,0.069983,1216.531
44,0.07165000000000001,1216.531
45,0.07331699999999999,1215.637
46,0.07498299999999999,1215.786
47,0.07665,1215.786
48,0.07829999999999999,1214.519
49,0.079967,1215.637
50,0.081633,1217.276
51,0.0833,1217.276
52,0.084967,1220.331
53,0.086633,1223.236
54,0.0883,1223.087
55,0.08996700000000001,1223.087
56,0.09163300000000001,1222.417
57,0.09329999999999999,1220.554
58,0.094967,1218.617
59,0.096633,1218.617
60,0.0983,1219.958
61,0.099967,1220.48
62,0.101683,1223.907
63,0.1033,1223.907
64,0.104967,1223.534
65,0.106633,1221.001
66,0.1083,1221.001
67,0.109967,1218.99
68,0.111633,1218.17
69,0.1133,1216.605
70,0.114967,1216.605
71,0.116633,1216.382
72,0.118367,1217.276
73,0.119967,1216.382
74,0.121617,1216.382
75,0.1233,1217.052
76,0.12495,1214.743
77,0.126617,1212.88
78,0.128283,1212.88
79,0.12995,1211.464
80,0.131617,1208.41
81,0.133283,1208.41
82,0.135033,1211.539
83,0.1366,1213.923
84,0.138267,1216.829
85,0.139933,1216.829
86,0.1416,1218.99
87,0.143267,1216.307
88,0.144933,1215.488
89,0.1466,1215.488
90,0.148267,1212.582
91,0.149933,1211.539
92,0.1516,1212.656
93,0.153267,1212.656
94,0.154933,1210.57
95,0.1566,1212.284
96,0.158267,1212.284
97,0.159933,1213.849
98,0.1616,1212.507
99,0.163267,1215.264
100,0.164933,1215.264
101,0.1666,1214.817
102,0.168267,1214.147
103,0.169933,1217.872
104,0.1716,1217.872
105,0.173267,1214.37
106,0.174933,1213.402
107,0.1766,1213.849
108,0.178267,1213.849
109,0.179933,1211.464
110,0.1816,1213.774
111,0.183267,1214.296
112,0.184933,1214.296
113,0.1866,1212.433
114,0.188267,1209.676
115,0.189933,1209.676
116,0.1916,1210.198
117,0.1933,1211.688
118,0.194933,1210.794
119,0.1966,1210.794
120,0.19825,1211.39
121,0.199917,1207.814
122,0.201583,1206.771
123,0.20325,1206.771
124,0.204917,1208.484
125,0.2066,1210.868
126,0.20825,1214.817
127,0.209917,1214.817
128,0.211583,1211.911
129,0.21325,1214.147
130,0.214917,1214.147
131,0.216583,1215.413
132,0.21825,1213.551
133,0.219917,1216.382
134,0.221583,1216.382
135,0.22325,1212.806
136,0.224917,1211.688
137,0.2266,1213.029
138,0.22825,1213.029
139,0.229917,1213.7
140,0.231583,1213.253
141,0.23325,1211.986
142,0.234917,1211.986
143,0.236633,1212.06
144,0.23825,1211.613
145,0.239917,1212.433
146,0.241583,1212.433
147,0.24325,1211.315
148,0.244917,1209.229
149,0.246583,1209.229
150,0.24825,1209.378
151,0.249917,1210.719
152,0.251583,1213.7
153,0.253333,1213.7
154,0.254917,1212.88
155,0.256583,1211.315
156,0.258233,1210.57
157,0.2599,1210.57
158,0.261567,1209.602
159,0.263233,1209.378
160,0.2649,1207.814
161,0.266567,1207.814
162,0.268233,1204.982
163,0.27,1205.206
164,0.271567,1205.206
165,0.273233,1209.825
166,0.2749,1211.688
167,0.276567,1213.029
168,0.278233,1213.029
169,0.2799,1210.645
170,0.281567,1206.323
171,0.283233,1203.567
172,0.2849,1203.567
173,0.286567,1206.398
174,0.288233,1209.527
175,0.2899,1215.115
176,0.291567,1215.115
177,0.29325,1218.99
178,0.2949,1218.766
179,0.296567,1218.766
180,0.298233,1218.095
181,0.2999,1216.233
182,0.301567,1216.754
183,0.303233,1216.754
184,0.3049,1218.617
185,0.306567,1221.15
186,0.308233,1226.589
187,0.3099,1226.589
188,0.311567,1230.687
189,0.313233,1234.859
190,0.3149,1240.447
191,0.316567,1240.447
192,0.318217,1245.365
193,0.319883,1255.944
194,0.32155,1267.94
195,0.323217,1267.94
196,0.324883,1284.033
197,0.32655,1300.573
198,0.328217,1300.573
199,0.329883,1316.89
200,0.33155,1341.179
201,0.333217,1365.766
202,0.334883,1365.766
203,0.33655,1397.654
204,0.338217,1431.704
205,0.339883,1469.702
206,0.34155,1469.702
207,0.343217,1513.734
208,0.344883,1561.195
209,0.34655,1617.074
210,0.348217,1617.074
211,0.349883,1676.232
212,0.35155,1740.009
213,0.353217,1740.009
214,0.354917,1812.801
215,0.35655,1896.471
216,0.358217,1988.038
217,0.359883,1988.038
218,0.36155,2088.994
219,0.363217,2200.976
220,0.364883,2326.369
221,0.36655,2326.369
222,0.368217,2474.114
223,0.369883,2655.61
224,0.371633,2875.104
225,0.373217,2875.104
226,0.374883,3145.635
227,0.376533,3492.385
228,0.3782,3931.15
229,0.379867,3931.15
230,0.381533,4493.967
231,0.3832,5217.194
232,0.384867,5217.194
233,0.386533,6126.836
234,0.388283,7269.233
235,0.389867,8689.761
236,0.391533,8689.761
237,0.3932,10451.675
238,0.394867,12630.001
239,0.396533,15321.821
240,0.3982,15321.821
241,0.399867,18643.887
242,0.401533,22710.859
243,0.4032,27624.518
244,0.404867,27624.518
245,0.40655,33442.973
246,0.4082,40171.445
247,0.409867,40171.445
248,0.411517,47747.492
249,0.413183,56059.063
250,0.41485,64949.395
251,0.416517,64949.395
252,0.418183,74223.352
253,0.41985,83670.992
254,0.421517,93071.164
255,0.423183,93071.164
256,0.42485,102206.32
257,0.426517,110873.875
258,0.428183,118887.203
259,0.42985,118887.203
260,0.431517,126085.805
261,0.433183,132334.375
262,0.43485,132334.375
263,0.4365,137533.844
264,0.438167,141613.938
265,0.439833,144535.156
266,0.4415,144535.156
267,0.443167,146293.047
268,0.444833,146892.672
269,0.4465,146369.047
270,0.448167,146369.047
271,0.449833,144776.922
272,0.4515,142181.063
273,0.453167,138668.047
274,0.454833,138668.047
275,0.4565,134334.047
276,0.458167,129284.188
277,0.459833,123630.836
278,0.4615,123630.836
279,0.463167,117483.141
280,0.464833,110954.492
281,0.4665,110954.492
282,0.468167,104154.648
283,0.469833,97185.82000000001
284,0.4715,90155.156
285,0.473167,90155.156
286,0.474833,83154.664
287,0.4765,76269.42999999999
288,0.478167,69586.039
289,0.479833,69586.039
290,0.4815,63174.59
291,0.483167,57091.563
292,0.484833,51381.066
293,0.4865,51381.066
294,0.488167,46075.211
295,0.48985,41193.141
296,0.4915,41193.141
297,0.493167,36747.23
298,0.494833,32740.758
299,0.4965,29160.307
300,0.49815,29160.307
301,0.499817,25980.695
302,0.501483,23177.416
303,0.50315,20716.936
304,0.504817,20716.936
305,0.506583,18559.396
306,0.50815,16670.301
307,0.509817,15014.336
308,0.511483,15014.336
309,0.51315,13557.598
310,0.514817,12271.554
311,0.516483,11133.254
312,0.51815,11133.254
313,0.519817,10123.104
314,0.521483,9222.552
315,0.52315,9222.552
316,0.524817,8417.517
317,0.526483,7700.101
318,0.52815,7052.496
319,0.529817,7052.496
320,0.531483,6475.3
321,0.53315,5962.178
322,0.534817,5501.956
323,0.536483,5501.956
324,0.53815,5091.354
325,0.539817,4723.37
326,0.5415,4394.874
327,0.54315,4394.874
328,0.544817,4103.705
329,0.5465,3845.17
330,0.54815,3845.17
331,0.549817,3614.873
332,0.5514829999999999,3408.939
333,0.55315,3223.047
334,0.554817,3223.047
335,0.5564829999999999,3059.059
336,0.558133,2913.624
337,0.5598,2780.333
338,0.561467,2780.333
339,0.563133,2665.147
340,0.5648,2562.627
341,0.5664670000000001,2469.346
342,0.568133,2469.346
343,0.5698,2388.954
344,0.5714669999999999,2313.629
345,0.573133,2244.711
346,0.5748,2244.711
347,0.576467,2182.275
348,0.578133,2123.639
349,0.5798,2123.639
350,0.581467,2071.038
351,0.583133,2022.535
352,0.5848,1977.98
353,0.586467,1977.98
354,0.588133,1940.876
355,0.5898,1907.721
356,0.591467,1879.484
357,0.593133,1879.484
358,0.5948,1852.065
359,0.596467,1824.051
360,0.598133,1797.527
361,0.5998,1797.527
362,0.601467,1769.438
363,0.603133,1747.832
364,0.6048,1747.832
365,0.606467,1730.248
366,0.608183,1709.685
367,0.6098,1691.133
368,0.611467,1691.133
369,0.613133,1670.42
370,0.6148,1651.943
371,0.616467,1636.669
372,0.61815,1636.669
373,0.619783,1629.293
374,0.6214499999999999,1619.756
375,0.623117,1609.325
376,0.6249169999999999,1609.325
377,0.62645,1601.204
378,0.628117,1589.209
379,0.6298,1581.758
380,0.63145,1581.758
381,0.633117,1572.52
382,0.634783,1562.163
383,0.63645,1562.163
384,0.638117,1555.532
385,0.639783,1543.984
386,0.64145,1535.937
387,0.643117,1535.937
388,0.644783,1531.243
389,0.64645,1520.663
390,0.6481170000000001,1514.182
391,0.649783,1514.182
392,0.65145,1507.923
393,0.6531169999999999,1499.504
394,0.654783,1492.873
395,0.65645,1492.873
396,0.658117,1486.093
397,0.659783,1481.473
398,0.66145,1481.473
399,0.663117,1474.619
400,0.664783,1469.851
401,0.66645,1466.796
402,0.668117,1466.796
403,0.669783,1462.772
404,0.67145,1459.792
405,0.673117,1454.353
406,0.674783,1454.353
407,0.67645,1448.616
408,0.678117,1439.452
409,0.679767,1436.472
410,0.681433,1436.472
411,0.6831,1436.025
412,0.684767,1432.076
413,0.686433,1432.076
414,0.688133,1432.3
415,0.689767,1427.829
416,0.691433,1422.688
417,0.693117,1422.688
418,0.694767,1421.273
419,0.696433,1416.057
420,0.6981000000000001,1412.556
421,0.699767,1412.556
422,0.701433,1406.744
423,0.703083,1401.827
424,0.70475,1398.847
425,0.706417,1398.847
426,0.708083,1397.058
427,0.709817,1398.548
428,0.711417,1400.262
429,0.713083,1400.262
430,0.71475,1399.964
431,0.716417,1396.015
432,0.718083,1396.015
433,0.71975,1389.31
434,0.721417,1382.902
435,0.723083,1380.891
436,0.72475,1380.891
437,0.726417,1379.55
438,0.728083,1381.338
439,0.72975,1379.028
440,0.731417,1379.028
441,0.733083,1373.813
442,0.73475,1370.609
443,0.736417,1366.511
444,0.738067,1366.511
445,0.739733,1366.809
446,0.7413999999999999,1364.946
447,0.743167,1360.104
448,0.744733,1360.104
449,0.7464,1359.135
450,0.748067,1355.633
451,0.749733,1355.633
452,0.7514,1352.802
453,0.753067,1353.249
454,0.754733,1350.343
455,0.7564,1350.343
456,0.758067,1347.363
457,0.75975,1347.959
458,0.7614,1346.618
459,0.7630670000000001,1346.618
460,0.764733,1344.681
461,0.7664,1343.563
462,0.7680670000000001,1340.955
463,0.769733,1340.955
464,0.7714,1339.912
465,0.7730669999999999,1337.379
466,0.774733,1337.379
467,0.7764,1334.846
468,0.778067,1333.505
469,0.779733,1331.642
470,0.7814,1331.642
471,0.783067,1330.078
472,0.784733,1328.513
473,0.7864,1325.458
474,0.788067,1325.458
475,0.789733,1322.255
476,0.7914,1321.36
477,0.793067,1319.796
478,0.794733,1319.796
479,0.796383,1322.18
480,0.79805,1322.031
481,0.799717,1322.031
482,0.801383,1321.882
483,0.80305,1322.031
484,0.804733,1320.615
485,0.806383,1320.615
486,0.80805,1321.957
487,0.809717,1322.478
488,0.811383,1323.67
489,0.8130500000000001,1323.67
490,0.814717,1323.447
491,0.816383,1321.211
492,0.8180500000000001,1318.902
493,0.819717,1318.902
494,0.821383,1317.561
495,0.8230499999999999,1312.345
496,0.824717,1308.173
497,0.826383,1308.173
498,0.8280999999999999,1303.852
499,0.829717,1300.275
500,0.831383,1300.275
501,0.83305,1297.817
502,0.834717,1297.444
503,0.836383,1297.444
504,0.83805,1297.444
505,0.839717,1294.24
506,0.841383,1297.966
507,0.84305,1300.275
508,0.8447170000000001,1300.275
509,0.846383,1300.126
510,0.84805,1301.318
511,0.8497169999999999,1300.35
512,0.851383,1300.35
513,0.85305,1297.966
514,0.8547169999999999,1294.613
515,0.856383,1294.613
516,0.858033,1293.421
517,0.8597,1289.397
518,0.861467,1287.609
519,0.8630330000000001,1287.609
520,0.864717,1289.77
521,0.866367,1290.292
522,0.8680330000000001,1291.26
523,0.8697,1291.26
524,0.871367,1291.558
525,0.8730329999999999,1291.931
526,0.8747,1290.068
527,0.876367,1290.068
528,0.878033,1290.739
529,0.8797,1289.994
530,0.881367,1289.994
531,0.883033,1290.217
532,0.8847,1288.876
533,0.886367,1284.257
534,0.888033,1284.257
535,0.8897,1282.543
536,0.891367,1280.382
537,0.893033,1279.935
538,0.8947000000000001,1279.935
539,0.896367,1281.5
540,0.898033,1281.053
541,0.8997000000000001,1277.253
542,0.901367,1277.253
543,0.903033,1277.551
544,0.9046999999999999,1278.371
545,0.906367,1278.445
546,0.908033,1278.445
547,0.9097,1280.084
548,0.911367,1278.222
549,0.913033,1278.222
550,0.9147,1277.626
551,0.916367,1277.775
552,0.918017,1280.457
553,0.9197,1280.457
554,0.92135,1283.288
555,0.923017,1279.414
556,0.924683,1280.308
557,0.92635,1280.308
558,0.928017,1276.359
559,0.929683,1275.539
560,0.93135,1277.178
561,0.933017,1277.178
562,0.934683,1272.857
563,0.93635,1271.442
564,0.938017,1271.442
565,0.939683,1266.822
566,0.94135,1263.097
567,0.943017,1261.383
568,0.9446830000000001,1261.383
569,0.946383,1263.469
570,0.948017,1264.438
571,0.9496830000000001,1267.046
572,0.95135,1267.046
573,0.953017,1268.238
574,0.9546829999999999,1265.034
575,0.95635,1267.195
576,0.958017,1267.195
577,0.959683,1265.109
578,0.96135,1263.767
579,0.963067,1265.705
580,0.964683,1265.705
581,0.96635,1265.109
582,0.968017,1267.493
583,0.969683,1267.493
584,0.97135,1268.983
585,0.973017,1266.226
586,0.974683,1264.736
587,0.976367,1264.736
588,0.978,1260.266
589,0.9797670000000001,1257.807
590,0.981333,1260.191
591,0.983,1260.191
592,0.984667,1259.819
593,0.986333,1263.395
594,0.988,1265.705
595,0.989667,1265.705
596,0.991333,1263.842
597,0.9929829999999999,1262.873
598,0.99465,1262.873
599,0.996317,1257.211
600,0.997983,1254.529
601,0.99965,1253.858
602,1.001317,1253.858
603,1.002983,1253.188
604,1.00465,1257.062
605,1.006317,1256.764
606,1.007983,1256.764
607,1.00965,1254.976
608,1.011317,1256.391
609,1.012983,1257.211
610,1.01465,1257.211
611,1.016317,1255.646
612,1.017983,1254.827
613,1.01965,1252.517
614,1.021317,1252.517
