"ID","sea_time","fid_signal"
1,0,1204.759
2,0.001667,1205.578
3,0.003333,1205.578
4,0.005,1205.206
5,0.006667,1204.982
6,0.008333,1200.363
7,0.01,1200.363
8,0.011667,1197.01
9,0.013333,1195.669
10,0.015,1190.603
11,0.016667,1190.603
12,0.018317,1192.987
13,0.019983,1194.999
14,0.02165,1198.649
15,0.023317,1198.649
16,0.024983,1200.736
17,0.02665,1200.14
18,0.028317,1200.14
19,0.029983,1199.916
20,0.03165,1195.818
21,0.033317,1194.85
22,0.034983,1194.85
23,0.03665,1200.289
24,0.038417,1203.12
25,0.039983,1203.939
26,0.04165,1203.939
27,0.043317,1208.931
28,0.044983,1204.461
29,0.04665,1200.512
30,0.048333,1200.512
31,0.049983,1203.716
32,0.05165,1202.673
33,0.053317,1204.461
34,0.054983,1204.461
35,0.05665,1207.069
36,0.058317,1205.504
37,0.059983,1205.504
38,0.06165,1203.641
39,0.063317,1203.79
40,0.064983,1202.449
41,0.06665,1202.449
42,0.068317,1202.971
43,0.07000000000000001,1204.535
44,0.07165000000000001,1203.865
45,0.0733,1203.865
46,0.07498299999999999,1205.429
47,0.07663300000000001,1204.386
48,0.07829999999999999,1203.343
49,0.079967,1203.343
50,0.081633,1203.418
51,0.0833,1203.418
52,0.084967,1203.418
53,0.086633,1201.555
54,0.0883,1199.469
55,0.08995,1199.245
56,0.091617,1199.245
57,0.093283,1195.818
58,0.09495000000000001,1195.446
59,0.09661699999999999,1199.096
60,0.098283,1199.096
61,0.099967,1199.022
62,0.101617,1202.077
63,0.103283,1207.218
64,0.10495,1207.218
65,0.106617,1204.61
66,0.108283,1205.429
67,0.10995,1203.194
68,0.111617,1203.194
69,0.113283,1201.332
70,0.11495,1201.034
71,0.116617,1201.034
72,0.1183,1200.289
73,0.11995,1200.512
74,0.121617,1195.222
75,0.123283,1195.222
76,0.12495,1192.167
77,0.126617,1191.944
78,0.128283,1194.254
79,0.12995,1194.254
80,0.131617,1201.108
81,0.133283,1206.547
82,0.134933,1206.696
83,0.1366,1206.696
84,0.138267,1207.143
85,0.13995,1203.641
86,0.1416,1203.641
87,0.143267,1203.865
88,0.144933,1202.375
89,0.1466,1198.873
90,0.148267,1198.873
91,0.149933,1196.489
92,0.1516,1191.869
93,0.1533,1192.912
94,0.154933,1192.912
95,0.156733,1194.924
96,0.158267,1198.128
97,0.159933,1202.449
98,0.1616,1202.449
99,0.163267,1204.014
100,0.164933,1205.057
101,0.1666,1205.057
102,0.168267,1207.367
103,0.169933,1205.28
104,0.1716,1203.194
105,0.173267,1203.194
106,0.174933,1201.257
107,0.1766,1198.947
108,0.178267,1199.096
109,0.179933,1199.096
110,0.1816,1201.928
111,0.183267,1202.002
112,0.184933,1200.587
113,0.1866,1200.587
114,0.188267,1203.641
115,0.189933,1201.853
116,0.1916,1201.257
117,0.193267,1201.257
118,0.194933,1200.959
119,0.196583,1197.606
120,0.19825,1197.606
121,0.199917,1198.202
122,0.201583,1195.148
123,0.20325,1195.595
124,0.204917,1195.595
125,0.206583,1194.626
126,0.20825,1191.944
127,0.209917,1194.999
128,0.211583,1194.999
129,0.21325,1195.967
130,0.214917,1196.414
131,0.216583,1198.277
132,0.21825,1198.277
133,0.219917,1198.873
134,0.221583,1195.967
135,0.22325,1195.967
136,0.224917,1193.956
137,0.226583,1190.528
138,0.228267,1187.995
139,0.229917,1187.995
140,0.231583,1190.454
141,0.23325,1191.348
142,0.234917,1194.254
143,0.236583,1194.254
144,0.23825,1195.893
145,0.239917,1195.818
146,0.241633,1197.83
147,0.24325,1197.83
148,0.244917,1197.234
149,0.246583,1198.426
150,0.24825,1198.202
151,0.249917,1198.202
152,0.251583,1197.904
153,0.25325,1196.787
154,0.2549,1196.787
155,0.256567,1193.881
156,0.25825,1193.807
157,0.2599,1193.657
158,0.261567,1193.657
159,0.263233,1193.434
160,0.2649,1192.018
161,0.266567,1188.889
162,0.268267,1188.889
163,0.2699,1186.132
164,0.271567,1184.94
165,0.273233,1188.517
166,0.275,1188.517
167,0.276567,1190.901
168,0.278233,1190.603
169,0.2799,1190.603
170,0.281567,1193.881
171,0.283233,1195.595
172,0.2849,1197.01
173,0.286567,1197.01
174,0.288233,1201.481
175,0.2899,1201.928
176,0.291567,1201.928
177,0.293233,1201.928
178,0.2949,1200.512
179,0.296567,1195.967
180,0.298233,1198.5
181,0.2999,1198.5
182,0.301567,1197.308
183,0.303233,1196.414
184,0.3049,1202.151
185,0.306567,1202.151
186,0.308233,1203.865
187,0.3099,1208.112
188,0.311567,1208.112
189,0.313233,1216.233
190,0.3149,1222.64
191,0.31655,1227.632
192,0.31825,1227.632
193,0.319883,1236.349
194,0.32155,1243.8
195,0.323217,1254.752
196,0.324883,1254.752
197,0.32655,1270.175
198,0.328233,1286.492
199,0.329883,1310.334
200,0.33155,1310.334
201,0.333217,1331.419
202,0.334883,1356.527
203,0.33655,1356.527
204,0.338217,1387.298
205,0.339883,1422.912
206,0.34155,1463.592
207,0.343217,1463.592
208,0.344883,1506.433
209,0.34655,1555.458
210,0.348217,1608.804
211,0.349883,1608.804
212,0.35155,1668.11
213,0.353217,1734.868
214,0.354883,1804.382
215,0.35655,1804.382
216,0.358217,1878.515
217,0.35995,1966.283
218,0.36155,2065.823
219,0.363217,2065.823
220,0.364883,2176.166
221,0.36655,2301.335
222,0.368217,2301.335
223,0.369883,2443.194
224,0.37155,2605.617
225,0.3732,2796.874
226,0.374867,2796.874
227,0.376633,3027.618
228,0.3782,3310.293
229,0.379867,3656.82
230,0.381517,3656.82
231,0.383183,4083.44
232,0.38485,4608.78
233,0.386517,5250.946
234,0.388183,5250.946
235,0.38985,6035.417
236,0.391517,6982.014
237,0.3933,8107.871
238,0.39485,8107.871
239,0.396517,9434.298000000001
240,0.398183,10984.167
241,0.39985,10984.167
242,0.401517,12791.38
243,0.403183,14885.664
244,0.40485,17296.299
245,0.406517,17296.299
246,0.408183,20047.799
247,0.40985,23146.197
248,0.411533,26581.436
249,0.413183,26581.436
250,0.41485,30316.338
251,0.416517,34290.18
252,0.418183,34290.18
253,0.41985,38416.98
254,0.421517,42600.035
255,0.423183,46735.48
256,0.42485,46735.48
257,0.426517,50717.52
258,0.428183,54451.078
259,0.42985,57843.402
260,0.431517,57843.402
261,0.433183,60818.047
262,0.434833,63306.391
263,0.4365,65260.754
264,0.438167,65260.754
265,0.439833,66648.79700000001
266,0.4415,67452.266
267,0.443167,67672.359
268,0.444833,67672.359
269,0.4465,67322.32799999999
270,0.448167,66428.633
271,0.449833,66428.633
272,0.4515,65032.094
273,0.453167,63183.977
274,0.454833,60941.352
275,0.4565,60941.352
276,0.458167,58367.773
277,0.459833,55527.613
278,0.4615,52486.957
279,0.463167,52486.957
280,0.464833,49312.934
281,0.4665,46064.93
282,0.468167,42800.977
283,0.469833,42800.977
284,0.4715,39574.949
285,0.473167,36430.285
286,0.474833,36430.285
287,0.4765,33406.465
288,0.478217,30541.121
289,0.479833,27853.027
290,0.4815,27853.027
291,0.483167,25355.295
292,0.484833,23058.281
293,0.4865,20957.514
294,0.488167,20957.514
295,0.489833,19048.229
296,0.4915,17320.215
297,0.493167,15761.107
298,0.494817,15761.107
299,0.496483,14356.375
300,0.49815,13088.51
301,0.499817,11945.068
302,0.501483,11945.068
303,0.503167,10911.896
304,0.504817,9972.527
305,0.506483,9972.527
306,0.50815,9123.013000000001
307,0.509817,8351.579
308,0.511567,7653.013
309,0.51315,7653.013
310,0.514817,7025.152
311,0.516483,6455.257
312,0.51815,5946.01
313,0.519817,5946.01
314,0.521483,5484.819
315,0.52315,5066.618
316,0.524817,4689.693
317,0.526483,4689.693
318,0.52825,4349.202
319,0.529817,4045.591
320,0.531483,4045.591
321,0.53315,3773.198
322,0.534817,3532.916
323,0.536483,3316.849
324,0.53815,3316.849
325,0.539817,3126.487
326,0.541483,2954.751
327,0.54315,2802.089
328,0.544817,2802.089
329,0.5464830000000001,2665.669
330,0.54815,2541.616
331,0.549817,2432.838
332,0.5514829999999999,2432.838
333,0.55315,2333.224
334,0.554817,2244.487
335,0.5565,2244.487
336,0.558133,2162.755
337,0.559867,2090.931
338,0.561467,2027.079
339,0.563133,2027.079
340,0.5648,1971.722
341,0.5664670000000001,1921.281
342,0.568133,1872.703
343,0.5698,1872.703
344,0.5714669999999999,1828.521
345,0.573133,1787.767
346,0.5748,1752.377
347,0.576467,1752.377
348,0.578133,1724.139
349,0.5798,1698.36
350,0.581467,1673.773
351,0.583133,1673.773
352,0.5848,1651.719
353,0.586467,1627.356
354,0.588133,1627.356
355,0.5898,1606.345
356,0.591467,1585.26
357,0.593133,1566.41
358,0.5948,1566.41
359,0.596467,1553.968
360,0.598133,1537.949
361,0.5998,1523.867
362,0.601467,1523.867
363,0.603133,1509.86
364,0.6048,1496.673
365,0.606467,1487.732
366,0.608133,1487.732
367,0.6098,1479.909
368,0.611467,1472.756
369,0.6132,1462.027
370,0.614783,1462.027
371,0.6164500000000001,1453.534
372,0.618117,1444.668
373,0.619783,1444.668
374,0.6214499999999999,1437.515
375,0.623117,1432.076
376,0.624783,1424.7
377,0.62645,1424.7
378,0.6281330000000001,1416.43
379,0.629883,1410.618
380,0.63145,1405.925
381,0.6331329999999999,1405.925
382,0.634783,1398.698
383,0.63645,1395.494
384,0.638117,1388.863
385,0.639783,1388.863
386,0.64145,1384.243
387,0.643117,1382.902
388,0.644783,1382.902
389,0.646567,1378.581
390,0.6481170000000001,1372.844
391,0.649783,1367.778
392,0.65145,1367.778
393,0.6531169999999999,1363.456
394,0.654783,1360.029
395,0.65645,1358.837
396,0.658117,1358.837
397,0.659783,1353.845
398,0.66145,1349.747
399,0.663117,1347.959
400,0.664783,1347.959
401,0.66645,1344.979
402,0.668117,1341.104
403,0.669783,1341.104
404,0.67145,1340.359
405,0.6731,1337.081
406,0.67475,1333.728
407,0.676417,1333.728
408,0.6781,1331.121
409,0.67975,1327.991
410,0.6814170000000001,1326.799
411,0.683083,1326.799
412,0.68475,1327.47
413,0.6864170000000001,1327.768
414,0.688083,1324.043
415,0.68975,1324.043
416,0.6914169999999999,1321.435
417,0.6931,1316.518
418,0.69475,1314.506
419,0.696417,1314.506
420,0.698083,1314.953
421,0.69975,1314.729
422,0.701417,1314.729
423,0.703083,1314.878
424,0.70475,1309.291
425,0.706417,1303.554
426,0.708083,1303.554
427,0.70975,1296.848
428,0.71145,1296.028
429,0.713083,1297.072
430,0.71475,1297.072
431,0.716417,1297.891
432,0.718083,1298.338
433,0.71975,1295.805
434,0.721417,1295.805
435,0.723083,1294.911
436,0.72475,1293.346
437,0.726417,1293.346
438,0.728083,1289.919
439,0.72975,1288.801
440,0.731467,1288.95
441,0.733083,1288.95
442,0.734733,1286.045
443,0.7364000000000001,1287.684
444,0.738067,1285.896
445,0.739733,1285.896
446,0.7413999999999999,1283.363
447,0.743067,1284.257
448,0.744733,1284.182
449,0.7464,1284.182
450,0.748067,1281.053
451,0.749733,1279.563
452,0.7514,1279.563
453,0.753067,1278.073
454,0.754733,1275.241
455,0.7564,1272.41
456,0.758067,1272.41
457,0.759733,1273.379
458,0.7614,1271.889
459,0.7630670000000001,1272.559
460,0.764817,1272.559
461,0.7664,1275.316
462,0.7680670000000001,1275.241
463,0.769767,1273.379
464,0.7714,1273.379
465,0.7730669999999999,1270.25
466,0.774733,1268.536
467,0.7764,1264.736
468,0.778067,1264.736
469,0.779733,1263.693
470,0.7814,1264.661
471,0.783067,1264.661
472,0.784733,1266.003
473,0.7864,1267.418
474,0.788067,1270.175
475,0.789733,1270.175
476,0.7914,1269.579
477,0.793067,1270.547
478,0.794733,1269.951
479,0.796383,1269.951
480,0.79805,1266.226
481,0.79975,1261.756
482,0.801383,1256.317
483,0.80305,1256.317
484,0.804717,1253.56
485,0.806383,1254.529
486,0.80805,1254.529
487,0.809717,1255.348
488,0.811383,1256.54
489,0.8130500000000001,1256.317
490,0.814717,1256.317
491,0.816383,1255.423
492,0.8180500000000001,1254.454
493,0.819717,1254.156
494,0.821383,1254.156
495,0.8230499999999999,1254.454
496,0.824717,1256.391
497,0.826383,1257.286
498,0.82805,1257.286
499,0.829717,1256.987
500,0.831383,1255.795
501,0.83305,1252.89
502,0.834717,1252.89
503,0.836383,1252.07
504,0.83805,1250.207
505,0.839717,1250.207
506,0.841383,1249.611
507,0.84305,1247.749
508,0.8447170000000001,1245.067
509,0.846383,1245.067
510,0.84805,1242.459
511,0.8497670000000001,1241.341
512,0.851383,1244.023
513,0.85305,1244.023
514,0.8547169999999999,1246.035
515,0.856367,1249.76
516,0.858033,1247.525
517,0.8597,1247.525
518,0.861367,1246.035
519,0.8630330000000001,1245.365
520,0.8647,1245.365
521,0.866367,1239.926
522,0.8680330000000001,1241.565
523,0.8697,1240.671
524,0.871367,1240.671
525,0.8730329999999999,1237.914
526,0.8747,1239.479
527,0.876367,1238.957
528,0.878033,1238.957
529,0.8797,1239.404
530,0.881367,1240.671
531,0.88315,1241.937
532,0.8847,1241.937
533,0.886367,1239.851
534,0.888033,1232.997
535,0.8897,1233.742
536,0.891367,1233.742
537,0.893033,1228.973
538,0.8947000000000001,1227.409
539,0.896367,1227.409
540,0.898033,1230.314
541,0.8997000000000001,1226.366
542,0.901367,1227.409
543,0.903033,1227.409
544,0.9046999999999999,1231.208
545,0.906367,1233.816
546,0.908033,1237.914
547,0.9097,1237.914
548,0.911367,1239.851
549,0.913033,1239.255
550,0.914683,1235.828
551,0.91635,1235.828
552,0.918017,1233.593
553,0.919683,1232.251
554,0.92135,1232.251
555,0.923017,1229.122
556,0.924683,1228.899
557,0.92635,1229.197
558,0.928017,1229.197
559,0.929683,1226.887
560,0.93135,1228.452
561,0.933017,1230.24
562,0.934683,1230.24
563,0.93635,1228.973
564,0.938017,1232.997
565,0.939683,1232.103
566,0.94135,1232.103
567,0.943017,1230.463
568,0.9446830000000001,1230.389
569,0.94635,1226.813
570,0.948017,1226.813
571,0.9496830000000001,1225.397
572,0.95135,1224.13
573,0.953017,1224.13
574,0.9546829999999999,1223.236
575,0.95635,1221.374
576,0.958017,1222.342
577,0.9597,1222.342
578,0.96135,1221.374
579,0.963017,1219.734
580,0.9646670000000001,1223.683
581,0.966333,1223.683
582,0.968083,1224.652
583,0.9696669999999999,1226.142
584,0.971333,1226.366
585,0.973,1226.366
586,0.97465,1226.738
587,0.976317,1223.46
588,0.977983,1223.46
589,0.97965,1222.789
590,0.981317,1223.907
591,0.9829830000000001,1222.64
592,0.98465,1222.64
593,0.986317,1223.087
594,0.9879829999999999,1225.173
595,0.98965,1224.279
596,0.991317,1224.279
597,0.9929829999999999,1225.099
598,0.99465,1225.546
599,0.996317,1225.173
600,0.997983,1225.173
601,0.99965,1225.099
602,1.001417,1223.832
603,1.002983,1223.832
604,1.00465,1223.236
605,1.006317,1222.789
606,1.007983,1223.609
607,1.00965,1223.609
608,1.011317,1221.597
609,1.012983,1222.491
610,1.01465,1221.299
611,1.016317,1221.299
612,1.017983,1222.119
613,1.01965,1223.534
614,1.021317,1222.715
