"ID","sea_time","fid_signal"
1,0,38.944
2,0.001667,38.928
3,0.003333,38.928
4,0.004983,38.934
5,0.00665,38.85
6,0.008317,38.85
7,0.009983000000000001,38.619
8,0.01165,38.376
9,0.013317,38.186
10,0.014983,38.186
11,0.01665,38.167
12,0.018317,38.365
13,0.019983,38.569
14,0.02165,38.569
15,0.023317,38.731
16,0.024983,38.826
17,0.02665,38.822
18,0.028317,38.822
19,0.029983,38.812
20,0.03165,38.814
21,0.033317,38.795
22,0.034983,38.795
23,0.03665,38.809
24,0.038317,38.863
25,0.04,38.863
26,0.04165,38.891
27,0.043433,38.893
28,0.044983,38.896
29,0.04665,38.896
30,0.048317,38.873
31,0.049983,38.873
32,0.05165,38.889
33,0.053317,38.889
34,0.054983,38.889
35,0.05665,38.894
36,0.058317,38.859
37,0.060017,38.859
38,0.06165,38.842
39,0.063317,38.841
40,0.064983,38.841
41,0.066633,38.873
42,0.0683,38.935
43,0.069967,38.961
44,0.071633,38.961
45,0.0733,38.993
46,0.07496700000000001,39.014
47,0.07675,38.995
48,0.07829999999999999,38.995
49,0.079967,39.005
50,0.081633,38.996
51,0.0833,38.961
52,0.084967,38.961
53,0.08665,38.951
54,0.0883,38.936
55,0.08996700000000001,38.928
56,0.09163300000000001,38.928
57,0.09329999999999999,38.937
58,0.094967,38.914
59,0.096633,38.914
60,0.0983,38.917
61,0.099967,38.9
62,0.101633,38.867
63,0.1033,38.867
64,0.104967,38.867
65,0.106633,38.854
66,0.1083,38.856
67,0.109967,38.856
68,0.111633,38.885
69,0.113317,38.881
70,0.115017,38.853
71,0.116633,38.853
72,0.1183,38.841
73,0.119967,38.809
74,0.121633,38.809
75,0.1233,38.812
76,0.12495,38.853
77,0.126617,38.887
78,0.128283,38.887
79,0.12995,38.908
80,0.131617,38.908
81,0.133283,38.905
82,0.13495,38.905
83,0.136617,38.911
84,0.138283,38.927
85,0.13995,38.952
86,0.141617,38.952
87,0.143283,38.964
88,0.14495,38.972
89,0.146617,38.972
90,0.148283,38.984
91,0.14995,38.965
92,0.151617,38.934
93,0.153283,38.934
94,0.15495,38.893
95,0.156617,38.879
96,0.158283,38.875
97,0.15995,38.875
98,0.161633,38.872
99,0.163283,38.902
100,0.16495,38.869
101,0.166617,38.869
102,0.168267,38.893
103,0.169933,38.926
104,0.1716,38.892
105,0.173267,38.892
106,0.174933,38.908
107,0.1766,38.887
108,0.178317,38.887
109,0.179933,38.885
110,0.1816,38.925
111,0.183267,38.926
112,0.18495,38.926
113,0.186617,38.953
114,0.18825,38.958
115,0.189917,38.948
116,0.191583,38.948
117,0.19325,38.961
118,0.195033,38.955
119,0.196583,38.93
120,0.19825,38.93
121,0.199917,38.924
122,0.201583,38.894
123,0.20325,38.894
124,0.204917,38.87
125,0.206583,38.847
126,0.20825,38.818
127,0.209917,38.818
128,0.211583,38.845
129,0.21325,38.86
130,0.214917,38.92
131,0.216583,38.92
132,0.21825,38.961
133,0.219917,38.961
134,0.221583,38.964
135,0.22325,38.964
136,0.224917,38.942
137,0.226583,38.903
138,0.22825,38.873
139,0.229917,38.873
140,0.231583,38.895
141,0.23325,38.898
142,0.234917,38.898
143,0.236583,38.93
144,0.23825,38.962
145,0.239917,38.939
146,0.241583,38.939
147,0.24325,38.93
148,0.2449,38.936
149,0.246567,38.961
150,0.248233,38.961
151,0.2499,38.975
152,0.251567,38.966
153,0.25325,38.952
154,0.2549,38.952
155,0.256567,38.915
156,0.258233,38.931
157,0.2599,38.931
158,0.261583,38.94
159,0.263233,38.952
160,0.2649,38.967
161,0.266567,38.967
162,0.268233,38.927
163,0.2699,38.932
164,0.271567,38.924
165,0.273233,38.924
166,0.2749,38.89
167,0.276567,38.885
168,0.278233,38.862
169,0.2799,38.862
170,0.281567,38.861
171,0.283233,38.876
172,0.2849,38.878
173,0.286567,38.878
174,0.288233,38.912
175,0.2899,38.926
176,0.291567,38.926
177,0.293233,38.942
178,0.2949,38.937
179,0.296567,38.904
180,0.298233,38.904
181,0.2999,38.868
182,0.301567,38.872
183,0.303233,38.872
184,0.304883,38.872
185,0.30655,38.873
186,0.308217,38.876
187,0.309883,38.847
188,0.31155,38.847
189,0.3133,38.878
190,0.314883,38.891
191,0.31655,38.891
192,0.318217,38.911
193,0.319883,38.915
194,0.32155,38.881
195,0.323217,38.881
196,0.324883,38.887
197,0.32655,38.907
198,0.328233,38.953
199,0.329883,38.953
200,0.33155,38.965
201,0.333217,38.968
202,0.334883,38.964
203,0.33655,38.964
204,0.338217,38.911
205,0.339883,38.935
206,0.34155,38.935
207,0.343217,38.953
208,0.344883,38.952
209,0.34655,38.97
210,0.348217,38.97
211,0.349883,38.943
212,0.35155,38.94
213,0.353217,38.926
214,0.354883,38.926
215,0.35655,38.934
216,0.358217,38.96
217,0.359883,38.921
218,0.36155,38.921
219,0.363217,38.946
220,0.364867,38.971
221,0.366533,38.967
222,0.3682,38.967
223,0.369867,38.99
224,0.371533,38.951
225,0.3732,38.951
226,0.374867,38.907
227,0.376533,38.919
228,0.3782,38.956
229,0.379867,38.956
230,0.381533,38.993
231,0.3832,39.028
232,0.384867,39.046
233,0.386533,39.046
234,0.3882,39.067
235,0.389867,39.106
236,0.391533,39.154
237,0.3932,39.154
238,0.394867,39.197
239,0.396533,39.245
240,0.398267,39.294
241,0.399867,39.294
242,0.401533,39.344
243,0.4032,39.428
244,0.404867,39.428
245,0.406533,39.484
246,0.4082,39.569
247,0.409867,39.689
248,0.411533,39.689
249,0.4132,39.834
250,0.414867,40.018
251,0.416533,40.232
252,0.4182,40.232
253,0.419867,40.465
254,0.421533,40.694
255,0.4232,40.995
256,0.42485,40.995
257,0.426517,41.314
258,0.428183,41.685
259,0.42985,41.685
260,0.431583,42.16
261,0.433183,42.67
262,0.43485,43.29
263,0.43655,43.29
264,0.438183,43.972
265,0.43985,44.74
266,0.441517,45.618
267,0.443183,45.618
268,0.44485,46.605
269,0.446517,47.75
270,0.448183,49.007
271,0.44985,49.007
272,0.451517,50.378
273,0.453183,51.968
274,0.45485,51.968
275,0.456517,53.761
276,0.458183,55.74
277,0.459833,57.96
278,0.4615,57.96
279,0.463167,60.406
280,0.464833,63.096
281,0.4665,66.14
282,0.468167,66.14
283,0.469833,69.506
284,0.4715,73.215
285,0.473167,77.294
286,0.474833,77.294
287,0.4765,81.76900000000001
288,0.478167,86.679
289,0.479833,86.679
290,0.4815,92.001
291,0.48315,97.81
292,0.484817,104.082
293,0.486483,104.082
294,0.48815,110.865
295,0.489817,118.159
296,0.491483,125.986
297,0.49315,125.986
298,0.494817,134.335
299,0.496483,143.223
300,0.49815,152.66
301,0.499817,152.66
302,0.501483,162.625
303,0.50315,173.144
304,0.504817,184.183
305,0.506483,184.183
306,0.50815,195.719
307,0.509817,207.736
308,0.511483,207.736
309,0.51315,220.185
310,0.514833,233.06
311,0.51655,246.35
312,0.51815,246.35
313,0.519817,260.034
314,0.521483,274.079
315,0.52315,288.399
316,0.524817,288.399
317,0.526483,302.978
318,0.52815,317.726
319,0.529817,332.635
320,0.531483,332.635
321,0.53315,347.679
322,0.534817,362.775
323,0.536483,362.775
324,0.53815,377.93
325,0.539817,393.06
326,0.541483,408.115
327,0.54315,408.115
328,0.5448,423.099
329,0.546467,437.932
330,0.548133,452.601
331,0.549933,452.601
332,0.551467,467.076
333,0.553133,481.305
334,0.5548,495.271
335,0.556467,495.271
336,0.558133,508.94
337,0.5598,522.304
338,0.561467,535.288
339,0.563133,535.288
340,0.5648,547.886
341,0.5664670000000001,560.112
342,0.568133,560.112
343,0.5698,571.929
344,0.5714669999999999,583.345
345,0.573133,594.36
346,0.5748,594.36
347,0.576467,604.931
348,0.578133,615.018
349,0.5798,624.6609999999999
350,0.581467,624.6609999999999
351,0.583133,633.85
352,0.5848,642.586
353,0.586467,650.899
354,0.588133,650.899
355,0.5898,658.761
356,0.591467,666.147
357,0.593133,666.147
358,0.5948,673.098
359,0.596467,679.6
360,0.59815,685.673
361,0.5998,685.673
362,0.601467,691.336
363,0.603133,696.553
364,0.604783,701.386
365,0.60645,701.386
366,0.60815,705.838
367,0.609783,709.856
368,0.61145,713.474
369,0.613117,713.474
370,0.614783,716.73
371,0.6164500000000001,719.622
372,0.618117,722.212
373,0.619783,722.212
374,0.6214499999999999,724.457
375,0.623117,726.351
376,0.624783,726.351
377,0.62645,727.943
378,0.628117,729.244
379,0.629783,730.25
380,0.63145,730.25
381,0.633117,730.981
382,0.634817,731.476
383,0.63645,731.707
384,0.638117,731.707
385,0.639783,731.677
386,0.64145,731.417
387,0.643117,730.883
388,0.644783,730.883
389,0.64645,730.105
390,0.6481170000000001,729.175
391,0.649783,729.175
392,0.6515,728.0650000000001
393,0.6531169999999999,726.774
394,0.654783,725.3099999999999
395,0.65645,725.3099999999999
396,0.658117,723.665
397,0.659783,721.848
398,0.66145,719.87
399,0.663117,719.87
400,0.664783,717.769
401,0.6664330000000001,715.5309999999999
402,0.6682,713.187
403,0.669767,713.187
404,0.6714329999999999,710.704
405,0.6731,708.122
406,0.674767,705.455
407,0.676433,705.455
408,0.6781,702.655
409,0.679767,699.799
410,0.681433,699.799
411,0.6831,696.818
412,0.684867,693.774
413,0.686433,690.658
414,0.6881,690.658
415,0.689767,687.446
416,0.691433,684.202
417,0.6931,680.851
418,0.694767,680.851
419,0.696433,677.484
420,0.6981000000000001,674.093
421,0.699767,670.617
422,0.701433,670.617
423,0.7030999999999999,667.129
424,0.704767,663.604
425,0.706433,663.604
426,0.7081,660.015
427,0.709767,656.432
428,0.711433,652.785
429,0.7131,652.785
430,0.714767,649.127
431,0.716433,645.441
432,0.7181,641.704
433,0.719767,641.704
434,0.721433,637.992
435,0.7231,634.218
436,0.72475,630.478
437,0.726417,630.478
438,0.728083,626.7430000000001
439,0.72975,622.9589999999999
440,0.731417,622.9589999999999
441,0.733083,619.172
442,0.73475,615.3920000000001
443,0.736417,611.624
444,0.738083,611.624
445,0.73975,607.8819999999999
446,0.741417,604.145
447,0.743083,600.37
448,0.744767,600.37
449,0.746417,596.571
450,0.7480830000000001,592.821
451,0.749733,589.079
452,0.7514,589.079
453,0.7531330000000001,585.362
454,0.754733,581.6900000000001
455,0.7564,577.968
456,0.758067,577.968
457,0.759733,574.284
458,0.7614,570.611
459,0.7630670000000001,570.611
460,0.764733,566.9299999999999
461,0.7664,563.277
462,0.7680670000000001,559.653
463,0.7698,559.653
464,0.7714,556.021
465,0.7730669999999999,552.429
466,0.774733,548.851
467,0.7764,548.851
468,0.778067,545.245
469,0.779733,541.668
470,0.7814,538.103
471,0.783067,538.103
472,0.784717,534.599
473,0.78645,531.073
474,0.78805,531.073
475,0.789717,527.574
476,0.7913829999999999,524.077
477,0.79305,520.591
478,0.794717,520.591
479,0.796383,517.135
480,0.79805,513.716
481,0.799717,510.334
482,0.801383,510.334
483,0.803133,506.937
484,0.804717,503.588
485,0.806383,500.271
486,0.80805,500.271
487,0.809717,496.98
488,0.811383,493.705
489,0.8130500000000001,490.476
490,0.814717,490.476
491,0.816383,487.212
492,0.818083,483.982
493,0.819717,483.982
494,0.821383,480.79
495,0.8230499999999999,477.626
496,0.824717,474.518
497,0.826383,474.518
498,0.82805,471.418
499,0.829717,468.346
500,0.831383,465.281
501,0.83305,465.281
502,0.834717,462.256
503,0.836383,459.234
504,0.83805,456.221
505,0.839717,456.221
506,0.841383,453.231
507,0.84305,450.278
508,0.8447170000000001,450.278
509,0.846367,447.356
510,0.848033,444.452
511,0.8497,441.574
512,0.851367,441.574
513,0.853033,438.672
514,0.8547,435.806
515,0.856367,432.969
516,0.858033,432.969
517,0.8597,430.173
518,0.861367,427.436
519,0.8630330000000001,424.684
520,0.8647,424.684
521,0.866367,421.982
522,0.8680330000000001,419.257
523,0.8697,416.529
524,0.871367,416.529
525,0.8730329999999999,413.866
526,0.8747,411.205
527,0.876367,411.205
528,0.878033,408.589
529,0.8797,406.011
530,0.881367,403.413
531,0.883033,403.413
532,0.8847,400.846
533,0.886367,398.305
534,0.888133,395.74
535,0.8897,395.74
536,0.891367,393.213
537,0.89305,390.714
538,0.8947000000000001,388.268
539,0.896367,388.268
540,0.898033,385.886
541,0.8997000000000001,383.53
542,0.901367,383.53
543,0.903033,381.19
544,0.904733,378.782
545,0.90635,376.395
546,0.908017,376.395
547,0.909683,374.007
548,0.91135,371.636
549,0.913017,369.344
550,0.914683,369.344
551,0.91635,367.033
552,0.918017,364.744
553,0.919683,362.477
554,0.921367,362.477
555,0.923017,360.2
556,0.924683,357.972
557,0.92635,357.972
558,0.928017,355.779
559,0.929683,353.602
560,0.93135,351.441
561,0.933017,351.441
562,0.934683,349.306
563,0.93635,347.202
564,0.938017,345.057
565,0.939683,345.057
566,0.94135,342.984
567,0.943017,340.894
568,0.9446830000000001,338.819
569,0.94635,338.819
570,0.948017,336.819
571,0.9496830000000001,334.825
572,0.95135,332.832
573,0.953017,332.832
574,0.9546829999999999,330.864
575,0.95635,328.879
576,0.958017,328.879
577,0.959683,326.896
578,0.96135,324.975
579,0.963017,323.046
580,0.9646670000000001,323.046
581,0.966333,321.147
582,0.968,319.274
583,0.9696669999999999,317.406
584,0.971333,317.406
585,0.973,315.548
586,0.974667,313.738
587,0.976333,311.9
588,0.978,311.9
589,0.979667,310.08
590,0.981333,308.307
591,0.983,308.307
592,0.984667,306.483
593,0.986333,304.703
594,0.988,302.957
595,0.989667,302.957
596,0.991333,301.171
597,0.993,299.453
598,0.994667,297.732
599,0.996333,297.732
600,0.998,296.015
601,0.999667,294.333
602,1.001333,292.652
603,1.003017,292.652
604,1.004667,290.996
605,1.006333,289.337
606,1.008,287.728
607,1.009667,287.728
608,1.011333,286.102
609,1.013,284.48
610,1.014667,284.48
611,1.016333,282.871
612,1.018,281.262
613,1.019667,279.681
614,1.021333,279.681
615,1.023033,278.13
616,1.02465,276.625
617,1.026317,275.116
618,1.027983,275.116
619,1.02965,273.596
620,1.031317,272.094
621,1.032983,270.568
622,1.03465,270.568
623,1.036317,269.061
624,1.038,267.586
625,1.039717,266.13
626,1.0413,266.13
627,1.042967,264.667
628,1.044633,263.215
629,1.0463,263.215
630,1.047967,261.794
631,1.049633,260.363
632,1.0513,258.97
633,1.052967,258.97
634,1.054633,257.605
635,1.0563,256.239
636,1.057967,254.876
637,1.059633,254.876
638,1.0613,253.502
639,1.062967,252.119
640,1.064633,250.749
641,1.0663,250.749
642,1.067983,249.401
643,1.069633,248.094
644,1.0713,248.094
645,1.072967,246.785
646,1.074633,245.512
647,1.0763,244.21
648,1.077967,244.21
649,1.079633,242.906
650,1.0813,241.637
651,1.082967,240.328
652,1.084617,240.328
653,1.086283,239.109
654,1.08795,237.888
655,1.089633,236.657
656,1.091283,236.657
657,1.09295,235.447
658,1.094617,234.244
659,1.096283,234.244
660,1.09795,233.044
661,1.099617,231.826
662,1.101283,230.64
663,1.10295,230.64
664,1.104617,229.442
665,1.106283,228.278
666,1.10795,227.147
667,1.109617,227.147
668,1.111283,226.02
669,1.11295,224.891
670,1.114617,223.745
671,1.116283,223.745
672,1.11795,222.62
673,1.119617,221.503
674,1.121283,221.503
675,1.12295,220.393
676,1.124617,219.283
677,1.126283,218.208
678,1.12795,218.208
679,1.129617,217.111
680,1.131283,216.007
681,1.13295,214.949
682,1.134617,214.949
683,1.136283,213.884
684,1.13795,212.827
685,1.139617,211.767
686,1.141267,211.767
687,1.14295,210.726
688,1.1446,209.668
689,1.146267,208.654
690,1.147933,208.654
691,1.1496,207.672
692,1.151267,206.645
693,1.152933,206.645
694,1.1546,205.665
695,1.156267,204.7
696,1.15805,203.73
697,1.1596,203.73
698,1.161267,202.795
699,1.162933,201.816
700,1.1646,200.818
701,1.166267,200.818
702,1.167933,199.835
703,1.1696,198.859
704,1.171267,197.939
705,1.172933,197.939
706,1.174617,197.005
707,1.176267,196.07
708,1.177933,196.07
709,1.1796,195.155
710,1.181267,194.216
711,1.182933,193.319
712,1.1846,193.319
713,1.186267,192.449
714,1.187933,191.582
715,1.1896,190.699
716,1.191267,190.699
717,1.192933,189.818
718,1.1946,188.93
719,1.196267,188.031
720,1.197933,188.031
721,1.1996,187.189
722,1.201267,186.343
723,1.202933,185.476
724,1.204583,185.476
725,1.20625,184.639
726,1.207917,183.813
727,1.209583,183.813
728,1.21125,182.979
729,1.212917,182.202
730,1.214583,181.375
731,1.21625,181.375
732,1.217917,180.541
733,1.219583,179.714
734,1.22125,178.877
735,1.222917,178.877
736,1.224583,178.083
737,1.22625,177.298
738,1.227917,176.512
739,1.229583,176.512
740,1.23125,175.758
741,1.232917,174.991
742,1.234583,174.991
743,1.23625,174.199
744,1.237917,173.436
745,1.239583,172.676
746,1.24125,172.676
747,1.24295,171.918
748,1.244583,171.173
749,1.24625,170.466
750,1.247917,170.466
751,1.249583,169.699
752,1.25125,168.964
753,1.252917,168.228
754,1.254583,168.228
755,1.25625,167.491
756,1.257917,166.78
757,1.259583,166.066
758,1.26125,166.066
759,1.262917,165.363
760,1.264567,164.649
761,1.266233,164.649
762,1.2679,163.97
763,1.269567,163.262
764,1.271233,162.582
765,1.2729,162.582
766,1.274567,161.885
767,1.276317,161.152
768,1.2779,160.445
769,1.279567,160.445
770,1.281233,159.733
771,1.2829,159.044
772,1.284567,158.394
773,1.286233,158.394
774,1.2879,157.738
775,1.289567,157.107
776,1.291233,157.107
777,1.2929,156.484
778,1.294567,155.85
779,1.29625,155.228
780,1.2979,155.228
781,1.299567,154.57
782,1.301233,153.948
783,1.3029,153.324
784,1.304567,153.324
785,1.306233,152.703
786,1.3079,152.104
787,1.309567,151.459
788,1.311233,151.459
789,1.3129,150.816
790,1.314567,150.201
791,1.316233,150.201
792,1.3179,149.579
793,1.319583,148.999
794,1.321283,148.434
795,1.322883,148.434
796,1.32455,147.861
797,1.326217,147.282
798,1.327883,146.686
799,1.32955,146.686
800,1.331217,146.121
801,1.332867,145.561
802,1.334533,145.012
803,1.3362,145.012
804,1.337867,144.465
805,1.339533,143.863
806,1.3412,143.276
807,1.342867,143.276
808,1.344533,142.711
809,1.3462,142.142
810,1.347867,142.142
811,1.349533,141.601
812,1.3512,141.069
813,1.352867,140.516
814,1.354533,140.516
815,1.3562,139.958
816,1.357867,139.441
817,1.359533,138.921
818,1.36125,138.921
819,1.362867,138.392
820,1.364533,137.886
821,1.3662,137.361
822,1.367867,137.361
823,1.369533,136.84
824,1.3712,136.335
825,1.372867,136.335
826,1.374533,135.842
827,1.3762,135.341
828,1.377867,134.843
829,1.379533,134.843
830,1.3812,134.334
831,1.382867,133.83
832,1.384517,133.302
833,1.386183,133.302
834,1.38785,132.766
835,1.38955,132.29
836,1.391183,131.78
837,1.39285,131.78
838,1.394617,131.295
839,1.396183,130.819
840,1.39785,130.334
841,1.399517,130.334
842,1.401183,129.867
843,1.40285,129.418
844,1.404517,129.418
845,1.406183,128.948
846,1.40785,128.455
847,1.409517,127.993
848,1.411183,127.993
849,1.41285,127.527
850,1.414517,127.096
851,1.416183,126.677
852,1.41785,126.677
853,1.419517,126.229
854,1.421183,125.787
855,1.42285,125.32
856,1.424517,125.32
857,1.426183,124.861
858,1.42785,124.408
859,1.429517,124.408
860,1.431183,123.948
861,1.43285,123.506
862,1.434517,123.09
863,1.436183,123.09
864,1.43785,122.663
865,1.439517,122.266
866,1.441183,121.873
867,1.442833,121.873
868,1.444517,121.418
869,1.446167,121.021
870,1.447833,120.607
871,1.4495,120.607
872,1.451167,120.193
873,1.452833,119.808
874,1.4545,119.402
875,1.456167,119.402
876,1.457833,118.995
877,1.4595,118.582
878,1.461167,118.582
879,1.462833,118.188
880,1.4645,117.779
881,1.466167,117.364
882,1.467833,117.364
883,1.4695,116.953
884,1.471183,116.529
885,1.472833,116.13
886,1.4745,116.13
887,1.476167,115.753
888,1.477833,115.378
889,1.479533,115.014
890,1.481167,115.014
891,1.482833,114.655
892,1.4845,114.286
893,1.486167,114.286
894,1.487833,113.929
895,1.4895,113.565
896,1.491167,113.185
897,1.492833,113.185
898,1.4945,112.829
899,1.496233,112.46
900,1.497833,112.103
901,1.4995,112.103
902,1.501167,111.737
903,1.502817,111.353
904,1.504483,111.016
905,1.50615,111.016
906,1.507817,110.65
907,1.509483,110.287
908,1.51115,110.287
909,1.51295,109.987
910,1.514483,109.635
911,1.51615,109.325
912,1.517817,109.325
913,1.519483,109.007
914,1.52115,108.612
915,1.522817,108.279
916,1.524483,108.279
917,1.52615,107.925
918,1.527817,107.596
919,1.529483,107.292
920,1.53115,107.292
921,1.532817,106.964
922,1.5345,106.618
923,1.53615,106.27
924,1.537817,106.27
925,1.539483,105.938
926,1.54115,105.597
927,1.542817,105.597
928,1.544483,105.288
929,1.54615,104.965
930,1.547817,104.644
931,1.549483,104.644
932,1.55115,104.327
933,1.552817,104.018
934,1.554483,103.698
935,1.556167,103.698
936,1.557817,103.395
937,1.559483,103.088
938,1.56115,102.811
939,1.5628,102.811
940,1.564467,102.548
941,1.566133,102.275
942,1.5678,102.275
943,1.569467,101.978
944,1.571133,101.638
945,1.5728,101.314
946,1.574467,101.314
947,1.576133,100.963
948,1.5778,100.662
949,1.579467,100.356
950,1.581133,100.356
951,1.5828,100.075
952,1.584467,99.815
953,1.586133,99.504
954,1.5878,99.504
955,1.589467,99.22799999999999
956,1.591133,98.943
957,1.5928,98.637
958,1.594467,98.637
959,1.596133,98.36799999999999
960,1.597833,98.11499999999999
961,1.599467,98.11499999999999
962,1.601133,97.837
963,1.6028,97.56699999999999
964,1.604467,97.322
965,1.606133,97.322
966,1.6078,97.03700000000001
967,1.609467,96.777
968,1.611133,96.51900000000001
969,1.6128,96.51900000000001
970,1.614533,96.25700000000001
