"ID","sea_time","fid_signal"
1,0,1177.117
2,0.001667,1177.937
3,0.003333,1179.054
4,0.005,1176.819
5,0.006667,1176.819
6,0.008333,1178.607
7,0.01,1176.149
8,0.011733,1173.392
9,0.013333,1173.392
10,0.015,1172.125
11,0.016667,1170.635
12,0.018333,1172.87
13,0.019983,1172.87
14,0.02165,1174.063
15,0.023317,1177.117
16,0.024983,1178.756
17,0.02665,1178.756
18,0.02835,1178.831
19,0.029983,1178.831
20,0.03165,1178.831
21,0.033317,1178.309
22,0.034983,1178.607
23,0.03665,1178.235
24,0.038317,1178.235
25,0.039983,1180.246
26,0.04165,1179.799
27,0.043317,1180.246
28,0.0451,1180.246
29,0.04665,1176.596
30,0.048317,1176.894
31,0.049983,1177.043
32,0.05165,1177.043
33,0.053317,1174.435
34,0.054967,1179.352
35,0.056633,1179.352
36,0.0583,1179.576
37,0.059967,1179.054
38,0.061633,1180.47
39,0.0633,1180.47
40,0.064967,1176.67
41,0.066633,1173.765
42,0.0683,1174.584
43,0.069967,1174.584
44,0.071633,1175.851
45,0.0733,1179.948
46,0.07496700000000001,1183.078
47,0.07663300000000001,1183.078
48,0.07828300000000001,1181.96
49,0.07994999999999999,1181.439
50,0.081617,1179.427
51,0.083283,1179.427
52,0.08495,1178.235
53,0.086617,1178.607
54,0.088283,1178.607
55,0.08995,1179.874
56,0.091617,1180.619
57,0.093283,1180.172
58,0.09495000000000001,1180.172
59,0.09661699999999999,1181.364
60,0.098283,1182.556
61,0.09995,1181.588
62,0.101617,1181.588
63,0.103283,1182.929
64,0.10495,1184.195
65,0.106617,1181.439
66,0.108283,1181.439
67,0.10995,1181.811
68,0.111617,1181.364
69,0.113283,1181.364
70,0.11495,1178.011
71,0.116617,1176.968
72,0.1183,1175.18
73,0.11995,1175.18
74,0.121617,1172.423
75,0.123283,1173.019
76,0.12495,1174.51
77,0.126617,1174.51
78,0.128283,1172.423
79,0.13,1173.988
80,0.131617,1174.212
81,0.133283,1174.212
82,0.13495,1174.584
83,0.136617,1180.843
84,0.138267,1180.843
85,0.139933,1184.046
86,0.1416,1184.419
87,0.143267,1183.674
88,0.144933,1183.674
89,0.1466,1182.705
90,0.148267,1179.576
91,0.149933,1181.662
92,0.1516,1181.662
93,0.153267,1183.227
94,0.154933,1182.631
95,0.1566,1185.983
96,0.158267,1185.983
97,0.159933,1187.25
98,0.1616,1185.387
99,0.163333,1183.748
100,0.164933,1183.748
101,0.1666,1179.725
102,0.168267,1175.404
103,0.169933,1175.404
104,0.1716,1173.317
105,0.173267,1172.647
106,0.174933,1173.466
107,0.1766,1173.466
108,0.178267,1174.957
109,0.179933,1178.384
110,0.1816,1179.65
111,0.183267,1179.65
112,0.18495,1181.141
113,0.1866,1180.843
114,0.188267,1179.948
115,0.189933,1179.948
116,0.1916,1179.501
117,0.193267,1175.106
118,0.194933,1175.106
119,0.1966,1171.38
120,0.19825,1168.177
121,0.199917,1166.314
122,0.201583,1166.314
123,0.203267,1170.561
124,0.204917,1173.913
125,0.206583,1177.49
126,0.20825,1177.49
127,0.209917,1181.811
128,0.211583,1184.046
129,0.21325,1183.078
130,0.214917,1183.078
131,0.216583,1181.811
132,0.21825,1178.235
133,0.219917,1176.074
134,0.221583,1176.074
135,0.22325,1176.968
136,0.224917,1177.862
137,0.226583,1177.862
138,0.22825,1176.67
139,0.229917,1176.149
140,0.231583,1175.553
141,0.23325,1175.553
142,0.234917,1176.372
143,0.236583,1181.811
144,0.23825,1181.662
145,0.239917,1181.662
146,0.241583,1183.152
147,0.24325,1181.737
148,0.244917,1179.352
149,0.246583,1179.352
150,0.248317,1179.129
151,0.249917,1179.874
152,0.251583,1179.874
153,0.25325,1179.427
154,0.254917,1175.627
155,0.256583,1176.968
156,0.258233,1176.968
157,0.2599,1173.913
158,0.261567,1173.988
159,0.263233,1177.043
160,0.26495,1177.043
161,0.266567,1175.255
162,0.268233,1176.745
163,0.2699,1178.309
164,0.271567,1178.309
165,0.273267,1174.584
166,0.2749,1174.807
167,0.276567,1176
168,0.278233,1176
169,0.2799,1173.839
170,0.281633,1178.98
171,0.283233,1178.98
172,0.2849,1179.576
173,0.286567,1176.745
174,0.288233,1176.298
175,0.2899,1176.298
176,0.291567,1172.051
177,0.293233,1170.859
178,0.2949,1173.019
179,0.296567,1173.019
180,0.298233,1174.137
181,0.2999,1176.745
182,0.301567,1177.341
183,0.303233,1177.341
184,0.3049,1174.807
185,0.306567,1172.2
186,0.308233,1172.2
187,0.3099,1171.902
188,0.311567,1169.741
189,0.313233,1171.827
190,0.3149,1171.827
191,0.316567,1177.415
192,0.318217,1176.894
193,0.319883,1178.98
194,0.32155,1178.98
195,0.323217,1179.65
196,0.324883,1174.212
197,0.32655,1172.349
198,0.328217,1172.349
199,0.329883,1171.455
200,0.33155,1172.274
201,0.333217,1174.584
202,0.334883,1174.584
203,0.33655,1175.106
204,0.338217,1176.447
205,0.3399,1176.447
206,0.341617,1177.415
207,0.343217,1178.309
208,0.344883,1182.78
209,0.346533,1182.78
210,0.3482,1182.705
211,0.349867,1179.278
212,0.351533,1178.98
213,0.3532,1178.98
214,0.354867,1176.149
215,0.356533,1176
216,0.3582,1179.799
217,0.359867,1179.799
218,0.361533,1180.47
219,0.3632,1177.788
220,0.364867,1177.788
221,0.366583,1178.235
222,0.3682,1174.957
223,0.369867,1174.882
224,0.371533,1174.882
225,0.3732,1180.023
226,0.374867,1176.894
227,0.376533,1177.341
228,0.378183,1177.341
229,0.37985,1175.925
230,0.381517,1174.286
231,0.383183,1178.533
232,0.38485,1178.533
233,0.386517,1180.47
234,0.388183,1181.886
235,0.38985,1181.886
236,0.391517,1181.737
237,0.393183,1178.607
238,0.39485,1176
239,0.396517,1176
240,0.398183,1177.341
241,0.399967,1179.501
242,0.401517,1180.396
243,0.403183,1180.396
244,0.40485,1179.799
245,0.406517,1178.309
246,0.408183,1178.682
247,0.40985,1178.682
248,0.411517,1179.203
249,0.413183,1179.874
250,0.414883,1180.47
251,0.416533,1180.47
252,0.418183,1180.619
253,0.41985,1182.854
254,0.421517,1182.854
255,0.423183,1184.94
256,0.42485,1187.101
257,0.426517,1188.293
258,0.428183,1188.293
259,0.42985,1193.509
260,0.431517,1199.99
261,0.433183,1208.41
262,0.43485,1208.41
263,0.436517,1222.119
264,0.438167,1244.172
265,0.439833,1292.154
266,0.4415,1292.154
267,0.443167,1378.283
268,0.444833,1523.495
269,0.4465,1523.495
270,0.448167,1761.764
271,0.449833,2130.419
272,0.4515,2675.28
273,0.453167,2675.28
274,0.454833,3450.885
275,0.4565,4497.394
276,0.458167,5848.333
277,0.459833,5848.333
278,0.4615,7526.577
279,0.463167,9533.018
280,0.464833,11866.764
281,0.4665,11866.764
282,0.468167,14505.759
283,0.469833,17426.387
284,0.4715,20584.092
285,0.473167,20584.092
286,0.474833,23917.928
287,0.4765,27356.445
288,0.478167,27356.445
289,0.479833,30810.311
290,0.4815,34195.332
291,0.483167,37411.375
292,0.48495,37411.375
293,0.4865,40371.789
294,0.488167,42997.078
295,0.489833,45212.879
296,0.4915,45212.879
297,0.493167,46974.793
298,0.494833,48252.641
299,0.4965,49026.012
300,0.49815,49026.012
301,0.499817,49312.039
302,0.501583,49131.734
303,0.50315,49131.734
304,0.504817,48530.625
305,0.506483,47565.324
306,0.50815,46294.777
307,0.509817,46294.777
308,0.511483,44784.547
309,0.51315,43093.859
310,0.514817,41286.5
311,0.516483,41286.5
312,0.51825,39415.285
313,0.519817,37529.395
314,0.5215,35662.875
315,0.52315,35662.875
316,0.524817,33844.039
317,0.526483,32089.428
318,0.52815,30416.324
319,0.529817,30416.324
320,0.531483,28833.002
321,0.53315,27342.662
322,0.534817,27342.662
323,0.536483,25946.797
324,0.53815,24642.422
325,0.539817,23431.182
326,0.541483,23431.182
327,0.54315,22309.051
328,0.544817,21269.246
329,0.5464830000000001,20305.365
330,0.54815,20305.365
331,0.549817,19408.018
332,0.5514829999999999,18576.83
333,0.55315,17806.217
334,0.554817,17806.217
335,0.5565,17088.875
336,0.558167,16425.326
337,0.5598,16425.326
338,0.561467,15803.948
339,0.563133,15225.187
340,0.5648,14687.851
341,0.5664670000000001,14687.851
342,0.568133,14186.8
343,0.5698,13716.668
344,0.5714669999999999,13274.774
345,0.573133,13274.774
346,0.5748,12859.926
347,0.576467,12470.707
348,0.578133,12107.268
349,0.5798,12107.268
350,0.581467,11768.788
351,0.583133,11450.425
352,0.5848,11450.425
353,0.586467,11146.59
354,0.588133,10861.308
355,0.5898,10590.33
356,0.591467,10590.33
357,0.593133,10334.7
358,0.5948,10090.992
359,0.596467,9860.769
360,0.598133,9860.769
361,0.5998,9640.603999999999
362,0.601467,9430.125
363,0.6032,9235.069
364,0.6048,9235.069
365,0.606467,9048.134
366,0.608133,8868.128000000001
367,0.6098,8696.987999999999
368,0.611467,8696.987999999999
369,0.613133,8530.766
370,0.6148,8373.261
371,0.616467,8373.261
372,0.618117,8224.696
373,0.61985,8081.496
374,0.6214499999999999,7945.672
375,0.623117,7945.672
376,0.624783,7812.604
377,0.62645,7688.999
378,0.628117,7571.503
379,0.6298,7571.503
380,0.631517,7458.18
381,0.633117,7348.806
382,0.634783,7238.612
383,0.636533,7238.612
384,0.6381,7133.409
385,0.639767,7032.454
386,0.641433,7032.454
387,0.6431,6934.553
388,0.644767,6843.06
389,0.646433,6752.61
390,0.6481,6752.61
391,0.649767,6664.396
392,0.651433,6582.886
393,0.6532,6502.345
394,0.654767,6502.345
395,0.656433,6424.337
396,0.6581,6349.683
397,0.659767,6273.463
398,0.661433,6273.463
399,0.6631,6200.299
400,0.664767,6131.008
401,0.6664330000000001,6061.42
402,0.6681,6061.42
403,0.669767,5994.663
404,0.6714329999999999,5931.035
405,0.6731,5931.035
406,0.674767,5868.226
407,0.676433,5809.367
408,0.678083,5750.954
409,0.67975,5750.954
410,0.6814170000000001,5694.702
411,0.683083,5638.674
412,0.68475,5582.497
413,0.6864170000000001,5582.497
414,0.688083,5526.99
415,0.68975,5471.707
416,0.6914169999999999,5417.094
417,0.693083,5417.094
418,0.69475,5369.112
419,0.696433,5325.75
420,0.698083,5325.75
421,0.69975,5278.14
422,0.701467,5234.554
423,0.703083,5184.412
424,0.70475,5184.412
425,0.706417,5136.729
426,0.708083,5093.589
427,0.70975,5050.152
428,0.711417,5050.152
429,0.713083,5010.59
430,0.71475,4970.133
431,0.716417,4934.222
432,0.718083,4934.222
433,0.71975,4898.31
434,0.721417,4861.28
435,0.723083,4823.655
436,0.72475,4823.655
437,0.726417,4779.846
438,0.728083,4739.389
439,0.72975,4739.389
440,0.731417,4698.783
441,0.733083,4661.828
442,0.73475,4630.983
443,0.736417,4630.983
444,0.73815,4598.349
445,0.739733,4567.876
446,0.7413999999999999,4536.957
447,0.743067,4536.957
448,0.744733,4503.727
449,0.7464,4469.827
450,0.748067,4439.354
451,0.749733,4439.354
452,0.7514,4405.603
453,0.753067,4371.479
454,0.7548,4371.479
455,0.7564,4341.453
456,0.758067,4313.216
457,0.759733,4282.668
458,0.7614,4282.668
459,0.7630670000000001,4256.517
460,0.764733,4229.545
461,0.7664,4201.979
462,0.7680670000000001,4201.979
463,0.769733,4177.541
464,0.771483,4148.036
465,0.7730669999999999,4120.842
466,0.774733,4120.842
467,0.7764,4091.933
468,0.778067,4066.08
469,0.7797500000000001,4042.238
470,0.7814,4042.238
471,0.783067,4016.385
472,0.784733,3989.264
473,0.7864,3989.264
474,0.788067,3964.976
475,0.789733,3944.263
476,0.7914,3922.209
477,0.793067,3922.209
478,0.794733,3898.591
479,0.7964,3874.078
480,0.798067,3851.131
481,0.799717,3851.131
482,0.801383,3827.587
483,0.80305,3808.141
484,0.804717,3785.118
485,0.806383,3785.118
486,0.80805,3762.022
487,0.809717,3737.882
488,0.811383,3737.882
489,0.8130500000000001,3713.22
490,0.814717,3692.955
491,0.816383,3670.901
492,0.8180500000000001,3670.901
493,0.819717,3653.765
494,0.821383,3634.915
495,0.8230499999999999,3617.108
496,0.824717,3617.108
497,0.826383,3596.395
498,0.82805,3572.702
499,0.829717,3551.096
500,0.831383,3551.096
501,0.83305,3525.689
502,0.834717,3502.816
503,0.836383,3502.816
504,0.83805,3483.966
505,0.83975,3464.669
506,0.841383,3448.948
507,0.84305,3448.948
508,0.8447170000000001,3431.737
509,0.846383,3411.993
510,0.848067,3392.249
511,0.8497169999999999,3392.249
512,0.851383,3370.196
513,0.85305,3355.369
514,0.8547169999999999,3339.797
515,0.856433,3339.797
516,0.858033,3325.418
517,0.8597,3311.56
518,0.861367,3294.796
519,0.8630330000000001,3294.796
520,0.8647,3277.883
521,0.866367,3258.809
522,0.8680330000000001,3258.809
523,0.8697,3239.959
524,0.871367,3217.682
525,0.8730830000000001,3203.154
526,0.8747,3203.154
527,0.876367,3188.029
528,0.878033,3173.873
529,0.8797,3161.728
530,0.881367,3161.728
531,0.883033,3142.953
532,0.8847,3126.562
533,0.886367,3108.382
534,0.888033,3108.382
535,0.889817,3093.928
536,0.891367,3076.941
537,0.893033,3076.941
538,0.8947000000000001,3059.953
539,0.896367,3046.617
540,0.898033,3027.395
541,0.8997000000000001,3027.395
542,0.901367,3014.132
543,0.903033,3002.658
544,0.9046999999999999,2987.31
545,0.906367,2987.31
546,0.908033,2973.825
547,0.9097,2957.135
548,0.911367,2941.564
549,0.913033,2941.564
550,0.914683,2927.259
551,0.91635,2914.071
552,0.918017,2903.342
553,0.919683,2903.342
554,0.92135,2888.292
555,0.923033,2875.701
556,0.924733,2875.701
557,0.92635,2860.129
558,0.928,2844.259
559,0.929667,2830.774
560,0.931333,2830.774
561,0.9330000000000001,2818.555
562,0.934667,2807.006
563,0.936333,2795.905
564,0.9379999999999999,2795.905
565,0.939667,2783.239
566,0.941333,2769.977
567,0.9429999999999999,2758.13
568,0.944667,2758.13
569,0.946333,2744.719
570,0.948,2733.693
571,0.949667,2733.693
572,0.951333,2720.356
573,0.953,2706.2
574,0.954667,2694.801
575,0.956333,2694.801
576,0.958,2681.315
577,0.959667,2670.735
578,0.961333,2660.155
579,0.963,2660.155
580,0.9646670000000001,2647.713
581,0.966333,2636.984
582,0.968,2626.479
583,0.9696669999999999,2626.479
584,0.971333,2614.185
585,0.973,2602.488
586,0.974733,2591.982
587,0.976333,2591.982
588,0.977983,2579.167
589,0.97965,2568.811
590,0.981317,2568.811
591,0.9829830000000001,2559.573
592,0.98465,2549.44
593,0.986317,2539.679
594,0.9879829999999999,2539.679
595,0.98965,2529.323
596,0.9913999999999999,2517.7
597,0.9929829999999999,2508.238
598,0.99465,2508.238
599,0.996333,2496.689
600,0.998,2489.015
601,0.99965,2477.691
602,1.001317,2477.691
603,1.002983,2465.248
604,1.00465,2453.923
605,1.006317,2453.923
606,1.0081,2438.277
607,1.00965,2430.379
608,1.011317,2421.886
609,1.012983,2421.886
610,1.01465,2412.125
611,1.016317,2404.75
612,1.017983,2394.989
613,1.01965,2394.989
614,1.021317,2385.974
615,1.022983,2376.661
616,1.02465,2370.03
617,1.026317,2370.03
618,1.027983,2359.897
619,1.02965,2349.019
620,1.031317,2349.019
621,1.032983,2339.184
622,1.03465,2328.381
623,1.036317,2318.248
624,1.037967,2318.248
625,1.039633,2310.5
626,1.0413,2302.304
627,1.042967,2292.246
628,1.044633,2292.246
629,1.0463,2287.552
630,1.047967,2278.834
631,1.049633,2272.502
632,1.0513,2272.502
633,1.052967,2266.392
634,1.054633,2258.345
635,1.0563,2247.691
636,1.057967,2247.691
637,1.059633,2240.315
638,1.0613,2229.288
639,1.063,2229.288
640,1.064633,2216.697
641,1.0663,2207.682
642,1.067967,2197.176
643,1.069633,2197.176
644,1.0713,2190.918
645,1.072967,2184.957
646,1.074633,2180.934
647,1.0763,2180.934
648,1.077967,2171.174
649,1.079633,2164.319
650,1.0813,2156.496
651,1.082967,2156.496
652,1.084633,2146.736
653,1.0863,2143.01
654,1.087967,2143.01
655,1.089633,2133.921
656,1.0913,2127.662
657,1.093017,2122.745
658,1.094633,2122.745
659,1.096283,2117.753
660,1.09795,2111.867
661,1.099633,2105.385
662,1.101283,2105.385
663,1.10295,2098.903
664,1.104617,2088.472
665,1.106283,2079.979
666,1.10795,2079.979
667,1.109617,2071.634
668,1.111283,2062.321
669,1.11295,2057.105
670,1.114617,2057.105
671,1.116283,2052.709
672,1.11795,2046.526
673,1.119617,2046.526
674,1.121283,2039.671
675,1.12295,2034.232
676,1.124617,2026.185
677,1.1264,2026.185
678,1.12795,2021.343
679,1.129617,2016.202
680,1.131283,2007.112
681,1.13295,2007.112
682,1.134617,2001.449
683,1.136283,1995.936
684,1.13795,1990.199
685,1.139633,1990.199
686,1.141283,1983.792
687,1.14295,1976.863
688,1.144617,1976.863
689,1.146283,1968.22
690,1.14795,1964.122
691,1.149617,1959.577
692,1.151283,1959.577
693,1.15295,1953.84
694,1.154617,1949.891
695,1.156267,1941.398
696,1.157933,1941.398
697,1.1596,1933.5
698,1.161283,1928.061
699,1.162933,1918.375
700,1.1646,1918.375
701,1.166267,1913.384
702,1.167933,1908.615
703,1.1696,1908.615
704,1.171267,1904.443
705,1.172933,1903.772
706,1.1746,1898.482
707,1.176267,1898.482
708,1.177933,1894.087
709,1.1796,1890.138
710,1.181267,1882.464
711,1.182933,1882.464
712,1.1846,1875.684
713,1.186267,1871.958
714,1.187933,1866.594
715,1.1896,1866.594
716,1.191267,1861.751
717,1.192933,1857.206
718,1.1946,1851.693
719,1.196267,1851.693
720,1.197933,1846.477
721,1.1996,1840.591
722,1.201267,1840.591
723,1.202933,1836.568
724,1.2046,1830.906
725,1.206267,1825.765
726,1.207933,1825.765
727,1.2096,1823.232
728,1.211317,1818.836
729,1.212933,1815.707
730,1.2146,1815.707
731,1.21625,1812.726
732,1.217933,1806.766
733,1.219567,1801.178
734,1.221233,1801.178
735,1.2229,1795.962
736,1.224567,1788.214
737,1.226233,1788.214
738,1.2279,1782.551
739,1.229567,1781.434
740,1.231233,1777.634
741,1.2329,1777.634
742,1.234567,1778.081
743,1.236233,1779.571
744,1.2379,1774.877
745,1.239567,1774.877
746,1.241233,1769.513
747,1.2429,1763.18
748,1.244633,1753.345
749,1.246233,1753.345
750,1.2479,1749.769
751,1.249567,1746.863
752,1.251233,1742.244
753,1.2529,1742.244
754,1.254567,1740.605
755,1.256233,1736.134
756,1.2579,1736.134
757,1.259567,1729.652
758,1.261233,1724.66
759,1.2629,1722.053
760,1.264567,1722.053
761,1.266233,1717.061
762,1.2679,1715.943
763,1.269567,1712.814
764,1.271233,1712.814
765,1.2729,1707.226
766,1.274567,1704.469
767,1.276217,1699.776
768,1.277883,1699.776
769,1.27955,1694.188
770,1.281217,1688.823
771,1.282917,1688.823
772,1.2846,1685.992
773,1.286217,1681.894
774,1.287883,1681.149
775,1.28955,1681.149
776,1.291217,1680.851
777,1.292883,1678.467
778,1.29455,1678.616
779,1.296217,1678.616
780,1.297883,1673.847
781,1.29955,1668.334
782,1.301217,1662.448
783,1.302883,1662.448
784,1.30455,1654.401
785,1.306217,1650.229
786,1.307883,1646.578
787,1.30955,1646.578
788,1.311217,1645.014
789,1.312883,1646.057
790,1.31455,1646.057
791,1.316217,1645.386
792,1.317883,1641.214
793,1.31955,1637.191
794,1.321233,1637.191
795,1.322883,1631.677
796,1.32455,1627.281
797,1.326217,1625.344
798,1.327883,1625.344
799,1.3296,1621.172
800,1.331217,1616.031
801,1.332883,1611.859
802,1.334533,1611.859
803,1.3362,1611.263
804,1.337867,1609.623
805,1.339533,1609.623
806,1.3412,1608.506
807,1.342867,1606.122
808,1.344533,1598.671
809,1.3463,1598.671
810,1.347867,1595.467
811,1.349567,1593.605
812,1.3512,1593.158
813,1.352867,1593.158
814,1.354533,1595.318
815,1.3562,1591.966
816,1.357867,1590.997
817,1.359533,1590.997
818,1.3612,1591.22
819,1.362967,1590.252
820,1.364533,1590.252
821,1.3662,1587.793
822,1.367867,1584.366
823,1.369533,1579.3
824,1.3712,1579.3
825,1.372867,1575.649
826,1.374533,1572.147
827,1.3762,1569.167
828,1.377867,1569.167
829,1.379533,1562.983
830,1.3812,1556.203
831,1.382867,1556.203
832,1.384533,1556.203
833,1.3862,1554.266
834,1.387867,1554.042
835,1.389533,1555.905
836,1.3912,1555.905
837,1.392867,1549.274
838,1.394517,1541.302
839,1.396183,1541.302
840,1.39785,1535.639
841,1.399517,1527.22
842,1.401183,1528.114
843,1.40285,1528.114
844,1.404517,1530.349
845,1.406183,1533.255
846,1.40785,1532.361
847,1.409517,1532.361
848,1.411183,1530.573
849,1.41285,1526.698
850,1.414533,1522.899
851,1.416183,1522.899
852,1.41785,1521.632
853,1.419517,1516.864
854,1.421183,1516.864
855,1.42285,1517.907
856,1.424517,1515.523
857,1.426183,1515.15
858,1.42785,1515.15
859,1.429517,1513.809
860,1.431183,1508.594
861,1.43285,1505.39
862,1.434517,1505.39
863,1.436183,1503.453
864,1.43785,1501.813
865,1.439517,1499.802
866,1.441183,1499.802
867,1.44285,1498.237
868,1.444517,1494.885
869,1.446183,1492.277
870,1.447883,1492.277
871,1.449517,1491.681
872,1.451183,1489.595
873,1.45285,1489.595
874,1.454517,1489.967
875,1.456167,1488.999
876,1.457833,1487.583
877,1.4595,1487.583
878,1.461167,1484.379
879,1.462833,1479.089
880,1.464583,1476.333
881,1.466167,1476.333
882,1.467833,1473.948
883,1.4695,1475.885
884,1.471167,1477.823
885,1.472833,1477.823
886,1.4745,1476.482
887,1.476167,1471.341
888,1.477833,1471.341
889,1.4795,1465.38
890,1.481183,1461.506
891,1.482833,1461.804
892,1.4845,1461.804
893,1.486167,1465.38
894,1.487833,1466.647
895,1.4895,1464.188
896,1.491167,1464.188
897,1.492833,1461.059
898,1.494533,1456.216
899,1.496167,1454.875
900,1.4979,1454.875
901,1.4995,1453.087
902,1.501167,1451.224
903,1.502833,1452.416
904,1.5045,1452.416
905,1.506167,1449.808
906,1.507833,1450.106
907,1.5095,1450.106
908,1.51115,1445.04
909,1.512817,1443.177
910,1.514483,1441.464
911,1.51615,1441.464
912,1.5178,1440.197
913,1.519467,1440.644
914,1.521133,1436.621
915,1.5228,1436.621
