"ID","sea_time","fid_signal"
1,0,1199.543
2,0.001667,1199.543
3,0.003333,1198.575
4,0.005,1199.096
5,0.006667,1199.543
6,0.008333,1199.543
7,0.01,1197.234
8,0.011667,1191.273
9,0.013333,1191.273
10,0.015,1191.348
11,0.016667,1192.763
12,0.018333,1193.881
13,0.02,1193.881
14,0.021667,1197.904
15,0.023317,1196.414
16,0.024983,1192.987
17,0.02665,1192.987
18,0.028417,1192.242
19,0.029983,1195.967
20,0.03165,1199.916
21,0.033317,1199.916
22,0.034983,1205.28
23,0.03665,1208.261
24,0.038317,1208.261
25,0.039983,1206.547
26,0.04165,1201.108
27,0.043317,1198.724
28,0.044983,1198.724
29,0.04665,1198.351
30,0.048317,1196.936
31,0.049983,1202.449
32,0.05165,1202.449
33,0.053317,1201.183
34,0.055,1200.363
35,0.05665,1199.394
36,0.058317,1199.394
37,0.059983,1194.104
38,0.06165,1192.689
39,0.063317,1192.465
40,0.064983,1192.465
41,0.06665,1193.434
42,0.068317,1196.638
43,0.069983,1196.638
44,0.07165000000000001,1198.724
45,0.07331699999999999,1199.394
46,0.07498299999999999,1198.649
47,0.07665,1198.649
48,0.078317,1198.351
49,0.079967,1198.947
50,0.081633,1198.873
51,0.0833,1198.873
52,0.084967,1199.916
53,0.086633,1200.289
54,0.0883,1199.543
55,0.08996700000000001,1199.543
56,0.09163300000000001,1199.171
57,0.09329999999999999,1196.191
58,0.094967,1196.191
59,0.096633,1195.818
60,0.0983,1194.328
61,0.099967,1195.222
62,0.101633,1195.222
63,0.1033,1199.171
64,0.104967,1197.308
65,0.106633,1198.5
66,0.1083,1198.5
67,0.109967,1197.681
68,0.111633,1194.403
69,0.11335,1197.234
70,0.114967,1197.234
71,0.116633,1197.159
72,0.1183,1198.724
73,0.119967,1200.587
74,0.121633,1200.587
75,0.1233,1195.669
76,0.124967,1195.52
77,0.126633,1195.52
78,0.128367,1195.744
79,0.13005,1195.595
80,0.131633,1200.512
81,0.1333,1200.512
82,0.134967,1203.567
83,0.136633,1199.543
84,0.1383,1198.128
85,0.139967,1198.128
86,0.141617,1194.403
87,0.143283,1193.657
88,0.14495,1197.532
89,0.146717,1197.532
90,0.148283,1201.034
91,0.14995,1203.567
92,0.151617,1203.567
93,0.153283,1203.269
94,0.15495,1199.767
95,0.156617,1197.234
96,0.158283,1197.234
97,0.15995,1195.669
98,0.161617,1191.199
99,0.163283,1191.869
100,0.164933,1191.869
101,0.1666,1193.285
102,0.168267,1195.073
103,0.169933,1199.245
104,0.1716,1199.245
105,0.173267,1200.661
106,0.174933,1201.034
107,0.1766,1201.034
108,0.178267,1200.065
109,0.179933,1197.383
110,0.1816,1197.308
111,0.183267,1197.308
112,0.184933,1193.732
113,0.1866,1189.932
114,0.188267,1190.752
115,0.189933,1190.752
116,0.1916,1188.74
117,0.193267,1190.454
118,0.194933,1194.403
119,0.1966,1194.403
120,0.198267,1195.073
121,0.199933,1194.477
122,0.201583,1192.242
123,0.20325,1192.242
124,0.204917,1192.018
125,0.206617,1190.901
126,0.20825,1190.901
127,0.209917,1191.646
128,0.211583,1193.21
129,0.21325,1192.689
130,0.214917,1192.689
131,0.216583,1191.944
132,0.21825,1190.677
133,0.219917,1189.038
134,0.221583,1189.038
135,0.22325,1187.399
136,0.224917,1188.666
137,0.226583,1192.018
138,0.22825,1192.018
139,0.229917,1194.552
140,0.231617,1195.297
141,0.23325,1195.297
142,0.234917,1192.242
143,0.236583,1190.677
144,0.23825,1191.348
145,0.239917,1191.348
146,0.241583,1189.709
147,0.24325,1191.571
148,0.244917,1190.23
149,0.246583,1190.23
150,0.248317,1187.026
151,0.249917,1187.772
152,0.251583,1187.026
153,0.25325,1187.026
154,0.254917,1186.803
155,0.256583,1188.815
156,0.25825,1189.411
157,0.2599,1189.411
158,0.261567,1191.497
159,0.263233,1191.497
160,0.2649,1191.497
161,0.2666,1191.273
162,0.268233,1193.359
163,0.2699,1193.881
164,0.271567,1193.881
165,0.273233,1195.073
166,0.2749,1195.52
167,0.276567,1193.509
168,0.278233,1193.509
169,0.2799,1191.422
170,0.281567,1189.485
171,0.283233,1189.038
172,0.2849,1189.038
173,0.286567,1186.654
174,0.288233,1188.368
175,0.2899,1188.368
176,0.291567,1189.56
177,0.293233,1190.23
178,0.2949,1192.912
179,0.296567,1192.912
180,0.298233,1191.795
181,0.2999,1195.595
182,0.301567,1197.234
183,0.303233,1197.234
184,0.3049,1196.936
185,0.306567,1198.277
186,0.308233,1199.916
187,0.3099,1199.916
188,0.311567,1202.896
189,0.313233,1211.092
190,0.3149,1218.244
191,0.316567,1218.244
192,0.318233,1224.95
193,0.3199,1233.295
194,0.321567,1233.295
195,0.323217,1243.576
196,0.324883,1257.211
197,0.32655,1272.112
198,0.328217,1272.112
199,0.329883,1289.77
200,0.33155,1312.494
201,0.333217,1336.262
202,0.334883,1336.262
203,0.33655,1364.797
204,0.338217,1397.431
205,0.339883,1429.915
206,0.34155,1429.915
207,0.343217,1467.69
208,0.344883,1508.668
209,0.34655,1508.668
210,0.348217,1559.183
211,0.349917,1615.658
212,0.35155,1677.722
213,0.353217,1677.722
214,0.354883,1747.385
215,0.35655,1817.867
216,0.358217,1897.365
217,0.359883,1897.365
218,0.36155,1985.58
219,0.363217,2084.896
220,0.364883,2196.655
221,0.366617,2196.655
222,0.368233,2321.228
223,0.369883,2465.621
224,0.37155,2631.47
225,0.373217,2631.47
226,0.374883,2826.825
227,0.37655,3058.165
228,0.378217,3058.165
229,0.3799,3339.276
230,0.38155,3683.492
231,0.383333,4104.599
232,0.384867,4104.599
233,0.386533,4625.022
234,0.3882,5256.534
235,0.389867,6019.026
236,0.391533,6019.026
237,0.3932,6932.467
238,0.394867,8013.025
239,0.396533,9279.698
240,0.3982,9279.698
241,0.399983,10754.541
242,0.401533,12455.955
243,0.4032,12455.955
244,0.404867,14408.976
245,0.406533,16640.5
246,0.4082,19161.254
247,0.409867,19161.254
248,0.411533,21985.695
249,0.4132,25091.098
250,0.414867,28438.941
251,0.416533,28438.941
252,0.4182,31978.637
253,0.419867,35632.773
254,0.421533,39317.609
255,0.4232,39317.609
256,0.424867,42946.637
257,0.426533,46418.98
258,0.4282,46418.98
259,0.429867,49649.254
260,0.431533,52558.184
261,0.4332,55075.215
262,0.434867,55075.215
263,0.436533,57146.773
264,0.4382,58723.242
265,0.439867,59783.535
266,0.441517,59783.535
267,0.443183,60319.453
268,0.44485,60330.629
269,0.446517,59843.063
270,0.448183,59843.063
271,0.44985,58881.938
272,0.451517,57483.836
273,0.453183,55701.434
274,0.45485,55701.434
275,0.4565,53585.77
276,0.458167,51202.551
277,0.459833,51202.551
278,0.4615,48606.395
279,0.463167,45860.039
280,0.464833,43017.418
281,0.4665,43017.418
282,0.4682,40133.148
283,0.469833,37257.375
284,0.4715,34435.539
285,0.473167,34435.539
286,0.474833,31708.256
287,0.4765,29101.074
288,0.478167,26643.574
289,0.479833,26643.574
290,0.4815,24344.996
291,0.483167,22215.023
292,0.484917,20256.191
293,0.4865,20256.191
294,0.488167,18464.178
295,0.489833,16834.438
296,0.4915,16834.438
297,0.493167,15359.67
298,0.494833,14024.228
299,0.4965,12812.167
300,0.498167,12812.167
301,0.499833,11716.932
302,0.501517,10718.927
303,0.50315,9812.34
304,0.504817,9812.34
305,0.506483,8988.156999999999
306,0.50815,8237.584999999999
307,0.509817,7556.23
308,0.511483,7556.23
309,0.51315,6938.875
310,0.514817,6381.199
311,0.516483,6381.199
312,0.518267,5875.975
313,0.519817,5420.819
314,0.521483,5006.939
315,0.52315,5006.939
316,0.524817,4636.869
317,0.526483,4304.051
318,0.52815,4003.42
319,0.529817,4003.42
320,0.531483,3737.658
321,0.53315,3497.302
322,0.534817,3281.981
323,0.536483,3281.981
324,0.53815,3093.332
325,0.539817,2924.353
326,0.541483,2924.353
327,0.543167,2771.989
328,0.544817,2638.25
329,0.5465,2514.496
330,0.5482,2514.496
331,0.549817,2404.153
332,0.5514829999999999,2310.201
333,0.55315,2224.073
334,0.554817,2224.073
335,0.5564829999999999,2148.077
336,0.55815,2079.159
337,0.559817,2014.041
338,0.561467,2014.041
339,0.563133,1955.479
340,0.5648,1905.113
341,0.5664670000000001,1905.113
342,0.568133,1857.132
343,0.5698,1814.663
344,0.5714669999999999,1776.665
345,0.573133,1776.665
346,0.5748,1737.922
347,0.576467,1707.151
348,0.578133,1677.2
349,0.5798,1677.2
350,0.581467,1651.719
351,0.583133,1632.273
352,0.5848,1609.922
353,0.586467,1609.922
354,0.588133,1590.028
355,0.5898,1569.837
356,0.591467,1549.125
357,0.593133,1549.125
358,0.5948,1532.435
359,0.596467,1518.726
360,0.598133,1518.726
361,0.5998,1504.198
362,0.601467,1493.32
363,0.603183,1483.411
364,0.6048,1483.411
365,0.606467,1471.639
366,0.608133,1464.114
367,0.6098,1452.938
368,0.611467,1452.938
369,0.613133,1445.711
370,0.6148,1439.75
371,0.616467,1433.194
372,0.618133,1433.194
373,0.6199,1426.637
374,0.6214499999999999,1420.081
375,0.623117,1420.081
376,0.624783,1410.618
377,0.62645,1402.646
378,0.628117,1398.474
379,0.629783,1398.474
380,0.63145,1391.023
381,0.633117,1389.533
382,0.634783,1384.69
383,0.636567,1384.69
384,0.638117,1378.73
385,0.639783,1374.036
386,0.64145,1370.236
387,0.643117,1370.236
388,0.644783,1364.872
389,0.64645,1361.147
390,0.6481170000000001,1359.209
391,0.649783,1359.209
392,0.65145,1353.92
393,0.6531169999999999,1349.3
394,0.654783,1349.3
395,0.65645,1347.885
396,0.658117,1341.85
397,0.659783,1335.442
398,0.66145,1335.442
399,0.663117,1334.474
400,0.664783,1328.215
401,0.66645,1326.129
402,0.668117,1326.129
403,0.669783,1327.321
404,0.67145,1325.16
405,0.673117,1322.105
406,0.674783,1322.105
407,0.67645,1318.38
408,0.678117,1315.102
409,0.679783,1315.102
410,0.68145,1313.463
411,0.6831,1313.835
412,0.684767,1312.494
413,0.686433,1312.494
414,0.6881,1309.291
415,0.689767,1305.714
416,0.6914670000000001,1303.181
417,0.693167,1303.181
418,0.694767,1305.64
419,0.696433,1305.416
420,0.6981000000000001,1302.883
421,0.699767,1302.883
422,0.701433,1300.35
423,0.7030999999999999,1295.88
424,0.704767,1291.931
425,0.706433,1291.931
426,0.7081,1290.813
427,0.709767,1289.323
428,0.711433,1289.323
429,0.7131,1286.715
430,0.714767,1288.652
431,0.716433,1285.225
432,0.7181,1285.225
433,0.719767,1287.088
434,0.721433,1288.131
435,0.7231,1286.864
436,0.7247670000000001,1286.864
437,0.726433,1291.111
438,0.7281,1286.566
439,0.7297670000000001,1285.225
440,0.731433,1285.225
441,0.7331,1284.182
442,0.7347669999999999,1281.351
443,0.736433,1281.351
444,0.7381,1281.574
445,0.739767,1279.488
446,0.741433,1274.571
447,0.743083,1274.571
448,0.74475,1273.304
449,0.746417,1271.442
450,0.748067,1269.877
451,0.749733,1269.877
452,0.7514,1269.057
453,0.753067,1268.61
454,0.754817,1269.951
455,0.7564,1269.951
456,0.758067,1269.132
457,0.759733,1269.132
458,0.7614,1269.132
459,0.7630670000000001,1263.395
460,0.764733,1259.595
461,0.766433,1257.956
462,0.7680670000000001,1257.956
463,0.769733,1256.689
464,0.7714,1258.701
465,0.7730669999999999,1258.329
466,0.774733,1258.329
467,0.7764,1259.074
468,0.778067,1260.34
469,0.779733,1258.925
470,0.7814,1258.925
471,0.783067,1258.031
472,0.784733,1254.007
473,0.7864,1252.89
474,0.788067,1252.89
475,0.789733,1251.847
476,0.7914,1252.07
477,0.793067,1252.07
478,0.794733,1255.721
479,0.7964,1255.497
480,0.798067,1255.944
481,0.799733,1255.944
482,0.8014,1255.944
483,0.80305,1253.858
484,0.804717,1252.666
485,0.806383,1252.666
486,0.80805,1255.274
487,0.809717,1255.05
488,0.811383,1255.125
489,0.8130500000000001,1255.125
490,0.814717,1252.592
491,0.816383,1249.611
492,0.8180500000000001,1249.611
493,0.819717,1248.568
494,0.821383,1247.898
495,0.8230499999999999,1246.184
496,0.824717,1246.184
497,0.826383,1246.706
498,0.82805,1243.8
499,0.829717,1243.353
500,0.831383,1243.353
501,0.833067,1245.29
502,0.834717,1241.788
503,0.836383,1244.47
504,0.83805,1244.47
505,0.839733,1242.31
506,0.841383,1240.894
507,0.84305,1243.576
508,0.8447170000000001,1243.576
509,0.846383,1243.129
510,0.84805,1241.565
511,0.8497169999999999,1241.565
512,0.851383,1241.341
513,0.85305,1238.584
514,0.8547169999999999,1236.945
515,0.856383,1236.945
516,0.85805,1235.828
517,0.859717,1234.338
518,0.861367,1232.55
519,0.8630330000000001,1232.55
520,0.8647,1227.632
521,0.866367,1227.93
522,0.8680330000000001,1228.005
523,0.8697,1228.005
524,0.871367,1230.612
525,0.87315,1232.177
526,0.8747,1232.177
527,0.876367,1232.251
528,0.878033,1234.785
529,0.8797,1231.656
530,0.881367,1231.656
531,0.883033,1232.773
532,0.8847,1233.518
533,0.886367,1230.761
534,0.888033,1230.761
535,0.8897,1230.165
536,0.891367,1229.271
537,0.893033,1228.377
538,0.8947000000000001,1228.377
539,0.896367,1228.526
540,0.898033,1229.197
541,0.8997000000000001,1231.134
542,0.901367,1231.134
543,0.903033,1231.73
544,0.9046999999999999,1231.432
545,0.906367,1231.432
546,0.908033,1232.028
547,0.9097,1228.675
548,0.911367,1227.707
549,0.913033,1227.707
550,0.9147,1225.323
551,0.916367,1223.162
552,0.918033,1225.024
553,0.9197,1225.024
554,0.921367,1223.683
555,0.923017,1224.95
556,0.924683,1223.087
557,0.92635,1223.087
558,0.928017,1218.766
559,0.929683,1219.287
560,0.93135,1219.287
561,0.933017,1221.299
562,0.934683,1225.77
563,0.93635,1230.24
564,0.938017,1230.24
565,0.939683,1231.059
566,0.94135,1231.432
567,0.943017,1230.761
568,0.9446830000000001,1230.761
569,0.946367,1228.973
570,0.948017,1226.142
571,0.9496830000000001,1223.385
572,0.95135,1223.385
573,0.953017,1220.554
574,0.9546829999999999,1218.915
575,0.95635,1220.554
576,0.958083,1220.554
577,0.959683,1218.99
578,0.96135,1222.715
579,0.963017,1222.715
580,0.964683,1225.099
581,0.96635,1223.534
582,0.968017,1226.291
583,0.969683,1226.291
584,0.97135,1221.523
585,0.973017,1219.213
586,0.9747670000000001,1222.044
587,0.9763500000000001,1222.044
588,0.978017,1220.033
589,0.979683,1220.554
590,0.9813499999999999,1220.256
591,0.983,1220.256
592,0.984667,1219.511
593,0.986333,1217.946
594,0.988,1217.946
595,0.989667,1217.946
596,0.991467,1218.095
597,0.993,1217.276
598,0.994667,1217.276
599,0.996333,1218.692
600,0.998,1219.511
601,0.999667,1219.66
602,1.001333,1219.66
603,1.003,1215.711
604,1.004667,1215.562
605,1.006333,1212.359
606,1.008,1212.359
607,1.009667,1212.135
608,1.011333,1212.731
609,1.013,1212.731
610,1.014667,1212.656
611,1.016333,1217.052
612,1.018,1215.711
613,1.019667,1215.711
614,1.021333,1218.021
615,1.023,1216.456
