"ID","sea_time","fid_signal"
1,0,152.096
2,0.001667,152.342
3,0.003317,152.342
4,0.004983,152.469
5,0.00665,151.962
6,0.008317,151.962
7,0.009983000000000001,150.628
8,0.011633,148.878
9,0.0133,147.983
10,0.014967,147.983
11,0.016633,147.641
12,0.0183,148.565
13,0.019967,149.675
14,0.021683,149.675
15,0.0233,150.159
16,0.024967,150.517
17,0.026633,150.301
18,0.0283,150.301
19,0.029967,150.017
20,0.031633,150.085
21,0.0333,150.085
22,0.034967,150.234
23,0.036633,150.502
24,0.0383,150.949
25,0.039967,150.949
26,0.041633,150.904
27,0.0433,151.12
28,0.044967,151.15
29,0.046683,151.15
30,0.0483,151.061
31,0.049967,151.075
32,0.051633,150.755
33,0.0533,150.755
34,0.054967,150.926
35,0.056633,151.254
36,0.0583,151.731
37,0.059967,151.731
38,0.061633,151.761
39,0.0633,151.835
40,0.064967,151.835
41,0.066633,151.537
42,0.0683,151.142
43,0.069967,151.291
44,0.071617,151.291
45,0.073283,150.882
46,0.07495,150.897
47,0.076617,151.008
48,0.07828300000000001,151.008
49,0.08003300000000001,151.061
50,0.081617,151.351
51,0.083283,151.277
52,0.08495,151.277
53,0.086617,151.321
54,0.088283,151.284
55,0.08995,151.284
56,0.091617,150.971
57,0.093283,151.001
58,0.094967,151.113
59,0.09661699999999999,151.113
60,0.098283,150.874
61,0.09995,151.351
62,0.101617,151.724
63,0.103283,151.724
64,0.10495,151.418
65,0.106617,151.269
66,0.108283,150.71
67,0.10995,150.71
68,0.111617,150.293
69,0.113283,150.286
70,0.11495,150.33
71,0.116617,150.33
72,0.118283,150.368
73,0.11995,150.651
74,0.121617,150.651
75,0.123283,150.897
76,0.12495,151.403
77,0.126617,151.418
78,0.128283,151.418
79,0.12995,150.822
80,0.1316,150.39
81,0.133267,149.772
82,0.134933,149.772
83,0.1366,149.965
84,0.138283,150.412
85,0.139933,150.532
86,0.1416,150.532
87,0.143267,151.038
88,0.144933,151.016
89,0.1466,151.016
90,0.148267,151.135
91,0.149933,151.537
92,0.1516,151.366
93,0.153267,151.366
94,0.154933,151.224
95,0.1566,150.815
96,0.158267,150.189
97,0.159933,150.189
98,0.1616,150.174
99,0.163283,150.137
100,0.164983,150.152
101,0.1666,150.152
102,0.168267,150.204
103,0.169933,150.122
104,0.1716,150.211
105,0.173267,150.211
106,0.174933,150.353
107,0.1766,150.494
108,0.178267,150.494
109,0.179933,150.472
110,0.181683,150.241
111,0.183267,150.196
112,0.184933,150.196
113,0.1866,149.965
114,0.188267,149.898
115,0.189917,149.913
116,0.191583,149.913
117,0.19325,149.772
118,0.194917,149.98
119,0.196583,149.995
120,0.19835,149.995
121,0.199917,149.921
122,0.201583,150.032
123,0.20325,150.032
124,0.204917,150.062
125,0.206583,150.047
126,0.20825,150.397
127,0.209917,150.397
128,0.211583,150.278
129,0.21325,149.868
130,0.214917,149.913
131,0.216583,149.913
132,0.21825,149.615
133,0.219917,149.846
134,0.221583,150.286
135,0.22325,150.286
136,0.224917,150.196
137,0.226583,150.196
138,0.22825,149.958
139,0.229917,149.958
140,0.231583,149.906
141,0.23325,150.055
142,0.234917,150.055
143,0.236583,150.107
144,0.238267,150.263
145,0.239917,150.248
146,0.2416,150.248
147,0.24325,150.085
148,0.244917,149.69
149,0.246583,149.362
150,0.24825,149.362
151,0.2499,149.064
152,0.251567,149.198
153,0.253233,149.675
154,0.2549,149.675
155,0.256567,150.017
156,0.258233,150.099
157,0.2599,150.099
158,0.261567,149.608
159,0.263233,149.369
160,0.2649,149.354
161,0.266567,149.354
162,0.268233,149.697
163,0.2699,150.01
164,0.271567,150.055
165,0.273233,150.055
166,0.2749,150.085
167,0.276567,149.742
168,0.278233,149.921
169,0.2799,149.921
170,0.281567,149.794
171,0.283267,149.377
172,0.2849,149.377
173,0.286567,149.153
174,0.288233,149.027
175,0.2899,148.982
176,0.291567,148.982
177,0.293233,148.959
178,0.294883,149.25
179,0.29655,149.041
180,0.298217,149.041
181,0.299967,148.937
182,0.30155,149.243
183,0.30325,149.012
184,0.3049,149.012
185,0.30655,148.952
186,0.308217,149.116
187,0.309867,148.93
188,0.311533,148.93
189,0.3132,149.153
190,0.314867,149.369
191,0.316617,149.369
192,0.3182,149.414
193,0.319867,149.392
194,0.321533,149.116
195,0.3232,149.116
196,0.324867,148.758
197,0.326533,148.676
198,0.3282,148.9
199,0.329867,148.9
200,0.331533,149.243
201,0.333333,149.518
202,0.334867,149.6
203,0.336533,149.6
204,0.3382,149.198
205,0.339867,148.9
206,0.341533,148.9
207,0.3432,148.818
208,0.344867,148.691
209,0.346533,148.766
210,0.3482,148.766
211,0.349867,148.699
212,0.351533,148.93
213,0.3532,148.982
214,0.354867,148.982
215,0.356533,149.302
216,0.3582,149.526
217,0.359867,149.086
218,0.361533,149.086
219,0.3632,149.041
220,0.364867,148.356
221,0.366533,148.065
222,0.3682,148.065
223,0.369867,148.147
224,0.371533,148.065
225,0.373183,148.065
226,0.37485,148.527
227,0.376533,148.743
228,0.378183,148.736
229,0.37985,148.736
230,0.381517,148.878
231,0.383183,149.056
232,0.38485,149.317
233,0.386517,149.317
234,0.388183,149.377
235,0.38985,149.406
236,0.391517,149.161
237,0.393183,149.161
238,0.39485,149.049
239,0.396517,149.548
240,0.398183,149.548
241,0.39985,149.876
242,0.401533,150.286
243,0.403183,150.755
244,0.40485,150.755
245,0.406517,150.926
246,0.408183,151.336
247,0.40985,151.91
248,0.411517,151.91
249,0.413183,152.208
250,0.41485,152.625
251,0.416533,153.221
252,0.41825,153.221
253,0.41985,153.795
254,0.421517,154.689
255,0.423183,154.689
256,0.42485,155.844
257,0.426517,157.095
258,0.428183,158.839
259,0.42985,158.839
260,0.4315,161.067
261,0.433167,163.436
262,0.434883,166.55
263,0.4365,166.55
264,0.438167,170.477
265,0.439833,175.849
266,0.4415,184.044
267,0.443167,184.044
268,0.444833,195.511
269,0.4465,212.789
270,0.448167,238.27
271,0.449867,238.27
272,0.451617,276.32
273,0.453167,333.846
274,0.454833,333.846
275,0.4565,419.028
276,0.458167,544.101
277,0.459833,722.915
278,0.4615,722.915
279,0.463167,971.511
280,0.464833,1307.145
281,0.4665,1745.313
282,0.468167,1745.313
283,0.469833,2298.958
284,0.4715,2975.419
285,0.473167,3776.141
286,0.474833,3776.141
287,0.4765,4694.931
288,0.478167,5719.364
289,0.479833,5719.364
290,0.4815,6831.05
291,0.483167,8005.85
292,0.484833,9216.986000000001
293,0.4865,9216.986000000001
294,0.48815,10435.343
295,0.489833,11631.34
296,0.491483,12776.509
297,0.49315,12776.509
298,0.494817,13844.363
299,0.496483,14811.739
300,0.49815,15660.606
301,0.499817,15660.606
302,0.501483,16377.784
303,0.50315,16956.24
304,0.504817,17394.029
305,0.506483,17394.029
306,0.50815,17693.795
307,0.509817,17862.945
308,0.511483,17862.945
309,0.513167,17912.061
310,0.514817,17854.125
311,0.516483,17703.883
312,0.51815,17703.883
313,0.519817,17476
314,0.521483,17185.203
315,0.52315,16845.605
316,0.524817,16845.605
317,0.526483,16468.592
318,0.52815,16065.725
319,0.529817,15645.892
320,0.531483,15645.892
321,0.53315,15215.948
322,0.534817,14782.973
323,0.536483,14782.973
324,0.53815,14351.413
325,0.539817,13925.217
326,0.541483,13507.806
327,0.54315,13507.806
328,0.544817,13101.123
329,0.5464830000000001,12706.995
330,0.54815,12326.032
331,0.549817,12326.032
332,0.551467,11958.853
333,0.5532,11606.41
334,0.5548,11268.229
335,0.556467,11268.229
336,0.558133,10944.59
337,0.5598,10635.443
338,0.561467,10339.812
339,0.563133,10339.812
340,0.564817,10057.486
341,0.5664670000000001,9787.954
342,0.568133,9787.954
343,0.569917,9530.455
344,0.5714669999999999,9284.303
345,0.573133,9049.341
346,0.5748,9049.341
347,0.576467,8825.026
348,0.578133,8610.629000000001
349,0.5798,8405.871999999999
350,0.581467,8405.871999999999
351,0.583133,8210.294
352,0.5847830000000001,8023.508
353,0.586467,7845.186
354,0.588117,7845.186
355,0.5897829999999999,7674.508
356,0.591467,7511.02
357,0.593117,7511.02
358,0.594783,7354.49
359,0.59645,7204.287
360,0.598117,7060.55
361,0.599783,7060.55
362,0.60145,6922.67
363,0.603117,6789.714
364,0.604783,6661.847
365,0.60645,6661.847
366,0.608117,6538.853
367,0.609783,6420.426
368,0.61145,6306.686
369,0.6131,6306.686
370,0.614767,6197.453
371,0.616433,6092.042
372,0.6181,6092.042
373,0.619767,5990.326
374,0.621433,5891.957
375,0.6231,5797.073
376,0.624767,5797.073
377,0.626433,5705.617
378,0.6281,5616.94
379,0.629767,5531.453
380,0.631433,5531.453
381,0.6331,5448.55
382,0.634767,5368.225
383,0.636433,5290.665
384,0.6381,5290.665
385,0.639767,5215.392
386,0.641433,5142.659
387,0.6431,5071.767
388,0.644767,5071.767
389,0.646433,5002.96
390,0.6481,4936.263
391,0.649767,4936.263
392,0.651433,4871.078
393,0.6531,4807.875
394,0.6548,4746.586
395,0.656433,4746.586
396,0.6581,4686.46
397,0.659767,4628.427
398,0.661433,4571.691
399,0.6631,4571.691
400,0.664767,4516.535
401,0.6664330000000001,4463.069
402,0.6681,4410.237
403,0.669767,4410.237
404,0.671417,4358.984
405,0.673083,4308.313
406,0.67475,4308.313
407,0.676417,4259.109
408,0.678083,4211.083
409,0.67975,4164.182
410,0.6814170000000001,4164.182
411,0.683083,4118.629
412,0.68475,4074.007
413,0.6864170000000001,4029.915
414,0.688167,4029.915
415,0.68975,3986.701
416,0.6914169999999999,3944.419
417,0.693083,3902.562
418,0.69475,3902.562
419,0.696417,3862.508
420,0.698083,3822.826
421,0.69975,3783.949
422,0.701417,3783.949
423,0.703083,3746.1
424,0.70475,3708.743
425,0.706417,3708.743
426,0.708083,3672.436
427,0.70975,3636.643
428,0.711417,3601.432
429,0.713083,3601.432
430,0.71475,3566.362
431,0.716417,3531.955
432,0.718083,3497.951
433,0.71975,3497.951
434,0.721417,3464.498
435,0.723083,3431.7
436,0.72475,3399.618
437,0.726417,3399.618
438,0.728133,3368.482
439,0.7297670000000001,3337.823
440,0.7314000000000001,3337.823
441,0.733067,3307.931
442,0.734733,3278.211
443,0.7364000000000001,3248.893
444,0.738067,3248.893
445,0.739733,3219.709
446,0.7413999999999999,3190.838
447,0.743067,3162.689
448,0.744733,3162.689
449,0.7464,3134.511
450,0.748067,3107.168
451,0.749733,3080.122
452,0.7514,3080.122
453,0.753067,3053.278
454,0.754733,3026.664
455,0.7564,3000.617
456,0.758067,3000.617
457,0.759733,2974.771
458,0.7614,2949.178
459,0.7630670000000001,2949.178
460,0.764733,2924.331
461,0.7664,2899.505
462,0.7680670000000001,2875.269
463,0.769733,2875.269
464,0.7714,2851.218
465,0.7731,2827.324
466,0.774733,2803.512
467,0.7764,2803.512
468,0.778067,2780.244
469,0.779733,2757.333
470,0.7814,2734.974
471,0.783067,2734.974
472,0.784733,2712.712
473,0.7864,2690.226
474,0.788067,2690.226
475,0.78975,2668.031
476,0.7913829999999999,2646.074
477,0.79305,2624.445
478,0.794717,2624.445
479,0.796383,2603.404
480,0.79805,2582.803
481,0.799717,2561.934
482,0.801383,2561.934
483,0.803067,2541.691
484,0.804717,2521.433
485,0.8065,2501.205
486,0.80805,2501.205
487,0.809717,2481.483
488,0.811383,2461.702
489,0.8130500000000001,2442.062
490,0.814717,2442.062
491,0.816383,2422.877
492,0.8180500000000001,2403.818
493,0.819733,2403.818
494,0.821383,2384.864
495,0.8230499999999999,2366.245
496,0.824717,2347.454
497,0.826383,2347.454
498,0.82805,2328.969
499,0.829717,2310.686
500,0.831383,2292.76
501,0.83305,2292.76
502,0.834717,2275.094
503,0.836383,2257.34
504,0.83805,2240.226
505,0.839717,2240.226
506,0.841383,2223.134
507,0.84305,2206.124
508,0.8447170000000001,2206.124
509,0.846383,2189.614
510,0.84805,2172.895
511,0.8497169999999999,2156.369
512,0.851367,2156.369
513,0.853033,2140.105
514,0.8547,2123.609
515,0.856367,2107.464
516,0.858033,2107.464
517,0.8597,2091.244
518,0.861367,2074.987
519,0.8630330000000001,2059.11
520,0.8647,2059.11
521,0.866367,2043.322
522,0.86805,2027.765
523,0.8697,2027.765
524,0.871367,2012.633
525,0.8730329999999999,1997.851
526,0.8747,1982.853
527,0.87635,1982.853
528,0.878017,1968.004
529,0.879683,1953.155
530,0.88135,1938.03
531,0.8830170000000001,1938.03
532,0.884683,1923.434
533,0.88635,1909.003
534,0.8880169999999999,1894.958
535,0.889683,1894.958
536,0.891417,1881.026
537,0.8930169999999999,1867.257
538,0.894683,1853.511
539,0.89635,1853.511
540,0.898017,1839.75
541,0.899683,1826.391
542,0.90135,1826.391
543,0.903017,1812.637
544,0.904683,1799.002
545,0.90635,1785.308
546,0.908,1785.308
547,0.909683,1771.696
548,0.9113329999999999,1758.747
549,0.913,1745.88
550,0.914667,1745.88
551,0.916333,1732.975
552,0.918,1720.347
553,0.919667,1707.681
554,0.921333,1707.681
555,0.923,1695.432
556,0.924667,1683.682
557,0.926333,1683.682
558,0.928,1671.493
559,0.929667,1659.14
560,0.931333,1646.37
561,0.9330000000000001,1646.37
562,0.934667,1633.912
563,0.936333,1621.932
564,0.9379999999999999,1610.279
565,0.939683,1610.279
566,0.941333,1598.746
567,0.9429999999999999,1587.115
568,0.944667,1575.53
569,0.946333,1575.53
570,0.948,1564.182
571,0.949667,1553.133
572,0.951333,1541.965
573,0.953,1541.965
574,0.954667,1531.057
575,0.956333,1520.164
576,0.958,1520.164
577,0.959667,1509.286
578,0.961333,1498.796
579,0.963,1488.075
580,0.9646670000000001,1488.075
581,0.966333,1477.256
582,0.968,1466.751
583,0.969683,1456.231
584,0.971317,1456.231
585,0.972983,1445.83
586,0.97465,1435.727
587,0.976317,1425.43
588,0.977983,1425.43
589,0.97965,1415.208
590,0.981317,1405.284
591,0.9829830000000001,1405.284
592,0.98465,1395.367
593,0.986317,1385.517
594,0.9879829999999999,1375.861
595,0.98965,1375.861
596,0.991317,1365.93
597,0.9929829999999999,1356.14
598,0.994667,1346.677
599,0.996317,1346.677
600,0.997983,1336.977
601,0.99965,1327.701
602,1.001317,1318.455
603,1.002983,1318.455
604,1.00465,1309.387
605,1.006317,1300.283
606,1.007983,1291.461
607,1.009717,1291.461
608,1.011317,1282.893
609,1.012983,1274.139
610,1.01465,1274.139
611,1.016317,1265.794
612,1.017983,1256.965
613,1.01965,1247.935
614,1.021317,1247.935
615,1.022983,1239.337
616,1.02465,1230.739
617,1.026417,1222.529
618,1.027983,1222.529
619,1.02965,1214.385
620,1.0313,1206.301
621,1.032967,1198.158
622,1.034633,1198.158
623,1.0363,1190.059
624,1.037967,1181.826
625,1.039633,1181.826
626,1.0413,1173.601
627,1.04305,1165.479
628,1.044633,1157.597
629,1.0463,1157.597
630,1.047967,1149.774
631,1.049633,1142.07
632,1.0513,1134.187
633,1.052967,1134.187
634,1.054633,1126.55
635,1.0563,1119.398
636,1.057967,1112.096
637,1.059633,1112.096
638,1.0613,1105.122
639,1.062983,1097.694
640,1.064633,1097.694
641,1.0663,1090.318
642,1.067967,1083.165
643,1.069633,1075.707
644,1.0713,1075.707
645,1.072967,1068.525
646,1.074633,1061.41
647,1.0763,1054.361
648,1.077967,1054.361
649,1.079633,1047.492
650,1.0813,1040.973
651,1.082967,1034.617
652,1.084633,1034.617
653,1.0863,1028.039
654,1.087967,1021.571
655,1.089633,1014.978
656,1.091283,1014.978
657,1.09295,1008.146
658,1.094617,1001.447
659,1.096283,1001.447
660,1.09795,995.0549999999999
661,1.099617,988.8630000000001
662,1.101283,982.441
663,1.10295,982.441
664,1.104617,975.885
665,1.106283,969.47
666,1.10795,962.8680000000001
667,1.109617,962.8680000000001
668,1.111283,956.453
669,1.11295,950.6420000000001
670,1.114617,944.741
671,1.116283,944.741
672,1.11795,938.609
673,1.119617,932.768
674,1.121283,932.768
675,1.12295,926.681
676,1.124617,920.9589999999999
677,1.126283,915.423
678,1.12795,915.423
679,1.129617,909.731
680,1.131283,904.188
681,1.13295,898.212
682,1.134633,898.212
683,1.136283,892.55
684,1.13795,887.245
685,1.139617,881.888
686,1.141283,881.888
687,1.14295,876.687
688,1.144617,871.189
689,1.146283,865.676
690,1.14795,865.676
691,1.149617,860.117
692,1.151267,854.678
693,1.152933,854.678
694,1.1546,849.783
695,1.156267,844.553
696,1.157933,839.546
697,1.1596,839.546
698,1.161383,834.361
699,1.162933,829.272
700,1.1646,824.437
701,1.166267,824.437
702,1.167917,819.407
703,1.1696,814.7809999999999
704,1.17125,809.982
705,1.172917,809.982
706,1.174583,805.333
707,1.17625,800.87
708,1.177917,800.87
709,1.179583,796.042
710,1.18125,791.006
711,1.182917,786.431
712,1.184583,786.431
713,1.18625,781.625
714,1.187917,776.9690000000001
715,1.189583,772.558
716,1.19125,772.558
717,1.192917,767.79
718,1.194583,763.275
719,1.19625,758.938
720,1.197917,758.938
721,1.199583,754.5650000000001
722,1.20125,750.303
723,1.202917,750.303
724,1.204583,746.131
725,1.20625,742.1369999999999
726,1.207917,738.2329999999999
727,1.209567,738.2329999999999
728,1.211233,734.188
729,1.2129,730.068
730,1.214567,725.657
731,1.216233,725.657
732,1.2179,721.261
733,1.219567,716.9690000000001
734,1.221233,712.842
735,1.2229,712.842
736,1.224567,709.0119999999999
737,1.22625,704.989
738,1.227933,701.062
739,1.229567,701.062
740,1.231233,696.905
741,1.2329,693.008
742,1.234567,693.008
743,1.236233,689
744,1.2379,685.073
745,1.239567,681.46
746,1.241233,681.46
747,1.2429,677.682
748,1.244567,674.181
749,1.246233,670.776
750,1.2479,670.776
751,1.249567,667.393
752,1.251233,663.683
753,1.2529,660.285
754,1.254567,660.285
755,1.256233,656.575
756,1.2579,652.976
757,1.259567,652.976
758,1.261233,649.609
759,1.26295,645.831
760,1.264567,642.3819999999999
761,1.266233,642.3819999999999
762,1.267883,639.014
763,1.269567,635.5119999999999
764,1.271217,632.413
765,1.272883,632.413
766,1.27455,628.985
767,1.276217,625.186
768,1.277883,621.527
769,1.279617,621.527
770,1.281217,618.1900000000001
771,1.282883,614.941
772,1.28455,612.043
773,1.286217,612.043
774,1.287883,609.227
775,1.28955,605.971
776,1.291217,605.971
777,1.292883,602.596
778,1.29455,599.347
779,1.296267,596.434
780,1.297883,596.434
781,1.29955,593.431
782,1.301233,590.63
783,1.302917,587.873
784,1.304567,587.873
785,1.306217,584.856
786,1.307883,581.8680000000001
787,1.30955,578.9400000000001
788,1.311217,578.9400000000001
789,1.312883,575.557
790,1.31455,572.4880000000001
791,1.316217,572.4880000000001
792,1.317883,569.276
793,1.31955,566.371
794,1.321217,563.867
795,1.322883,563.867
796,1.32455,561.222
797,1.326217,558.577
798,1.327883,555.7910000000001
799,1.32955,555.7910000000001
800,1.331217,553.124
801,1.332867,550.188
802,1.334533,547.498
803,1.3362,547.498
804,1.337867,545.1369999999999
805,1.339533,542.484
806,1.3412,539.765
807,1.342867,539.765
808,1.344533,537.135
809,1.3462,534.102
810,1.347867,534.102
811,1.349533,531.472
812,1.3512,529.23
813,1.352867,527.121
814,1.354533,527.121
815,1.3562,524.811
816,1.357867,522.211
817,1.359533,519.678
818,1.3612,519.678
819,1.362867,516.847
820,1.364533,514.41
821,1.3662,512.153
822,1.367867,512.153
823,1.369533,509.769
824,1.3712,507.63
825,1.372867,507.63
826,1.37455,505.358
827,1.3762,502.937
828,1.377867,500.225
829,1.379533,500.225
830,1.3812,497.58
831,1.382867,495.367
832,1.384533,493.251
833,1.3862,493.251
834,1.387867,491.232
835,1.389533,489.25
836,1.391183,486.97
837,1.39285,486.97
838,1.394517,484.496
839,1.396183,482.239
840,1.3979,480.004
841,1.399517,480.004
842,1.401183,477.701
843,1.40285,475.585
844,1.404517,475.585
845,1.406183,473.566
846,1.40785,471.428
847,1.409517,469.58
848,1.411183,469.58
849,1.41285,467.397
850,1.414583,465.125
851,1.416183,463.054
852,1.41785,463.054
853,1.419517,460.871
854,1.421183,458.941
855,1.42285,457.168
856,1.424517,457.168
857,1.426183,455.193
858,1.42785,453.167
859,1.429517,453.167
860,1.431183,451.095
861,1.43285,448.868
862,1.434517,446.938
863,1.436183,446.938
864,1.43785,445.083
865,1.439517,443.421
866,1.441183,441.857
867,1.44285,441.857
868,1.444517,440.031
869,1.4462,438.049
870,1.44785,436.448
871,1.449517,436.448
872,1.451167,434.741
873,1.452833,432.856
874,1.4545,432.856
875,1.456167,431.441
876,1.457833,429.258
877,1.459483,427.283
878,1.46115,427.283
879,1.462817,425.6
880,1.464483,423.446
881,1.46615,421.606
882,1.467817,421.606
883,1.469483,419.967
884,1.47115,418.387
885,1.472817,416.823
886,1.474483,416.823
887,1.47615,415.526
888,1.477817,413.805
889,1.479483,412.084
890,1.48115,412.084
891,1.482817,410.691
892,1.484483,409.275
893,1.48615,409.275
894,1.487817,407.912
895,1.489483,406.504
896,1.49115,404.514
897,1.492817,404.514
898,1.494483,402.346
899,1.49615,400.566
900,1.497817,398.681
901,1.499517,398.681
902,1.50115,397.265
903,1.502817,396.021
904,1.504483,394.546
905,1.50615,394.546
906,1.507817,393.145
907,1.509483,391.699
908,1.511133,391.699
909,1.5128,390.075
910,1.514467,388.436
911,1.5162,387.065
912,1.5178,387.065
913,1.519467,385.56
914,1.521133,384.443
915,1.5228,383.25
916,1.524467,383.25
917,1.526133,381.857
918,1.5278,380.65
919,1.529467,379.093
920,1.531133,379.093
921,1.532883,377.335
922,1.534467,375.651
923,1.536133,374.101
924,1.5378,374.101
925,1.539467,372.812
926,1.541133,371.449
927,1.5428,371.449
928,1.544467,370.018
929,1.546133,368.595
