"ID","sea_time","fid_signal"
1,0,152.752
2,0.001667,152.983
3,0.003333,153.095
4,0.005,153.095
5,0.006667,153.378
6,0.008333,152.647
7,0.01,150.919
8,0.011667,150.919
9,0.013333,149.548
10,0.015,148.229
11,0.016667,148.349
12,0.018383,148.349
13,0.02,149.556
14,0.021667,150.762
15,0.023333,151.537
16,0.025,151.537
17,0.026667,151.657
18,0.028333,151.686
19,0.03,151.351
20,0.031667,151.351
21,0.033333,151.277
22,0.035017,151.224
23,0.036683,151.224
24,0.038333,151.433
25,0.04,151.761
26,0.041667,151.828
27,0.043333,151.828
28,0.045,151.977
29,0.046667,151.664
30,0.048333,151.567
31,0.05,151.567
32,0.05175,151.753
33,0.053333,151.746
34,0.055,151.91
35,0.056667,151.91
36,0.058317,151.798
37,0.059983,151.716
38,0.06165,151.716
39,0.063317,151.739
40,0.064983,151.664
41,0.06665,151.888
42,0.068317,151.888
43,0.069983,152.007
44,0.07165000000000001,151.999
45,0.07331699999999999,151.962
46,0.07498299999999999,151.962
47,0.07665,151.716
48,0.078317,151.56
49,0.079983,151.56
50,0.08165,151.56
51,0.083317,151.59
52,0.084983,151.731
53,0.08665,151.731
54,0.08831700000000001,151.835
55,0.08998299999999999,151.843
56,0.09165,151.88
57,0.093317,151.88
58,0.094983,151.82
59,0.09665,151.627
60,0.098317,151.47
61,0.099983,151.47
62,0.10165,151.247
63,0.103317,151.172
64,0.104983,151.388
65,0.10665,151.388
66,0.108317,151.56
67,0.109983,151.746
68,0.11165,151.694
69,0.113317,151.694
70,0.114983,151.426
71,0.11665,151.277
72,0.1183,151.277
73,0.119967,151.105
74,0.121633,150.949
75,0.1233,150.919
76,0.124967,150.919
77,0.126633,151.105
78,0.1283,151.53
79,0.129967,151.701
80,0.131633,151.701
81,0.1333,151.776
82,0.134967,151.828
83,0.136733,151.694
84,0.1383,151.694
85,0.139967,151.776
86,0.141633,151.969
87,0.1433,151.969
88,0.144967,151.798
89,0.146633,151.612
90,0.1483,151.418
91,0.149967,151.418
92,0.151633,150.993
93,0.1533,150.986
94,0.15495,151.053
95,0.156617,151.053
96,0.158283,151.053
97,0.15995,151.463
98,0.161617,151.359
99,0.163283,151.359
100,0.16495,151.172
101,0.166617,151.172
102,0.168283,150.8
103,0.170017,150.8
104,0.171617,150.882
105,0.173283,151.12
106,0.174933,151.12
107,0.176617,151.254
108,0.178267,151.247
109,0.179933,151.21
110,0.1816,151.21
111,0.183267,150.844
112,0.184933,150.718
113,0.1866,150.762
114,0.188267,150.762
115,0.189933,150.792
116,0.1916,150.971
117,0.193267,150.956
118,0.194933,150.956
119,0.1966,150.613
120,0.198267,150.405
121,0.199933,150.405
122,0.2016,150.353
123,0.203283,150.368
124,0.204933,150.867
125,0.2066,150.867
126,0.208267,151.083
127,0.209933,151.075
128,0.211617,151.105
129,0.213267,151.105
130,0.214933,151.031
131,0.2166,150.949
132,0.218267,150.919
133,0.219933,150.919
134,0.2216,150.695
135,0.223267,150.591
136,0.224933,150.39
137,0.2266,150.39
138,0.228267,150.189
139,0.229933,150.315
140,0.2316,150.315
141,0.233267,150.487
142,0.234933,150.703
143,0.236583,150.874
144,0.23825,150.874
145,0.239917,150.8
146,0.241583,150.718
147,0.243283,150.532
148,0.244917,150.532
149,0.246583,150.487
150,0.24825,150.435
151,0.249917,150.196
152,0.251583,150.196
153,0.25325,150.427
154,0.254967,150.479
155,0.256583,150.479
156,0.25825,150.681
157,0.259917,150.74
158,0.261583,150.263
159,0.26325,150.263
160,0.264917,150.181
161,0.266583,150.032
162,0.26825,149.831
163,0.269917,149.831
164,0.271583,149.965
165,0.27325,149.876
166,0.274917,149.801
167,0.276583,149.801
168,0.27825,150.159
169,0.279917,150.397
170,0.281583,150.397
171,0.28325,150.613
172,0.284917,150.613
173,0.286583,150.397
174,0.288333,150.397
175,0.289917,150.293
176,0.291583,150.092
177,0.293283,150.01
178,0.294917,150.01
179,0.296567,150.166
180,0.298233,149.943
181,0.2999,149.757
182,0.301567,149.757
183,0.303233,149.697
184,0.3049,149.339
185,0.306567,149.369
186,0.308233,149.369
187,0.3099,149.742
188,0.311567,149.861
189,0.313233,149.861
190,0.3149,150.077
191,0.316567,150.286
192,0.318233,150.04
193,0.319917,150.04
194,0.321567,149.675
195,0.323233,149.377
196,0.3249,149.034
197,0.326567,149.034
198,0.328233,148.982
199,0.3299,149.257
200,0.331567,149.414
201,0.333233,149.414
202,0.3349,149.608
203,0.336567,149.608
204,0.338233,149.608
205,0.3399,149.682
206,0.341567,149.876
207,0.343233,149.921
208,0.3449,149.921
209,0.346567,150.144
210,0.348233,149.943
211,0.3499,149.816
212,0.351567,149.816
213,0.353233,149.503
214,0.3549,149.123
215,0.356567,149.101
216,0.358217,149.101
217,0.359883,149.161
218,0.36155,149.295
219,0.363217,149.339
220,0.364883,149.339
221,0.36655,149.526
222,0.368217,149.265
223,0.3699,149.265
224,0.37155,149.183
225,0.373283,149.265
226,0.374883,149.19
227,0.37655,149.19
228,0.378217,149.406
229,0.379883,149.444
230,0.38155,149.652
231,0.383217,149.652
232,0.384883,149.988
233,0.38655,149.831
234,0.388217,150.003
235,0.389883,150.003
236,0.391567,149.861
237,0.393217,149.816
238,0.394883,149.816
239,0.39655,150.323
240,0.398217,150.77
241,0.399883,151.224
242,0.40155,151.224
243,0.403217,151.604
244,0.404883,151.679
245,0.406633,151.619
246,0.408217,151.619
247,0.409883,151.925
248,0.41155,152.364
249,0.413217,152.841
250,0.414883,152.841
251,0.416533,153.542
252,0.418217,154.212
253,0.419867,155.091
254,0.421533,155.091
255,0.4232,156.224
256,0.424867,157.647
257,0.426533,157.647
258,0.4282,159.249
259,0.429867,160.843
260,0.431533,163.563
261,0.4332,163.563
262,0.434867,167.042
263,0.436533,172.004
264,0.4382,180.081
265,0.439883,180.081
266,0.441533,192.098
267,0.4432,211.328
268,0.44485,242.665
269,0.446517,242.665
270,0.448183,293.225
271,0.44985,374.988
272,0.451517,374.988
273,0.453183,503.734
274,0.45485,700.22
275,0.456517,989.139
276,0.458183,989.139
277,0.45985,1396.865
278,0.461517,1949.191
279,0.463183,2667.822
280,0.46485,2667.822
281,0.466517,3567.465
282,0.468183,4653.313
283,0.46985,5921.535
284,0.471517,5921.535
285,0.473183,7358.104
286,0.47485,8941.114
287,0.4765,8941.114
288,0.478167,10641.701
289,0.479833,12425.147
290,0.4815,14252.238
291,0.483167,14252.238
292,0.484833,16078.83
293,0.4865,17860.234
294,0.488167,19551.105
295,0.489833,19551.105
296,0.491517,21108.463
297,0.493167,22496.141
298,0.494833,23683.875
299,0.4965,23683.875
300,0.498167,24650.604
301,0.499833,25385.059
302,0.5014999999999999,25885.01
303,0.503167,25885.01
304,0.504833,26157.186
305,0.5065,26215.994
306,0.508167,26215.994
307,0.509833,26081.914
308,0.5115,25780.195
309,0.513167,25337.809
310,0.514833,25337.809
311,0.5165,24782.635
312,0.518167,24141.527
313,0.519833,23437.389
314,0.5215,23437.389
315,0.523167,22691.488
316,0.52495,21921.455
317,0.5265,21141.164
318,0.5281670000000001,21141.164
319,0.529833,20363.248
320,0.5315,19596.645
321,0.5331669999999999,19596.645
322,0.53485,18848.396
323,0.536517,18124.111
324,0.53815,17426.58
325,0.539817,17426.58
326,0.541483,16758.346
327,0.54315,16120.322
328,0.544817,15512.802
329,0.5464830000000001,15512.802
330,0.54815,14936.053
331,0.549817,14389.188
332,0.5514829999999999,13871.528
333,0.55315,13871.528
334,0.554817,13381.623
335,0.5564829999999999,12918.368
336,0.55815,12480.669
337,0.559817,12480.669
338,0.561483,12066.737
339,0.56315,11675.618
340,0.564817,11675.618
341,0.566483,11305.824
342,0.56815,10955.952
343,0.569817,10625.013
344,0.571483,10625.013
345,0.57315,10311.842
346,0.574817,10015.413
347,0.576483,9734.444
348,0.5781500000000001,9734.444
349,0.579817,9468.369000000001
350,0.581483,9216.07
351,0.5831499999999999,8976.280000000001
352,0.584817,8976.280000000001
353,0.586483,8748.449000000001
354,0.58815,8531.802
355,0.589817,8531.802
356,0.591483,8325.428
357,0.59315,8128.606
358,0.594817,7941.313
359,0.596467,7941.313
360,0.598133,7762.693
361,0.5998,7592.179
362,0.6015,7429.838
363,0.603133,7429.838
364,0.6048,7274.114
365,0.606467,7124.886
366,0.608133,6981.969
367,0.6098,6981.969
368,0.611467,6844.893
369,0.613133,6713.584
370,0.6148169999999999,6587.55
371,0.616467,6587.55
372,0.618133,6466.679
373,0.6198,6350.324
374,0.621467,6350.324
375,0.623133,6238.513
376,0.6248,6130.591
377,0.626517,6026.469
378,0.6281330000000001,6026.469
379,0.6298,5926.073
380,0.631467,5829.55
381,0.6331329999999999,5736.552
382,0.6348,5736.552
383,0.636467,5646.833
384,0.638133,5560.338
385,0.6398,5476.177
386,0.641467,5476.177
387,0.6432,5394.913
388,0.6448,5316.116
389,0.646467,5316.116
390,0.648133,5239.449
391,0.6498,5165.286
392,0.651467,5093.276
393,0.653133,5093.276
394,0.6548,5023.331
395,0.65645,4955.821
396,0.658133,4890.337
397,0.659867,4890.337
398,0.66145,4826.508
399,0.663117,4764.602
400,0.664783,4704.163
401,0.66645,4704.163
402,0.668117,4645.34
403,0.669783,4588.12
404,0.67145,4588.12
405,0.673117,4532.598
406,0.674783,4478.238
407,0.67645,4424.944
408,0.678167,4424.944
409,0.679783,4373.111
410,0.68145,4322.313
411,0.683117,4272.848
412,0.684783,4272.848
413,0.68645,4224.956
414,0.688117,4177.801
415,0.689783,4131.689
416,0.69145,4131.689
417,0.693117,4086.755
418,0.694783,4042.484
419,0.69645,3999.293
420,0.698117,3999.293
421,0.699783,3956.869
422,0.70145,3915.206
423,0.703117,3915.206
424,0.704783,3874.324
425,0.70645,3834.598
426,0.708117,3795.527
427,0.7097830000000001,3795.527
428,0.71145,3757.223
429,0.713117,3719.911
430,0.7147829999999999,3683.239
431,0.71645,3683.239
432,0.7181,3647.506
433,0.719767,3612.205
434,0.721433,3577.247
435,0.7231,3577.247
436,0.7247670000000001,3542.982
437,0.726433,3508.933
438,0.7281,3508.933
439,0.7297670000000001,3475.681
440,0.731433,3443.278
441,0.7331,3410.913
442,0.7347669999999999,3410.913
443,0.736417,3379.226
444,0.738083,3347.956
445,0.73975,3317.192
446,0.741417,3317.192
447,0.743083,3287.263
448,0.744783,3257.774
449,0.746417,3228.515
450,0.7480830000000001,3228.515
451,0.74975,3199.436
452,0.751417,3170.766
453,0.7530829999999999,3142.804
454,0.75475,3142.804
455,0.756417,3115.587
456,0.758083,3088.549
457,0.75975,3088.549
458,0.761483,3061.935
459,0.763083,3035.59
460,0.76475,3009.737
461,0.766417,3009.737
462,0.768083,2984.308
463,0.76975,2958.708
464,0.771417,2933.375
465,0.773083,2933.375
466,0.77475,2908.073
467,0.776417,2883.553
468,0.778067,2859.682
469,0.779733,2859.682
470,0.7814,2835.974
471,0.783067,2812.55
472,0.784733,2812.55
473,0.7864,2789.199
474,0.788067,2766.147
475,0.78975,2743.319
476,0.7914,2743.319
477,0.793067,2720.915
478,0.794733,2698.757
479,0.7964,2676.532
480,0.798067,2676.532
481,0.799733,2654.642
482,0.8014,2633.005
483,0.803067,2611.622
484,0.804733,2611.622
485,0.8064,2590.694
486,0.808067,2570.212
487,0.809733,2549.902
488,0.8114,2549.902
489,0.813067,2529.569
490,0.814733,2509.676
491,0.8164,2509.676
492,0.818067,2489.507
493,0.819733,2469.54
494,0.8214,2450.25
495,0.823067,2450.25
496,0.824733,2430.864
497,0.8264,2412.088
498,0.828067,2393.447
499,0.8297330000000001,2393.447
500,0.8314,2374.627
501,0.833067,2355.822
502,0.8347329999999999,2337.098
503,0.8364,2337.098
504,0.83805,2318.881
505,0.839717,2300.777
506,0.841383,2300.777
507,0.84305,2283.35
508,0.8447170000000001,2266.198
509,0.846383,2248.943
510,0.84805,2248.943
511,0.8497169999999999,2231.911
512,0.851383,2214.812
513,0.85305,2197.683
514,0.8547169999999999,2197.683
515,0.856383,2180.792
516,0.85805,2164.334
517,0.859717,2148.025
518,0.861383,2148.025
519,0.863083,2131.7
520,0.864717,2115.265
521,0.866383,2115.265
522,0.86805,2098.784
523,0.869717,2082.691
524,0.871383,2067.007
525,0.87305,2067.007
526,0.874717,2051.644
527,0.876383,2036.549
528,0.87805,2021.223
529,0.879767,2021.223
530,0.881383,2005.711
531,0.88305,1990.683
532,0.884717,1975.395
533,0.886383,1975.395
534,0.88805,1960.382
535,0.889717,1945.816
536,0.891383,1931.339
537,0.89305,1931.339
538,0.894717,1917.236
539,0.8965,1903.318
540,0.898033,1903.318
541,0.8997000000000001,1889.572
542,0.901367,1875.475
543,0.903033,1861.498
544,0.9046999999999999,1861.498
545,0.906367,1847.58
546,0.908033,1833.923
547,0.9097,1820.169
548,0.911367,1820.169
549,0.913033,1806.438
550,0.9147,1793.168
551,0.916367,1779.519
552,0.918033,1779.519
553,0.9197,1766.458
554,0.921367,1753.703
555,0.923033,1753.703
556,0.9247,1740.538
557,0.9263670000000001,1727.76
558,0.928033,1714.885
559,0.9297,1714.885
560,0.9313669999999999,1702.055
561,0.933033,1689.665
562,0.9347,1677.349
563,0.9363669999999999,1677.349
564,0.938033,1665.242
565,0.9397,1653.381
566,0.941367,1641.415
567,0.943033,1641.415
568,0.9447,1629.77
569,0.946367,1618.341
570,0.948033,1606.531
571,0.9497,1606.531
572,0.951383,1594.886
573,0.953033,1583.159
574,0.9546829999999999,1583.159
575,0.956367,1571.514
576,0.958017,1560.614
577,0.9597,1549.691
578,0.961367,1549.691
579,0.963017,1538.627
580,0.964683,1527.593
581,0.96635,1516.581
582,0.968017,1516.581
583,0.969683,1505.941
584,0.97135,1495.577
585,0.973017,1485.012
586,0.974683,1485.012
587,0.9763500000000001,1474.142
588,0.978017,1463.167
589,0.979683,1463.167
590,0.981417,1452.55
591,0.983017,1442.298
592,0.984683,1432.404
593,0.9863499999999999,1432.404
594,0.988017,1422.45
595,0.989683,1412.422
596,0.99135,1402.46
597,0.993017,1402.46
598,0.994683,1392.446
599,0.99635,1382.768
600,0.998017,1373.358
601,0.999683,1373.358
602,1.00135,1363.732
603,1.003017,1354.53
604,1.004683,1345.374
605,1.00635,1345.374
606,1.008017,1336.411
607,1.009683,1327.477
608,1.01135,1327.477
609,1.013017,1318.395
610,1.014733,1309.209
611,1.01635,1299.418
612,1.018017,1299.418
613,1.019667,1290.083
614,1.021333,1280.807
615,1.023,1271.933
616,1.024667,1271.933
617,1.026333,1263.723
618,1.027983,1255.237
619,1.02965,1246.706
620,1.031317,1246.706
621,1.032983,1238.197
622,1.034667,1229.428
623,1.036367,1229.428
624,1.037983,1220.904
625,1.03965,1212.582
626,1.041317,1204.155
627,1.042983,1204.155
628,1.04465,1196.302
629,1.046317,1188.606
630,1.047983,1180.716
631,1.04965,1180.716
632,1.051317,1173.116
633,1.052983,1165.07
634,1.05465,1157.023
635,1.056317,1157.023
636,1.057983,1149.215
637,1.05965,1141.258
638,1.061317,1141.258
639,1.062983,1133.628
640,1.06465,1125.902
641,1.066317,1118.533
642,1.067983,1118.533
643,1.06965,1110.822
644,1.071317,1103.312
645,1.072983,1096.055
646,1.07465,1096.055
647,1.076317,1088.671
648,1.077967,1081.914
649,1.079633,1074.932
650,1.0813,1074.932
651,1.082967,1068.316
652,1.084633,1061.693
653,1.0863,1054.943
654,1.087967,1054.943
655,1.089633,1048.088
656,1.0913,1040.861
657,1.092967,1040.861
658,1.094633,1033.716
659,1.0963,1026.474
660,1.097967,1019.657
661,1.0997,1019.657
662,1.1013,1013.085
663,1.102967,1007.043
664,1.104633,1000.904
665,1.1063,1000.904
666,1.107967,994.422
667,1.109633,988.051
668,1.1113,981.472
669,1.112967,981.472
670,1.114633,975.49
671,1.1163,969.626
672,1.117967,969.626
673,1.119633,963.546
674,1.1213,957.251
675,1.122967,951.253
676,1.124633,951.253
677,1.1263,945.255
678,1.127967,939.704
679,1.129633,934.079
680,1.1313,934.079
681,1.133067,927.836
682,1.134633,922.054
683,1.136283,916.287
684,1.13795,916.287
685,1.139617,910.431
686,1.141283,905.223
687,1.14295,899.65
688,1.144617,899.65
689,1.146283,893.869
690,1.14795,888.325
691,1.149617,888.325
692,1.151283,882.462
693,1.15295,877.164
694,1.154617,871.889
695,1.156283,871.889
696,1.15795,866.845
697,1.159617,861.466
698,1.161283,856.1609999999999
699,1.16295,856.1609999999999
700,1.164617,850.953
701,1.166283,845.849
702,1.16795,840.977
703,1.169617,840.977
704,1.171283,835.65
705,1.17295,830.777
706,1.17465,830.777
707,1.176283,825.539
708,1.17795,820.4059999999999
709,1.179617,815.384
710,1.181283,815.384
711,1.18295,810.057
712,1.184617,805.0650000000001
713,1.186283,800.259
714,1.18795,800.259
715,1.189617,795.856
716,1.191283,791.311
717,1.19295,786.699
718,1.194617,786.699
719,1.196283,782.4299999999999
720,1.197933,777.967
721,1.1996,773.773
722,1.201267,773.773
723,1.202933,769.4589999999999
724,1.2046,764.914
725,1.206267,764.914
726,1.207933,760.466
727,1.2096,755.921
728,1.211267,751.8680000000001
729,1.212933,751.8680000000001
730,1.2146,747.778
731,1.216267,743.441
732,1.218,739.4400000000001
733,1.2196,739.4400000000001
734,1.221267,735.044
735,1.222933,730.7380000000001
736,1.2246,726.551
737,1.226267,726.551
738,1.227933,722.289
739,1.2296,718.348
740,1.231267,718.348
741,1.232933,714.742
742,1.2346,711.232
743,1.236267,707.127
744,1.237933,707.127
745,1.2396,703.044
746,1.241267,698.552
747,1.242933,694.379
748,1.2446,694.379
749,1.246283,690.676
750,1.247933,686.899
751,1.2496,683.226
752,1.251317,683.226
753,1.252933,679.62
754,1.2546,675.872
755,1.256267,675.872
756,1.257917,672.437
757,1.259583,668.913
758,1.26125,664.942
759,1.262917,664.942
760,1.264583,661.448
761,1.26625,658.005
762,1.267917,654.2430000000001
763,1.269583,654.2430000000001
764,1.27125,650.763
765,1.272917,647.3440000000001
766,1.274583,643.417
767,1.27625,643.417
768,1.277917,640.4
769,1.279583,637.308
770,1.28125,633.866
771,1.282917,633.866
772,1.284583,630.684
773,1.28625,627.115
774,1.287917,627.115
775,1.289583,623.606
776,1.29125,620.2910000000001
777,1.292917,617.072
778,1.294583,617.072
779,1.29625,613.816
780,1.297917,610.381
781,1.299583,607.23
782,1.30125,607.23
783,1.302917,603.847
784,1.304583,601.098
785,1.30625,598.438
786,1.307917,598.438
787,1.309583,595.443
788,1.31125,592.5599999999999
789,1.312917,592.5599999999999
790,1.314583,589.378
791,1.31625,586.309
792,1.3179,583.2910000000001
793,1.31955,583.2910000000001
794,1.32125,580.527
795,1.322883,577.696
796,1.32455,574.8049999999999
797,1.326217,574.8049999999999
798,1.327883,572.003
799,1.32955,569.053
800,1.331217,566.207
801,1.332883,566.207
802,1.33455,563.338
803,1.33625,560.8869999999999
804,1.337883,558.056
805,1.33955,558.056
806,1.341217,554.8819999999999
807,1.342883,551.9690000000001
808,1.34455,551.9690000000001
809,1.346217,549.138
810,1.347883,546.701
811,1.34955,544.25
812,1.351217,544.25
813,1.3529,542.067
814,1.35455,539.154
815,1.356217,536.159
816,1.357883,536.159
817,1.35955,533.581
818,1.361217,531.0700000000001
819,1.362883,528.9690000000001
820,1.36455,528.9690000000001
821,1.366217,526.853
822,1.367883,524.394
823,1.369633,521.548
824,1.371217,521.548
825,1.372883,518.501
826,1.37455,515.923
827,1.376217,515.923
828,1.377867,513.65
829,1.379533,511.423
830,1.3812,509.575
831,1.382867,509.575
832,1.384533,507.198
833,1.3862,504.71
834,1.387867,502.199
835,1.389533,502.199
836,1.3912,499.494
837,1.392867,497.252
838,1.394533,495.24
839,1.3962,495.24
840,1.397867,493.266
841,1.399533,490.949
842,1.4012,490.949
843,1.402867,488.535
844,1.404533,486.135
845,1.4062,483.751
846,1.407867,483.751
847,1.409533,482.053
848,1.4112,480.205
849,1.412867,478.044
850,1.414533,478.044
851,1.4162,476.077
852,1.417867,473.835
853,1.419533,471.614
854,1.421217,471.614
855,1.422867,469.491
856,1.424533,467.539
857,1.4262,467.539
858,1.427867,465.266
859,1.429533,463.061
860,1.4312,461.042
861,1.432867,461.042
862,1.434533,458.77
863,1.4362,456.78
864,1.43785,455.067
865,1.439517,455.067
866,1.441183,453.308
867,1.44285,451.505
868,1.444517,449.754
869,1.446183,449.754
870,1.44785,447.772
871,1.449517,446.036
872,1.451183,446.036
873,1.45285,444.382
874,1.454517,442.453
875,1.456183,440.575
876,1.45785,440.575
877,1.459517,438.392
878,1.461183,436.246
879,1.46285,434.302
880,1.464517,434.302
881,1.466183,432.357
882,1.46785,430.517
883,1.469517,428.647
884,1.47125,428.647
885,1.47285,426.829
886,1.474517,425.138
887,1.476183,423.327
888,1.47785,423.327
889,1.479517,421.77
890,1.481183,420.205
891,1.48285,420.205
892,1.484517,418.805
893,1.486183,417.605
894,1.48795,416.011
895,1.489517,416.011
896,1.491183,414.17
897,1.49285,412.352
898,1.494517,410.356
899,1.496183,410.356
900,1.497833,408.627
901,1.4995,407.1
902,1.501167,405.617
903,1.502833,405.617
904,1.504633,404.38
905,1.506167,403.069
906,1.507833,403.069
907,1.5095,401.646
908,1.511167,399.932
909,1.512833,398.338
910,1.5145,398.338
911,1.516167,396.416
912,1.517833,394.911
913,1.5195,393.532
914,1.521167,393.532
915,1.522833,391.729
916,1.5245,390.545
917,1.526167,388.987
918,1.527833,388.987
919,1.5295,387.453
920,1.531167,386.238
921,1.532833,384.517
922,1.5345,384.517
923,1.536183,383.25
924,1.537833,381.827
925,1.5395,381.827
926,1.541167,380.538
927,1.542833,379.257
928,1.5445,377.946
