"ID","sea_time","fid_signal"
1,0,1185.536
2,0.0017,1185.536
3,0.003333,1183.748
4,0.005,1178.98
5,0.006667,1178.011
6,0.008333,1178.011
7,0.01,1173.466
8,0.011667,1172.647
9,0.013333,1171.455
10,0.015,1171.455
11,0.016667,1169.145
12,0.018333,1171.827
13,0.02,1171.827
14,0.021667,1171.976
15,0.023367,1174.51
16,0.025,1177.564
17,0.026667,1177.564
18,0.028333,1177.639
19,0.03,1178.607
20,0.031667,1180.545
21,0.033333,1180.545
22,0.035,1180.843
23,0.036667,1181.513
24,0.038333,1182.556
25,0.039983,1182.556
26,0.04165,1178.98
27,0.043317,1178.011
28,0.044983,1178.011
29,0.04665,1178.235
30,0.048317,1176.372
31,0.049983,1178.756
32,0.05165,1178.756
33,0.053317,1178.756
34,0.054983,1179.129
35,0.056717,1180.396
36,0.058317,1180.396
37,0.059983,1179.129
38,0.06165,1178.533
39,0.063317,1176.298
40,0.064983,1176.298
41,0.06665,1173.243
42,0.068317,1172.125
43,0.069983,1169.816
44,0.07165000000000001,1169.816
45,0.07331699999999999,1168.922
46,0.07498299999999999,1171.753
47,0.076667,1171.753
48,0.078317,1175.18
49,0.079983,1178.086
50,0.08165,1184.568
51,0.083317,1184.568
52,0.084983,1184.195
53,0.086633,1182.482
54,0.0883,1182.482
55,0.08996700000000001,1182.482
56,0.09163300000000001,1175.106
57,0.09329999999999999,1176.223
58,0.094967,1179.352
59,0.096633,1179.352
60,0.0983,1180.321
61,0.09995,1182.705
62,0.101617,1182.705
63,0.103283,1182.333
64,0.10495,1179.278
65,0.106617,1179.576
66,0.108283,1179.576
67,0.10995,1181.29
68,0.111617,1182.705
69,0.113283,1185.536
70,0.11495,1185.536
71,0.116617,1183.525
72,0.118283,1182.929
73,0.11995,1179.799
74,0.121617,1179.799
75,0.123283,1180.693
76,0.12495,1183.45
77,0.126617,1189.113
78,0.128283,1189.113
79,0.12995,1190.454
80,0.131617,1186.207
81,0.133283,1186.207
82,0.13495,1184.344
83,0.136617,1178.384
84,0.138283,1176.894
85,0.13995,1176.894
86,0.141683,1178.756
87,0.143283,1177.266
88,0.14495,1178.756
89,0.146617,1178.756
90,0.148283,1178.458
91,0.14995,1179.874
92,0.151617,1181.439
93,0.153283,1181.439
94,0.15495,1180.321
95,0.156617,1180.47
96,0.158267,1180.47
97,0.159933,1179.278
98,0.1616,1181.513
99,0.163267,1178.905
100,0.164933,1178.905
101,0.166617,1180.693
102,0.168267,1179.054
103,0.169933,1174.435
104,0.1716,1174.435
105,0.173267,1176.968
106,0.175033,1178.011
107,0.1766,1178.235
108,0.178267,1178.235
109,0.179933,1181.662
110,0.1816,1181.811
111,0.183267,1182.258
112,0.184933,1182.258
113,0.1866,1179.203
114,0.188267,1177.117
115,0.189933,1177.117
116,0.1916,1173.839
117,0.193267,1168.102
118,0.194933,1172.274
119,0.1966,1172.274
120,0.198267,1172.498
121,0.199933,1173.019
122,0.201617,1174.957
123,0.203267,1174.957
124,0.204933,1176.521
125,0.2066,1178.384
126,0.208267,1182.929
127,0.209933,1182.929
128,0.2116,1183.078
129,0.213267,1182.482
130,0.214933,1182.482
131,0.2166,1183.078
132,0.218267,1181.215
133,0.21995,1180.023
134,0.221583,1180.023
135,0.22325,1179.054
136,0.224917,1176.968
137,0.226583,1178.011
138,0.22825,1178.011
139,0.229917,1178.16
140,0.231583,1175.106
141,0.23325,1175.329
142,0.234917,1175.329
143,0.236583,1173.765
144,0.23825,1177.415
145,0.239917,1177.415
146,0.241583,1180.023
147,0.24325,1181.588
148,0.244917,1179.352
149,0.246583,1179.352
150,0.24825,1176.521
151,0.249917,1177.341
152,0.251583,1177.117
153,0.25325,1177.117
154,0.254917,1177.862
155,0.256583,1178.384
156,0.25825,1179.427
157,0.259917,1179.427
158,0.261583,1177.266
159,0.26325,1181.737
160,0.264917,1183.227
161,0.266583,1183.227
162,0.26825,1181.811
163,0.269917,1180.172
164,0.271583,1180.172
165,0.27325,1174.882
166,0.274917,1172.572
167,0.276567,1169.443
168,0.27825,1169.443
169,0.2799,1171.455
170,0.2816,1171.008
171,0.283233,1173.913
172,0.2849,1173.913
173,0.286567,1176.223
174,0.288233,1174.733
175,0.289933,1175.553
176,0.291567,1175.553
177,0.293333,1174.36
178,0.2949,1171.753
179,0.296567,1171.753
180,0.298233,1173.168
181,0.2999,1175.851
182,0.301567,1176
183,0.303233,1176
184,0.3049,1180.992
185,0.306567,1181.737
186,0.308233,1181.066
187,0.309983,1181.066
188,0.311567,1178.756
189,0.313233,1176.074
190,0.3149,1176.074
191,0.316567,1176.074
192,0.318233,1176.074
193,0.3199,1175.925
194,0.321567,1176.074
195,0.323233,1176.074
196,0.3249,1175.18
197,0.326567,1176.298
198,0.328233,1176.298
199,0.3299,1179.725
200,0.331567,1179.948
201,0.333233,1180.172
202,0.3349,1180.172
203,0.336567,1179.278
204,0.338233,1177.564
205,0.339883,1177.192
206,0.34155,1177.192
207,0.343217,1177.49
208,0.344883,1174.957
209,0.34655,1174.36
210,0.348217,1174.36
211,0.349883,1174.212
212,0.35155,1174.435
213,0.353217,1174.435
214,0.354883,1176.819
215,0.35655,1175.255
216,0.358283,1174.286
217,0.359883,1174.286
218,0.36155,1173.988
219,0.363217,1173.466
220,0.364883,1175.627
221,0.36655,1175.627
222,0.368217,1177.862
223,0.369883,1177.788
224,0.37155,1179.576
225,0.373217,1179.576
226,0.374883,1178.98
227,0.37655,1178.384
228,0.3782,1177.266
229,0.379867,1177.266
230,0.381533,1173.988
231,0.3832,1173.019
232,0.384867,1173.019
233,0.386533,1172.945
234,0.3882,1173.839
235,0.389867,1176.223
236,0.391533,1176.223
237,0.3932,1175.255
238,0.394883,1176.223
239,0.396533,1173.765
240,0.3982,1173.765
241,0.39985,1172.2
242,0.401517,1175.255
243,0.403183,1174.36
244,0.40485,1174.36
245,0.406517,1178.16
246,0.408183,1180.321
247,0.40985,1180.321
248,0.411583,1180.023
249,0.413183,1182.556
250,0.41485,1181.141
251,0.416517,1181.141
252,0.418183,1179.576
253,0.41985,1184.046
254,0.421517,1182.78
255,0.423183,1182.78
256,0.42485,1187.623
257,0.426517,1193.956
258,0.428217,1195.893
259,0.42985,1195.893
260,0.431517,1208.037
261,0.433183,1229.42
262,0.434867,1275.465
263,0.436517,1275.465
264,0.438183,1363.307
265,0.43985,1517.534
266,0.441517,1517.534
267,0.443183,1779.422
268,0.44485,2196.878
269,0.446517,2835.84
270,0.448183,2835.84
271,0.44985,3764.033
272,0.451517,5040.467
273,0.453183,6714.91
274,0.45485,6714.91
275,0.456517,8824.468000000001
276,0.458183,11392.608
277,0.459833,14427.751
278,0.4615,14427.751
279,0.463167,17933.994
280,0.464833,21890.85
281,0.4665,21890.85
282,0.468167,26257.188
283,0.469833,30977.502
284,0.4715,35955.086
285,0.473167,35955.086
286,0.474833,41083.77
287,0.4765,46239.422
288,0.478167,51283.539
289,0.479833,51283.539
290,0.4815,56090.355
291,0.483167,60532.988
292,0.484833,64497.367
293,0.4865,64497.367
294,0.488167,67884.398
295,0.489833,70603.859
296,0.4915,70603.859
297,0.493167,72592.648
298,0.494833,73807.242
299,0.496517,74237.43799999999
300,0.498167,74237.43799999999
301,0.499833,73899.258
302,0.5014999999999999,72838.664
303,0.503183,71130.766
304,0.5049,71130.766
305,0.5065,68867.05499999999
306,0.508167,66166.523
307,0.509833,63142.328
308,0.5115,63142.328
309,0.513167,59908.105
310,0.514833,56572.633
311,0.5165,53224.34
312,0.518167,53224.34
313,0.519817,49936.621
314,0.521483,46762.078
315,0.52315,46762.078
316,0.524817,43739.602
317,0.526483,40897.133
318,0.52815,38245.844
319,0.52985,38245.844
320,0.531483,35794.824
321,0.53315,33539.535
322,0.534817,31465.963
323,0.536483,31465.963
324,0.53815,29569.045
325,0.539817,27836.039
326,0.541483,26256.74
327,0.54315,26256.74
328,0.544817,24814.457
329,0.546583,23495.854
330,0.54815,23495.854
331,0.549817,22289.604
332,0.5514829999999999,21183.641
333,0.55315,20175.428
334,0.554817,20175.428
335,0.5564829999999999,19249.32
336,0.55815,18397.645
337,0.559817,17609.969
338,0.561483,17609.969
339,0.56315,16881.303
340,0.564817,16213.208
341,0.566483,15591.309
342,0.56815,15591.309
343,0.569817,15015.155
344,0.571483,14477.745
345,0.57315,13975.725
346,0.574817,13975.725
347,0.576483,13511.032
348,0.5781500000000001,13079.494
349,0.5798,13079.494
350,0.581483,12678.132
351,0.583183,12297.854
352,0.5848,11940.002
353,0.586467,11940.002
354,0.588133,11603.087
355,0.5898,11283.309
356,0.591467,10987.521
357,0.593133,10987.521
358,0.5948,10712.37
359,0.596467,10448.023
360,0.598133,10200.739
361,0.5998,10200.739
362,0.601467,9964.258
363,0.603133,9735.227000000001
364,0.6048,9735.227000000001
365,0.606467,9521.469999999999
366,0.608133,9320.08
367,0.6098,9128.153
368,0.611467,9128.153
369,0.613133,8950.01
370,0.6148,8779.689
371,0.616467,8610.636
372,0.618133,8610.636
373,0.6198,8450.522999999999
374,0.621467,8295.773999999999
375,0.62315,8150.116
376,0.6248,8150.116
377,0.626467,8014.068
378,0.6281330000000001,7880.106
379,0.6298,7752.329
380,0.631467,7752.329
381,0.6331329999999999,7628.575
382,0.6348,7509.813
383,0.636467,7509.813
384,0.638117,7396.788
385,0.639783,7286.519
386,0.64145,7179.677
387,0.643117,7179.677
388,0.644783,7075.22
389,0.64645,6976.351
390,0.648183,6884.188
391,0.649783,6884.188
392,0.65145,6793.886
393,0.6531169999999999,6708.056
394,0.654783,6622.225
395,0.65645,6622.225
396,0.658117,6538.406
397,0.659817,6458.61
398,0.66145,6458.61
399,0.663117,6381.05
400,0.6649,6309.375
401,0.66645,6239.34
402,0.668117,6239.34
403,0.669767,6168.559
404,0.6714329999999999,6101.728
405,0.6731,6034.3
406,0.674767,6034.3
407,0.676433,5966.574
408,0.6781,5903.691
409,0.679767,5839.318
410,0.681433,5839.318
411,0.6831,5781.204
412,0.684767,5721.673
413,0.686433,5721.673
414,0.6881,5664.751
415,0.689767,5611.852
416,0.691433,5556.271
417,0.6931,5556.271
418,0.694767,5504.042
419,0.696433,5451.813
420,0.698083,5401
421,0.69975,5401
422,0.701417,5353.466
423,0.703083,5306.304
424,0.70475,5259.141
425,0.706417,5259.141
426,0.708083,5212.724
427,0.70975,5164.743
428,0.711417,5123.243
429,0.713083,5123.243
430,0.71475,5082.265
431,0.716417,5043.447
432,0.718083,5043.447
433,0.71975,5003.512
434,0.721417,4960.82
435,0.723083,4920.363
436,0.72475,4920.363
437,0.726417,4878.565
438,0.728083,4842.43
439,0.7297670000000001,4806.593
440,0.731417,4806.593
441,0.733083,4771.277
442,0.73475,4735.813
443,0.736417,4698.485
444,0.738083,4698.485
445,0.73975,4662.872
446,0.741417,4624.277
447,0.743083,4624.277
448,0.74475,4589.111
449,0.746417,4555.359
450,0.7480830000000001,4521.385
451,0.749817,4521.385
452,0.751417,4492.03
453,0.7530829999999999,4459.172
454,0.75475,4427.433
455,0.756417,4427.433
456,0.758067,4395.693
457,0.75975,4366.413
458,0.7614,4337.728
459,0.7630670000000001,4337.728
460,0.764733,4309.49
461,0.7664,4280.582
462,0.7680670000000001,4250.258
463,0.769733,4250.258
464,0.7714,4225.522
465,0.7730669999999999,4195.869
466,0.774733,4195.869
467,0.7764,4167.78
468,0.778067,4140.585
469,0.779733,4108.25
470,0.7814,4108.25
471,0.783183,4085.079
472,0.784733,4060.566
473,0.7864,4035.309
474,0.788067,4035.309
475,0.789733,4013.702
476,0.7914,3987.104
477,0.793067,3960.952
478,0.794733,3960.952
479,0.7964,3935.918
480,0.798083,3909.618
481,0.799733,3909.618
482,0.8014,3888.085
483,0.803067,3868.565
484,0.804733,3846.511
485,0.8064170000000001,3846.511
486,0.808083,3827.587
487,0.809733,3800.616
488,0.8114,3774.539
489,0.813067,3774.539
490,0.814733,3752.485
491,0.8164,3727.972
492,0.818067,3710.166
493,0.819717,3710.166
494,0.821383,3690.496
495,0.8230499999999999,3669.411
496,0.824717,3669.411
497,0.826383,3648.102
498,0.82805,3623.962
499,0.829717,3602.207
500,0.831383,3602.207
501,0.83305,3580.302
502,0.834717,3558.993
503,0.836383,3540.218
504,0.83805,3540.218
505,0.839717,3524.795
506,0.841383,3506.765
507,0.84305,3489.405
508,0.8447170000000001,3489.405
509,0.846383,3469.884
510,0.84805,3447.384
511,0.8497169999999999,3427.267
512,0.851383,3427.267
513,0.85305,3407.448
514,0.8547169999999999,3387.034
515,0.856383,3387.034
516,0.85805,3368.259
517,0.859717,3349.036
518,0.861383,3331.006
519,0.86305,3331.006
520,0.864717,3314.465
521,0.866383,3297.254
522,0.8681,3283.322
523,0.869717,3283.322
524,0.871383,3269.687
525,0.87305,3257.17
526,0.874717,3241.673
527,0.876383,3241.673
528,0.87805,3223.047
529,0.8797,3202.781
530,0.881367,3202.781
531,0.883067,3181.771
532,0.8847,3165.454
533,0.886367,3149.584
534,0.888033,3149.584
535,0.8897,3136.844
536,0.891367,3125.444
537,0.893033,3109.5
538,0.8947000000000001,3109.5
539,0.896367,3093.258
540,0.898033,3075.972
541,0.8997000000000001,3057.048
542,0.901467,3057.048
543,0.903033,3040.955
544,0.9046999999999999,3027.395
545,0.906367,3011.748
546,0.908033,3011.748
547,0.9097,2996.698
548,0.911367,2979.562
549,0.913033,2979.562
550,0.9147,2963.841
551,0.916367,2949.387
552,0.918033,2934.709
553,0.9197,2934.709
554,0.921367,2925.917
555,0.923033,2911.165
556,0.9247,2898.872
557,0.9263670000000001,2898.872
558,0.928033,2887.323
559,0.9297,2871.23
560,0.9313669999999999,2861.843
561,0.933033,2861.843
562,0.9347,2849.028
563,0.9363669999999999,2833.828
564,0.938033,2833.828
565,0.939683,2820.492
566,0.94135,2803.877
567,0.943017,2788.156
568,0.9446830000000001,2788.156
569,0.94635,2776.831
570,0.948017,2765.134
571,0.9496830000000001,2752.542
572,0.95135,2752.542
573,0.953033,2740.175
574,0.9546829999999999,2726.018
575,0.95635,2710.298
576,0.958017,2710.298
577,0.959683,2699.122
578,0.961333,2687.946
579,0.963,2677.441
580,0.9646670000000001,2677.441
581,0.966333,2667.084
582,0.968,2659.485
583,0.9696669999999999,2659.485
584,0.971333,2650.246
585,0.973017,2640.486
586,0.974667,2631.62
587,0.976333,2631.62
588,0.978,2615.303
589,0.979667,2601.445
590,0.981333,2591.163
591,0.983,2591.163
592,0.984667,2581.924
593,0.9863499999999999,2571.717
594,0.988,2562.255
595,0.989667,2562.255
596,0.991333,2551.079
597,0.993,2538.785
598,0.994667,2538.785
599,0.996333,2529.919
600,0.998,2518.296
601,0.999667,2506.226
602,1.001317,2506.226
603,1.002983,2493.486
604,1.00465,2482.98
605,1.006317,2475.083
606,1.007983,2475.083
607,1.00965,2464.95
608,1.011317,2455.264
609,1.012983,2441.555
610,1.01465,2441.555
611,1.016317,2430.081
612,1.017983,2418.31
613,1.019717,2409.89
614,1.021317,2409.89
615,1.022983,2405.271
616,1.02465,2395.734
617,1.026317,2395.734
618,1.027983,2388.507
619,1.02965,2379.865
620,1.031317,2369.359
621,1.032983,2369.359
622,1.03465,2359.599
623,1.036317,2351.627
624,1.037983,2339.78
625,1.03965,2339.78
626,1.041317,2329.946
627,1.042983,2323.464
628,1.04465,2315.938
629,1.046317,2315.938
630,1.047983,2308.786
631,1.04965,2301.037
632,1.051317,2301.037
633,1.052983,2291.799
634,1.05465,2278.164
635,1.056333,2269.298
636,1.057967,2269.298
637,1.059633,2262.22
638,1.0613,2252.981
639,1.062967,2247.542
640,1.064633,2247.542
641,1.0663,2241.731
642,1.067967,2230.48
643,1.069633,2220.72
644,1.0713,2220.72
645,1.072967,2216.026
646,1.074633,2209.321
647,1.0763,2209.321
648,1.077967,2203.286
649,1.079633,2198.815
650,1.0813,2187.789
651,1.082967,2187.789
652,1.084633,2178.848
653,1.0863,2170.28
654,1.087967,2159.402
655,1.089633,2159.402
656,1.0913,2152.175
657,1.092967,2140.999
658,1.094633,2135.336
659,1.0963,2135.336
660,1.097967,2132.207
661,1.099633,2124.831
662,1.1013,2118.945
663,1.102967,2118.945
664,1.104633,2111.644
665,1.1063,2099.499
666,1.107967,2099.499
667,1.109633,2092.496
668,1.1113,2086.386
669,1.112967,2079.457
670,1.114633,2079.457
671,1.1163,2074.391
672,1.117967,2069.473
673,1.119617,2064.779
674,1.121383,2064.779
675,1.12295,2059.191
676,1.124617,2054.572
677,1.126283,2048.388
678,1.12795,2048.388
679,1.129617,2042.353
680,1.131283,2034.977
681,1.13295,2034.977
682,1.134617,2028.942
683,1.136283,2018.288
684,1.138017,2012.178
685,1.139617,2012.178
686,1.141283,2004.355
687,1.14295,1996.83
688,1.144617,1993.179
689,1.146283,1993.179
690,1.14795,1984.537
691,1.149617,1979.545
692,1.151283,1976.192
693,1.15295,1976.192
694,1.154717,1970.083
695,1.156283,1965.761
696,1.15795,1963.005
697,1.159617,1963.005
698,1.161283,1954.511
699,1.16295,1951.083
700,1.164617,1951.083
701,1.166283,1944.974
702,1.16795,1938.939
703,1.169617,1934.394
704,1.171283,1934.394
705,1.17295,1926.199
706,1.174617,1919.493
707,1.176283,1910.478
708,1.17795,1910.478
709,1.1796,1904.89
710,1.181267,1899.302
711,1.182933,1894.608
712,1.1846,1894.608
713,1.186267,1889.542
714,1.187933,1884.55
715,1.1896,1884.55
716,1.191267,1881.123
717,1.192933,1875.46
718,1.1946,1869.351
719,1.196267,1869.351
720,1.197933,1863.316
721,1.1996,1859.665
722,1.201283,1856.089
723,1.202933,1856.089
724,1.2046,1854.524
725,1.206267,1848.489
726,1.207933,1843.05
727,1.2096,1843.05
728,1.211267,1836.866
729,1.212933,1833.662
730,1.2146,1832.172
731,1.216267,1832.172
732,1.217933,1828.447
733,1.2196,1825.69
734,1.221267,1825.69
735,1.222933,1818.314
736,1.2246,1813.248
737,1.226267,1809.075
738,1.227933,1809.075
739,1.229617,1804.307
740,1.231267,1799.166
741,1.232933,1794.547
742,1.2346,1794.547
743,1.236267,1790.449
744,1.237933,1783.818
745,1.239683,1779.348
746,1.24125,1779.348
747,1.242917,1774.579
748,1.244583,1767.203
749,1.24625,1767.203
750,1.247917,1764.372
751,1.249583,1759.678
752,1.25125,1754.91
753,1.2529,1754.91
754,1.254567,1751.557
755,1.256317,1750.067
756,1.2579,1747.385
757,1.259567,1747.385
758,1.261233,1744.181
759,1.2629,1737.028
760,1.264567,1732.26
761,1.266233,1732.26
762,1.2679,1726.523
763,1.269567,1721.978
764,1.271233,1721.978
765,1.272967,1720.116
766,1.274567,1713.484
767,1.276233,1711.845
768,1.2779,1711.845
769,1.279567,1709.759
770,1.281233,1706.481
771,1.2829,1705.587
772,1.284567,1705.587
773,1.286233,1702.458
774,1.2879,1696.795
775,1.289567,1693.89
776,1.291233,1693.89
777,1.2929,1690.984
778,1.294567,1687.78
779,1.296233,1686.215
780,1.2979,1686.215
781,1.299567,1682.714
782,1.301233,1676.083
783,1.302883,1676.083
784,1.304583,1671.985
785,1.306217,1666.918
786,1.307883,1663.491
787,1.30955,1663.491
788,1.311217,1660.511
789,1.312883,1656.935
790,1.31455,1657.084
791,1.316217,1657.084
792,1.317883,1652.986
793,1.31955,1652.166
794,1.321217,1649.26
795,1.322883,1649.26
796,1.32455,1643.002
797,1.326217,1641.214
798,1.327883,1641.214
799,1.32955,1637.34
800,1.331217,1635.477
801,1.332883,1633.987
802,1.33455,1633.987
803,1.336217,1633.838
804,1.337883,1629.442
805,1.33955,1625.791
806,1.341217,1625.791
807,1.342883,1623.183
808,1.34455,1617.223
809,1.346217,1615.882
810,1.347883,1615.882
811,1.34955,1614.243
812,1.351217,1609.623
813,1.352883,1607.09
814,1.35455,1607.09
815,1.356217,1604.557
816,1.357933,1600.31
817,1.359533,1600.31
818,1.3612,1596.361
819,1.362867,1592.115
820,1.364533,1587.272
821,1.3662,1587.272
822,1.367867,1583.099
823,1.369533,1584.142
824,1.3712,1584.068
825,1.372867,1584.068
826,1.374617,1583.248
827,1.376217,1582.503
828,1.377883,1579.896
829,1.379567,1579.896
830,1.3812,1574.531
831,1.382867,1570.433
832,1.384533,1570.433
833,1.3862,1567.304
834,1.387867,1563.877
835,1.389533,1566.037
836,1.391283,1566.037
837,1.392867,1567.826
838,1.394533,1567.528
839,1.3962,1563.504
840,1.397867,1563.504
841,1.399533,1557.246
842,1.4012,1551.285
843,1.402867,1548.007
844,1.404533,1548.007
845,1.4062,1546.74
846,1.407867,1545.474
847,1.409533,1545.474
848,1.4112,1542.866
849,1.412867,1539.066
850,1.414533,1534.894
851,1.4162,1534.894
852,1.417867,1531.765
853,1.419517,1527.891
854,1.421183,1525.506
855,1.42285,1525.506
856,1.424517,1525.879
857,1.426183,1523.867
858,1.42785,1522.079
859,1.429517,1522.079
860,1.431183,1517.907
861,1.43285,1511.723
862,1.434517,1509.488
863,1.436183,1509.488
864,1.43785,1511.35
865,1.439517,1512.989
866,1.441183,1512.989
867,1.44285,1513.436
868,1.44455,1510.084
869,1.446183,1503.825
870,1.44785,1503.825
871,1.449517,1499.727
872,1.451183,1499.653
873,1.45285,1499.206
874,1.454517,1499.206
875,1.456183,1498.237
876,1.45785,1496.3
877,1.459517,1492.649
878,1.461183,1492.649
879,1.46285,1490.34
880,1.464517,1489.148
881,1.466183,1489.148
882,1.46785,1485.05
883,1.469517,1480.207
884,1.471183,1479.611
885,1.47285,1479.611
886,1.474517,1475.736
887,1.476183,1476.854
888,1.477833,1479.983
889,1.4795,1479.983
890,1.481167,1477.45
891,1.482833,1480.803
892,1.4845,1477.45
893,1.486167,1477.45
894,1.487833,1470.223
895,1.4895,1469.552
896,1.491167,1466.721
897,1.49285,1466.721
898,1.4945,1466.423
899,1.496167,1465.976
900,1.497833,1465.976
901,1.4995,1462.996
902,1.501167,1459.718
903,1.502833,1455.545
904,1.5045,1455.545
905,1.506167,1453.608
906,1.507833,1451.373
907,1.509617,1447.648
908,1.511167,1447.648
909,1.512833,1446.307
910,1.5145,1445.636
911,1.516167,1443.625
912,1.517833,1443.625
913,1.5195,1445.86
914,1.521167,1446.53
