"ID","sea_time","fid_signal"
1,0,142.716
2,0.001667,142.626
3,0.0034,142.463
4,0.005,142.448
5,0.006667,142.448
6,0.008333,142.15
7,0.01,141.658
8,0.011667,141.576
9,0.013333,141.576
10,0.015,141.352
11,0.016667,141.628
12,0.018333,141.814
13,0.02,141.814
14,0.021667,141.785
15,0.023333,141.889
16,0.025,141.904
17,0.026667,141.904
18,0.028317,142.075
19,0.029983,142.336
20,0.03165,142.336
21,0.033317,142.232
22,0.034983,141.993
23,0.03665,141.948
24,0.038317,141.948
25,0.039983,141.904
26,0.04165,142.097
27,0.043317,142.15
28,0.044983,142.15
29,0.046633,141.852
30,0.0483,141.755
31,0.049967,141.539
32,0.051633,141.539
33,0.0533,141.554
34,0.054967,141.963
35,0.056633,141.963
36,0.0583,142.477
37,0.059967,142.679
38,0.061633,142.738
39,0.0633,142.738
40,0.064967,142.79
41,0.06668300000000001,142.433
42,0.0683,142.217
43,0.069967,142.217
44,0.071633,142.269
45,0.0733,142.016
46,0.07496700000000001,141.829
47,0.07663300000000001,141.829
48,0.07829999999999999,141.762
49,0.079967,141.621
50,0.081633,141.717
51,0.0833,141.717
52,0.084967,141.911
53,0.086633,142.328
54,0.088283,142.328
55,0.08995,142.47
56,0.091617,142.239
57,0.093283,142.306
58,0.09495000000000001,142.306
59,0.09661699999999999,142.045
60,0.098283,142.09
61,0.09995,142.5
62,0.101617,142.5
63,0.103283,142.768
64,0.105,143.148
65,0.106617,143.029
66,0.108283,143.029
67,0.10995,142.91
68,0.111617,142.485
69,0.113283,142.485
70,0.11495,142.008
71,0.116617,142.03
72,0.118283,142.09
73,0.11995,142.09
74,0.121667,142.016
75,0.123283,142.001
76,0.12495,142.105
77,0.126617,142.105
78,0.128283,142.023
79,0.12995,141.874
80,0.131617,142.202
81,0.133283,142.202
82,0.13495,142.142
83,0.136617,142.127
84,0.138383,142.232
85,0.13995,142.232
86,0.141633,142.008
87,0.143283,141.762
88,0.14495,141.762
89,0.146617,141.598
90,0.148283,141.971
91,0.149933,142.097
92,0.1516,142.097
93,0.153267,142.314
94,0.154933,142.634
95,0.1566,142.679
96,0.158267,142.679
97,0.159933,142.314
98,0.1616,142.06
99,0.163267,141.583
100,0.164933,141.583
101,0.1666,141.375
102,0.168267,141.874
103,0.169933,141.874
104,0.1716,142.299
105,0.173267,142.746
106,0.174933,142.79
107,0.1766,142.79
108,0.178267,142.589
109,0.179933,142.537
110,0.1816,142.366
111,0.183267,142.366
112,0.184933,142.358
113,0.1866,142.351
114,0.188267,142.246
115,0.189933,142.246
116,0.1916,142.097
117,0.193267,142.045
118,0.194933,142.045
119,0.1966,142.261
120,0.198267,142.395
121,0.199933,142.5
122,0.2016,142.5
123,0.203267,142.358
124,0.204933,142.083
125,0.2066,142.068
126,0.20825,142.068
127,0.20995,142.023
128,0.211633,142.12
129,0.21325,142.232
130,0.214917,142.232
131,0.216583,142.224
132,0.21825,142.492
133,0.219917,142.82
134,0.221583,142.82
135,0.22325,142.619
136,0.224917,142.612
137,0.226583,142.612
138,0.22825,142.537
139,0.229917,142.202
140,0.231583,142.172
141,0.23325,142.172
142,0.234917,142.239
143,0.236583,142.209
144,0.23825,142.179
145,0.239917,142.179
146,0.241583,142.47
147,0.24325,142.395
148,0.244917,142.314
149,0.246583,142.314
150,0.24825,142.142
151,0.249917,142.03
152,0.251583,142.03
153,0.25325,141.71
154,0.254917,141.613
155,0.25665,141.807
156,0.25825,141.807
157,0.259917,141.636
158,0.261583,141.732
159,0.26325,141.852
160,0.264917,141.852
161,0.266583,141.889
162,0.26825,142.03
163,0.2699,142.157
164,0.271567,142.157
165,0.273233,142.157
166,0.2749,142.276
167,0.276567,142.165
168,0.278233,142.165
169,0.2799,141.963
170,0.281567,141.777
171,0.283233,141.777
172,0.284917,141.382
173,0.286617,141.278
174,0.288233,141.315
175,0.2899,141.315
176,0.291567,141.494
177,0.293233,141.77
178,0.2949,141.978
179,0.296567,141.978
180,0.298233,142.351
181,0.2999,142.03
182,0.301567,141.829
183,0.303233,141.829
184,0.3049,141.934
185,0.306567,141.837
186,0.308233,141.837
187,0.3099,142.053
188,0.311567,142.261
189,0.313233,142.328
190,0.3149,142.328
191,0.316567,142.209
192,0.318233,142.217
193,0.3199,142.455
194,0.321567,142.455
195,0.323233,142.634
196,0.3249,143.193
197,0.326567,143.819
198,0.328217,143.819
199,0.329883,144.489
200,0.33155,145.443
201,0.333233,146.329
202,0.334883,146.329
203,0.33655,147.79
204,0.3382,149.257
205,0.339867,149.257
206,0.34155,151.336
207,0.3432,154.234
208,0.344867,157.624
209,0.346533,157.624
210,0.3482,161.976
211,0.349867,167.072
212,0.351533,173.159
213,0.3532,173.159
214,0.354867,180.319
215,0.356533,188.269
216,0.35825,197.44
217,0.359867,197.44
218,0.361533,207.782
219,0.3632,219.598
220,0.364867,219.598
221,0.366533,233.613
222,0.3682,249.408
223,0.369867,267.267
224,0.371533,267.267
225,0.3732,287.212
226,0.374933,308.983
227,0.376533,333.019
228,0.3782,333.019
229,0.379867,359.237
230,0.381533,387.84
231,0.3832,418.998
232,0.384867,418.998
233,0.386533,452.489
234,0.3882,489.295
235,0.38985,489.295
236,0.391517,529.282
237,0.393183,572.808
238,0.39485,619.724
239,0.396517,619.724
240,0.398183,669.748
241,0.39985,723.436
242,0.401517,780.918
243,0.403183,780.918
244,0.40485,842.527
245,0.406517,908.583
246,0.408183,979.1849999999999
247,0.40985,979.1849999999999
248,0.411517,1054.66
249,0.413183,1135.647
250,0.41485,1222.074
251,0.416517,1222.074
252,0.418183,1314.297
253,0.41985,1412.079
254,0.421517,1412.079
255,0.423183,1515.746
256,0.42485,1625.471
257,0.426517,1741.26
258,0.428183,1741.26
259,0.42985,1863.547
260,0.431517,1990.892
261,0.433183,2123.326
262,0.43485,2123.326
263,0.436517,2259.947
264,0.4382,2399.966
265,0.43985,2543.189
266,0.441517,2543.189
267,0.443183,2688.169
268,0.44485,2834.216
269,0.446517,2834.216
270,0.448167,2979.495
271,0.449833,3122.822
272,0.4515,3262.93
273,0.453167,3262.93
274,0.454833,3397.882
275,0.4565,3526.956
276,0.458167,3648.907
277,0.4599,3648.907
278,0.4615,3762.476
279,0.463167,3866.613
280,0.464833,3960.118
281,0.4665,3960.118
282,0.468167,4042.171
283,0.469833,4111.923
284,0.4715,4169.427
285,0.473167,4169.427
286,0.474833,4214.48
287,0.4765,4247.382
288,0.478167,4247.382
289,0.479833,4268.192
290,0.4815,4277.371
291,0.483167,4275.404
292,0.484833,4275.404
293,0.4865,4263.163
294,0.488167,4241.042
295,0.489833,4209.742
296,0.4915,4209.742
297,0.493167,4169.807
298,0.494833,4121.721
299,0.4965,4066.981
300,0.498167,4066.981
301,0.499833,4005.834
302,0.5014999999999999,3939.554
303,0.503167,3939.554
304,0.504833,3868.334
305,0.5065,3792.778
306,0.508167,3714.256
307,0.509817,3714.256
308,0.511483,3632.695
309,0.51315,3549.65
310,0.514817,3465.436
311,0.516483,3465.436
312,0.51815,3380.381
313,0.519817,3295.384
314,0.521483,3210.224
315,0.52315,3210.224
316,0.524817,3125.623
317,0.526483,3041.834
318,0.52815,2958.693
319,0.529833,2958.693
320,0.531483,2876.938
321,0.53315,2796.389
322,0.534817,2796.389
323,0.536483,2717.316
324,0.53815,2639.994
325,0.539817,2564.162
326,0.541483,2564.162
327,0.54315,2490.096
328,0.544817,2417.631
329,0.5464830000000001,2347.305
330,0.54815,2347.305
331,0.549817,2278.924
332,0.5514829999999999,2212.673
333,0.55315,2148.338
334,0.554817,2148.338
335,0.5564829999999999,2085.775
336,0.55815,2025.038
337,0.559817,2025.038
338,0.561483,1966.126
339,0.56315,1909.099
340,0.564817,1853.921
341,0.566483,1853.921
342,0.568133,1800.567
343,0.569833,1748.949
344,0.5714669999999999,1699.165
345,0.573133,1699.165
346,0.5748,1651.146
347,0.576467,1605.041
348,0.578133,1560.621
349,0.5798,1560.621
350,0.581467,1517.676
351,0.583133,1476.169
352,0.5848,1476.169
353,0.586467,1435.854
354,0.588133,1397.081
355,0.5898,1359.843
356,0.591467,1359.843
357,0.593133,1323.462
358,0.5948,1288.533
359,0.596467,1254.551
360,0.598133,1254.551
361,0.5998,1221.709
362,0.601467,1190.089
363,0.603133,1159.482
364,0.6048,1159.482
365,0.606467,1129.664
366,0.608133,1100.987
367,0.6098,1073.875
368,0.611567,1073.875
369,0.613133,1047.567
370,0.6148,1022.369
371,0.616467,1022.369
372,0.618133,997.8339999999999
373,0.6198,973.821
374,0.621467,950.247
375,0.623133,950.247
376,0.6248,927.4930000000001
377,0.626467,905.402
378,0.6281330000000001,884.078
379,0.629767,884.078
380,0.631433,863.8869999999999
381,0.6331,844.434
382,0.634767,825.487
383,0.636433,825.487
384,0.6381,807.099
385,0.639767,789.352
386,0.641433,789.352
387,0.6431,771.888
388,0.6448,755.332
389,0.646433,739.247
390,0.6481,739.247
391,0.649767,723.6
392,0.651433,708.744
393,0.6531,693.977
394,0.654767,693.977
395,0.656433,679.694
396,0.6581,665.687
397,0.659767,652.12
398,0.661433,652.12
399,0.6631,639.141
400,0.664767,626.668
401,0.6664330000000001,614.665
402,0.6681,614.665
403,0.669767,602.923
404,0.6714329999999999,591.561
405,0.6731,591.561
406,0.674767,580.4450000000001
407,0.676433,569.761
408,0.6781,559.3150000000001
409,0.679767,559.3150000000001
410,0.681433,548.966
411,0.6831,538.982
412,0.684767,529.11
413,0.686433,529.11
414,0.688083,519.574
415,0.689783,510.566
416,0.6914169999999999,501.73
417,0.693083,501.73
418,0.69475,493.355
419,0.696483,485.353
420,0.698083,485.353
421,0.69975,477.299
422,0.701417,469.64
423,0.703083,461.847
424,0.70475,461.847
425,0.706417,454.172
426,0.708083,446.908
427,0.70975,439.733
428,0.711417,439.733
429,0.713183,433.02
430,0.71475,426.501
431,0.716417,420.123
432,0.718083,420.123
433,0.71975,413.939
434,0.721417,408.173
435,0.723083,402.361
436,0.72475,402.361
437,0.726417,396.691
438,0.728083,391.103
439,0.729817,391.103
440,0.731417,385.299
441,0.733083,380.144
442,0.73475,374.936
443,0.736433,374.936
444,0.738083,370.07
445,0.73975,365.362
446,0.741417,360.228
447,0.743083,360.228
448,0.74475,355.661
449,0.746417,350.758
450,0.7480830000000001,346.325
451,0.749733,346.325
452,0.7514,342.041
453,0.753067,337.712
454,0.754733,337.712
455,0.7564,333.861
456,0.758067,329.725
457,0.759733,325.963
458,0.7614,325.963
459,0.7630670000000001,322.253
460,0.764733,318.386
461,0.7664,314.988
462,0.7680670000000001,314.988
463,0.769733,311.576
464,0.7714,308.402
465,0.7730669999999999,305.481
466,0.774733,305.481
467,0.7764,302.263
468,0.778067,299.372
469,0.7797500000000001,296.339
470,0.78145,296.339
471,0.783067,293.374
472,0.784733,290.647
473,0.7864,290.647
474,0.788067,287.25
475,0.789733,284.284
476,0.7914,281.192
477,0.793067,281.192
478,0.794733,278.13
479,0.7964,275.806
480,0.798067,273.056
481,0.799733,273.056
482,0.8014,270.501
483,0.803067,268.132
484,0.804733,265.628
485,0.8064,265.628
486,0.80805,263.356
487,0.809717,261.292
488,0.811383,261.292
489,0.8130500000000001,258.975
490,0.814717,256.948
491,0.816383,254.713
492,0.8180500000000001,254.713
493,0.819717,252.739
494,0.821383,250.742
495,0.8230499999999999,248.462
496,0.824717,248.462
497,0.826383,246.793
498,0.82805,244.774
499,0.829717,243.12
500,0.831433,243.12
501,0.83305,241.496
502,0.834717,239.521
503,0.836383,239.521
504,0.83805,237.919
505,0.839717,235.952
506,0.841383,234.291
507,0.84305,234.291
508,0.8447170000000001,232.957
509,0.846383,231.229
510,0.848117,229.999
511,0.8497169999999999,229.999
512,0.851383,228.405
513,0.85305,226.811
514,0.8547169999999999,225.261
515,0.856383,225.261
516,0.85805,223.853
517,0.859717,222.556
518,0.861383,221.029
519,0.86305,221.029
520,0.8648,219.852
521,0.866383,218.6
522,0.86805,218.6
523,0.8697,217.363
524,0.871367,216.424
525,0.8730329999999999,215.143
526,0.8747,215.143
527,0.876367,213.541
528,0.878033,212.096
529,0.8797,210.419
530,0.881367,210.419
531,0.883033,209.197
532,0.8847,208.288
533,0.886367,207.379
534,0.888033,207.379
535,0.8897,206.552
536,0.891367,205.405
537,0.893033,205.405
538,0.8947000000000001,204.101
539,0.896367,203.267
540,0.898033,202.179
541,0.8997000000000001,202.179
542,0.901367,201.635
543,0.903033,200.979
544,0.9046999999999999,199.713
545,0.906367,199.713
546,0.908033,198.856
547,0.9097,197.649
548,0.911367,196.718
549,0.913033,196.718
550,0.9147,195.988
551,0.916367,195.049
552,0.918033,194.49
553,0.919683,194.49
554,0.921367,193.655
555,0.923033,193.015
556,0.924683,193.015
557,0.92635,192.486
558,0.928017,191.495
559,0.929667,190.869
560,0.931333,190.869
561,0.9330000000000001,190.035
562,0.934667,189.431
563,0.936333,189.029
564,0.9379999999999999,189.029
565,0.939667,188.231
566,0.941333,187.74
567,0.9429999999999999,187.039
568,0.944667,187.039
569,0.946333,185.959
570,0.948,185.356
571,0.9497,185.356
572,0.951333,184.752
573,0.953,184.305
574,0.954667,184.223
575,0.956333,184.223
576,0.958,183.918
577,0.959667,183.374
578,0.961333,182.405
579,0.963,182.405
580,0.9646670000000001,181.72
581,0.966367,181.124
582,0.968,180.334
583,0.9696669999999999,180.334
584,0.971333,179.902
585,0.973,179.194
586,0.974667,179.194
587,0.976333,178.434
588,0.978,177.987
589,0.979667,177.704
590,0.981333,177.704
591,0.983117,177.1
592,0.984667,176.728
593,0.986333,176.452
594,0.9879829999999999,176.452
595,0.98965,175.685
596,0.991317,175.394
597,0.9929829999999999,174.962
598,0.99465,174.962
599,0.996317,174.329
600,0.998,174.023
601,0.9997,173.628
602,1.001317,173.628
603,1.002983,173.226
604,1.00465,173.055
605,1.006317,173.055
606,1.007983,172.98
607,1.00965,172.816
608,1.011317,172.25
609,1.012983,172.25
610,1.01465,171.512
611,1.016317,171.11
612,1.017983,170.328
613,1.01965,170.328
614,1.021317,169.933
615,1.022983,169.709
616,1.02465,169.151
617,1.026317,169.151
618,1.027983,168.912
619,1.02965,168.517
620,1.031317,168.517
621,1.032983,168.078
622,1.03465,167.772
623,1.036317,167.564
624,1.037983,167.564
625,1.03965,167.72
626,1.041317,167.653
627,1.042983,167.534
628,1.04465,167.534
629,1.046317,167.318
630,1.047967,166.699
631,1.049633,166.342
632,1.0513,166.342
633,1.052967,165.82
634,1.054633,165.194
635,1.0563,165.083
636,1.057967,165.083
637,1.059633,165.038
638,1.0613,164.784
639,1.063,164.784
640,1.064633,164.71
641,1.0663,164.405
642,1.068033,163.883
643,1.069633,163.883
644,1.0713,163.563
645,1.072967,163.496
646,1.074633,163.294
647,1.0763,163.294
648,1.077967,163.309
649,1.079633,163.108
650,1.0813,162.847
651,1.082967,162.847
652,1.084633,162.549
653,1.0863,162.11
654,1.087967,162.11
655,1.089633,161.938
656,1.0913,161.678
657,1.092967,161.275
658,1.094633,161.275
659,1.0963,160.888
660,1.097967,160.493
661,1.099633,160.381
662,1.1014,160.381
663,1.102967,160.493
664,1.104633,160.456
665,1.1063,160.62
666,1.10795,160.62
667,1.109617,160.418
668,1.111283,160.046
669,1.11295,159.711
670,1.114617,159.711
671,1.116283,159.144
672,1.11795,158.943
673,1.119617,158.943
674,1.121283,158.899
675,1.12295,158.861
676,1.124617,158.72
677,1.126283,158.72
678,1.12795,158.407
679,1.129617,158.183
680,1.131283,158.221
681,1.13295,158.221
682,1.134617,158.116
683,1.1363,157.692
684,1.13795,157.394
685,1.139633,157.394
686,1.141283,157.028
687,1.14295,156.954
688,1.144617,156.954
689,1.146283,156.954
690,1.14795,157.028
691,1.149617,156.775
692,1.151283,156.775
693,1.15295,156.403
694,1.154633,156.216
695,1.156283,155.911
696,1.15795,155.911
697,1.159617,156.008
698,1.161283,156.276
699,1.16295,156.276
700,1.164617,156.276
701,1.166283,156.194
702,1.16795,155.941
703,1.1696,155.941
704,1.171267,155.68
705,1.172933,155.732
706,1.1746,155.747
707,1.176267,155.747
708,1.177933,155.628
709,1.1796,155.568
710,1.181267,155.315
711,1.182933,155.315
712,1.1846,154.965
713,1.186333,154.689
714,1.187933,154.6
715,1.1896,154.6
716,1.191267,154.13
717,1.192933,154.085
718,1.1946,154.138
719,1.196267,154.138
720,1.197933,153.907
721,1.1996,153.795
722,1.201267,153.795
723,1.202933,153.579
724,1.2046,153.281
725,1.206267,152.893
726,1.207933,152.893
727,1.2096,153.02
728,1.21125,152.931
729,1.212917,152.946
730,1.214583,152.946
731,1.21625,152.513
732,1.217917,152.335
733,1.219683,152.253
734,1.22125,152.253
735,1.222917,152.044
736,1.224583,152.774
737,1.22625,152.774
738,1.2279,153.072
739,1.229567,152.871
740,1.231233,152.819
741,1.2329,152.819
742,1.234567,152.29
743,1.236233,151.902
744,1.2379,152.186
745,1.239567,152.186
746,1.241233,152.282
747,1.2429,152.32
748,1.244567,152.141
749,1.246233,152.141
750,1.2479,151.634
751,1.249567,151.247
752,1.251233,151.284
753,1.2529,151.284
754,1.254567,151.291
755,1.256233,151.396
756,1.2579,151.396
757,1.259567,151.329
758,1.261233,151.053
759,1.2629,151.083
760,1.264567,151.083
761,1.266233,151.12
762,1.2679,151.239
763,1.269567,151.098
764,1.271233,151.098
765,1.2729,150.83
766,1.274567,150.554
767,1.276233,150.621
768,1.2779,150.621
769,1.279567,150.77
770,1.281233,150.882
771,1.2829,150.882
772,1.284567,150.941
773,1.286233,150.748
774,1.287883,150.554
775,1.28955,150.554
776,1.291217,150.174
777,1.292883,150.099
778,1.29455,149.824
779,1.296217,149.824
780,1.297883,149.816
781,1.29955,149.95
782,1.301217,149.749
783,1.302883,149.749
784,1.304617,149.988
785,1.306217,150.174
786,1.307883,150.196
787,1.30955,150.196
788,1.311217,150.301
789,1.312883,150.241
790,1.314567,150.241
791,1.316217,150.144
792,1.317883,149.868
793,1.31955,149.533
794,1.321217,149.533
795,1.322883,149.213
796,1.32455,149.094
797,1.326233,149.272
798,1.327883,149.272
799,1.32955,149.325
800,1.331217,149.176
801,1.332883,148.93
802,1.33455,148.93
803,1.336217,148.728
804,1.337983,148.751
805,1.33955,148.751
806,1.341217,149.138
807,1.342883,148.937
808,1.34455,148.922
809,1.346217,148.922
810,1.347867,148.728
811,1.349533,148.393
812,1.351233,148.14
813,1.352867,148.14
814,1.354533,147.887
815,1.3562,147.991
816,1.357867,148.08
817,1.359533,148.08
818,1.3612,148.609
819,1.362867,148.848
820,1.364533,148.848
821,1.3662,148.825
822,1.367867,148.624
823,1.369533,148.475
824,1.3712,148.475
825,1.372867,148.341
826,1.374533,148.371
827,1.3762,148.378
828,1.377867,148.378
829,1.379533,147.998
830,1.3812,148.073
831,1.382867,148.095
832,1.384533,148.095
833,1.3862,148.304
834,1.387867,148.766
835,1.389533,148.676
836,1.3912,148.676
837,1.392867,148.632
838,1.394533,148.311
839,1.3962,148.311
840,1.397867,148.021
841,1.399533,147.82
842,1.4012,147.499
843,1.402867,147.499
844,1.404533,147.685
845,1.4062,147.566
846,1.407867,147.499
847,1.40955,147.499
848,1.411183,147.395
849,1.41285,147
850,1.414517,147.127
851,1.416183,147.127
852,1.41785,147.231
853,1.41955,147.142
854,1.421183,147.142
855,1.42285,147.119
856,1.424517,146.769
857,1.426183,146.732
858,1.42785,146.732
859,1.429517,146.896
860,1.431183,146.888
861,1.43285,146.933
862,1.434517,146.933
863,1.436183,147.156
864,1.43785,147
865,1.439517,147.067
866,1.441183,147.067
867,1.44285,147.179
868,1.444517,147.119
869,1.446183,147.291
870,1.44785,147.291
871,1.449517,147.216
872,1.451183,147.089
873,1.45285,147.089
874,1.454517,146.62
875,1.456283,146.508
876,1.45785,146.553
877,1.459517,146.553
878,1.461183,146.516
879,1.46285,146.553
880,1.464517,146.374
881,1.466183,146.374
882,1.467833,146.151
883,1.4695,146.277
884,1.471167,146.516
885,1.472833,146.516
886,1.4745,146.873
887,1.476167,146.933
888,1.477833,146.933
889,1.4795,146.94
890,1.481167,146.687
891,1.482833,146.523
892,1.4845,146.523
893,1.486167,146.709
894,1.487833,146.464
895,1.4895,146.598
896,1.491183,146.598
897,1.4929,146.195
898,1.4945,146.061
899,1.496167,145.912
900,1.497833,145.912
901,1.4995,145.562
902,1.501167,145.659
903,1.502817,145.577
904,1.504483,145.577
905,1.50615,145.815
906,1.507817,145.845
907,1.509483,145.845
908,1.51115,145.681
909,1.512817,145.592
910,1.514483,145.502
911,1.51615,145.502
912,1.517817,145.696
913,1.519483,146.277
914,1.52115,146.419
915,1.522817,146.419
916,1.524483,146.575
917,1.52615,146.642
918,1.5278,146.158
919,1.529467,146.158
920,1.531133,146.218
921,1.5328,145.935
922,1.534467,145.935
923,1.536133,145.763
924,1.5378,145.994
925,1.539467,145.867
926,1.541217,145.867
927,1.5428,145.927
928,1.544467,146.136
929,1.546133,145.875
930,1.5478,145.875
931,1.549467,145.599
932,1.551133,145.644
933,1.5528,145.517
934,1.554467,145.517
935,1.556133,145.726
936,1.5578,146.136
937,1.559467,146.136
938,1.561133,146.27
939,1.562817,146.054
940,1.564517,145.83
941,1.566133,145.83
942,1.5678,145.54
943,1.569467,145.212
944,1.571133,145.324
945,1.5728,145.324
946,1.574567,145.346
947,1.576133,145.331
948,1.5778,145.42
949,1.579467,145.42
950,1.581133,145.279
951,1.5828,145.42
952,1.584467,145.42
953,1.586133,145.42
954,1.587783,145.204
955,1.58945,145.167
956,1.591217,145.093
957,1.592783,145.093
958,1.59445,145.018
