"ID","sea_time","fid_signal"
1,0,1188.964
2,0.001667,1188.964
3,0.00335,1187.399
4,0.005,1187.474
5,0.006667,1185.685
6,0.008333,1185.685
7,0.01,1181.811
8,0.011667,1177.639
9,0.013333,1177.117
10,0.015,1177.117
11,0.016667,1178.309
12,0.018333,1180.693
13,0.020083,1188.74
14,0.021667,1188.74
15,0.02335,1189.038
16,0.025,1186.654
17,0.026667,1184.195
18,0.028333,1184.195
19,0.03,1181.439
20,0.031667,1183.972
21,0.033333,1183.972
22,0.035,1183.45
23,0.036683,1186.207
24,0.038333,1187.697
25,0.04,1187.697
26,0.041667,1185.089
27,0.043333,1185.76
28,0.045,1184.717
29,0.04665,1184.717
30,0.048317,1183.599
31,0.049967,1186.058
32,0.051633,1190.156
33,0.0533,1190.156
34,0.054967,1188.144
35,0.056667,1185.611
36,0.0583,1185.611
37,0.059967,1182.556
38,0.061633,1178.533
39,0.0633,1178.607
40,0.064967,1178.607
41,0.066633,1178.384
42,0.0683,1179.054
43,0.069967,1182.705
44,0.071633,1182.705
45,0.0733,1183.823
46,0.07496700000000001,1187.846
47,0.07663300000000001,1189.709
48,0.07829999999999999,1189.709
49,0.079967,1187.026
50,0.081633,1187.697
51,0.0833,1187.697
52,0.084967,1185.909
53,0.086633,1183.45
54,0.0883,1181.662
55,0.08996700000000001,1181.662
56,0.09163300000000001,1182.184
57,0.09329999999999999,1183.599
58,0.094967,1185.089
59,0.096633,1185.089
60,0.0983,1188.144
61,0.099967,1188.815
62,0.101633,1188.144
63,0.1033,1188.144
64,0.104983,1188.442
65,0.106633,1187.026
66,0.1083,1186.207
67,0.10995,1186.207
68,0.111617,1183.972
69,0.113283,1183.525
70,0.11495,1183.525
71,0.116617,1184.717
72,0.118283,1184.568
73,0.11995,1187.324
74,0.121633,1187.324
75,0.123283,1188.74
76,0.12495,1189.187
77,0.126617,1189.932
78,0.128283,1189.932
79,0.12995,1188.144
80,0.131617,1187.026
81,0.133283,1185.536
82,0.13495,1185.536
83,0.136617,1187.846
84,0.138383,1190.007
85,0.13995,1190.007
86,0.141617,1189.262
87,0.143283,1190.007
88,0.14495,1188.219
89,0.146617,1188.219
90,0.148283,1187.623
91,0.14995,1190.528
92,0.151617,1190.454
93,0.153283,1190.454
94,0.15495,1189.709
95,0.156617,1188.517
96,0.158283,1186.579
97,0.15995,1186.579
98,0.161617,1186.803
99,0.163283,1188.07
100,0.16495,1187.101
101,0.166617,1187.101
102,0.168283,1187.026
103,0.169933,1187.697
104,0.171617,1187.697
105,0.173267,1188.517
106,0.174933,1189.485
107,0.1766,1190.677
108,0.178267,1190.677
109,0.179933,1188.666
110,0.1816,1185.834
111,0.183267,1187.324
112,0.184933,1187.324
113,0.1866,1189.187
114,0.188267,1189.262
115,0.189933,1189.858
116,0.1916,1189.858
117,0.193267,1187.846
118,0.194933,1183.227
119,0.1966,1183.227
120,0.198267,1182.705
121,0.199933,1181.439
122,0.2016,1177.937
123,0.203267,1177.937
124,0.204933,1180.246
125,0.2066,1183.078
126,0.208267,1187.176
127,0.209933,1187.176
128,0.211617,1191.422
129,0.213267,1190.975
130,0.214933,1186.877
131,0.2166,1186.877
132,0.218267,1182.407
133,0.219933,1182.333
134,0.2216,1180.619
135,0.223333,1180.619
136,0.224933,1185.164
137,0.2266,1186.207
138,0.228267,1186.207
139,0.229933,1187.772
140,0.231583,1190.901
141,0.23325,1190.752
142,0.234917,1190.752
143,0.236583,1190.826
144,0.23825,1189.262
145,0.239933,1187.772
146,0.241583,1187.772
147,0.24325,1185.536
148,0.244917,1186.654
149,0.246583,1185.909
150,0.24825,1185.909
151,0.249917,1182.854
152,0.251583,1183.823
153,0.25325,1183.823
154,0.254917,1182.929
155,0.256667,1183.301
156,0.25825,1187.846
157,0.259917,1187.846
158,0.261583,1186.729
159,0.26325,1183.525
160,0.264917,1180.545
161,0.266583,1180.545
162,0.26825,1178.831
163,0.269917,1177.415
164,0.271583,1179.576
165,0.27325,1179.576
166,0.274917,1181.439
167,0.276583,1180.545
168,0.27825,1180.545
169,0.279917,1181.588
170,0.281583,1181.513
171,0.28325,1181.811
172,0.284917,1181.811
173,0.286583,1182.109
174,0.28825,1182.854
175,0.289917,1184.94
176,0.291583,1184.94
177,0.293233,1184.791
178,0.2949,1184.195
179,0.296567,1183.599
180,0.298233,1183.599
181,0.2999,1182.631
182,0.301567,1185.313
183,0.303233,1186.43
184,0.3049,1186.43
185,0.306567,1186.43
186,0.308233,1184.866
187,0.3099,1184.866
188,0.311567,1182.407
189,0.313233,1180.321
190,0.3149,1180.321
191,0.316567,1180.321
192,0.318233,1183.674
193,0.3199,1184.27
194,0.321567,1188.442
195,0.323233,1188.442
196,0.3249,1191.199
197,0.326567,1192.316
198,0.328233,1191.497
199,0.3299,1191.497
200,0.331567,1185.909
201,0.333233,1185.909
202,0.3349,1185.909
203,0.336567,1183.674
204,0.338217,1186.654
205,0.339883,1190.081
206,0.3416,1190.081
207,0.343217,1187.697
208,0.344883,1188.591
209,0.34655,1189.187
210,0.348217,1189.187
211,0.349883,1191.199
212,0.351533,1190.975
213,0.3532,1191.571
214,0.354867,1191.571
215,0.356533,1188.889
216,0.3582,1186.803
217,0.359867,1187.101
218,0.361533,1187.101
219,0.3632,1183.078
220,0.364867,1181.513
221,0.366533,1181.513
222,0.3682,1180.246
223,0.369867,1180.023
224,0.371533,1184.419
225,0.3732,1184.419
226,0.374967,1187.623
227,0.376533,1190.603
228,0.3782,1189.336
229,0.379867,1189.336
230,0.381533,1184.568
231,0.3832,1182.556
232,0.3849,1180.023
233,0.38655,1180.023
234,0.3882,1180.992
235,0.389867,1182.482
236,0.391533,1182.482
237,0.3932,1183.301
238,0.394867,1183.227
239,0.396533,1182.929
240,0.3982,1182.929
241,0.399867,1182.854
242,0.401533,1183.897
243,0.4032,1184.046
244,0.404867,1184.046
245,0.406533,1183.45
246,0.4082,1183.45
247,0.409867,1180.992
248,0.411517,1180.992
249,0.413183,1184.121
250,0.41485,1188.293
251,0.416517,1188.293
252,0.418183,1188.74
253,0.41985,1190.752
254,0.421517,1188.964
255,0.423183,1188.964
256,0.42485,1184.27
257,0.426517,1184.121
258,0.428183,1186.132
259,0.42985,1186.132
260,0.431517,1188.368
261,0.433183,1190.379
262,0.43485,1194.477
263,0.436517,1194.477
264,0.438183,1192.242
265,0.43985,1191.124
266,0.441517,1192.391
267,0.443183,1192.391
268,0.44485,1188.889
269,0.446517,1189.858
270,0.4482,1189.858
271,0.44985,1189.485
272,0.451533,1187.026
273,0.453183,1187.548
274,0.45485,1187.548
275,0.456517,1187.921
276,0.458183,1185.313
277,0.459867,1189.113
278,0.461517,1189.113
279,0.463183,1188.666
280,0.46485,1187.846
281,0.466517,1192.912
282,0.468183,1192.912
283,0.46985,1190.081
284,0.4715,1190.454
285,0.473167,1190.454
286,0.474833,1192.614
287,0.4765,1191.497
288,0.478167,1194.924
289,0.479833,1194.924
290,0.4815,1198.128
291,0.483167,1199.543
292,0.484833,1202.002
293,0.4865,1202.002
294,0.488167,1202.747
295,0.489833,1206.398
296,0.4915,1210.868
297,0.49325,1210.868
298,0.494833,1213.104
299,0.4965,1216.456
300,0.498167,1214.594
301,0.499833,1214.594
302,0.5014999999999999,1215.339
303,0.503167,1217.723
304,0.504833,1217.723
305,0.5065,1223.162
306,0.508167,1230.761
307,0.509833,1237.392
308,0.5115,1237.392
309,0.513167,1251.996
310,0.514833,1270.1
311,0.5165,1297.966
312,0.518167,1297.966
313,0.519833,1340.508
314,0.5215,1396.313
315,0.523167,1475.736
316,0.524867,1475.736
317,0.5265,1585.856
318,0.5281670000000001,1729.801
319,0.529833,1729.801
320,0.5315,1913.98
321,0.53315,2144.948
322,0.534817,2424.493
323,0.536483,2424.493
324,0.53815,2759.024
325,0.539817,3151.67
326,0.541483,3598.928
327,0.54315,3598.928
328,0.544817,4103.556
329,0.5464830000000001,4658.848
330,0.54815,5261.973
331,0.549817,5261.973
332,0.5514829999999999,5913.75
333,0.55315,6600.395
334,0.554817,7318.929
335,0.5564829999999999,7318.929
336,0.55815,8064.508
337,0.559817,8825.511
338,0.561483,8825.511
339,0.56315,9601.34
340,0.564817,10385.886
341,0.566483,11168.122
342,0.56815,11168.122
343,0.569817,11943.058
344,0.571483,12704.208
345,0.57315,13445.467
346,0.574817,13445.467
347,0.576483,14160.499
348,0.5781500000000001,14838.278
349,0.579817,15477.91
350,0.581483,15477.91
351,0.5831499999999999,16067.252
352,0.584817,16606.004
353,0.586483,16606.004
354,0.58815,17093.346
355,0.589817,17515.496
356,0.591483,17876.252
357,0.593133,17876.252
358,0.5949,18166.006
359,0.596467,18381.252
360,0.598133,18521.025
361,0.5998,18521.025
362,0.601467,18583.908
363,0.603133,18573.775
364,0.6048,18493.234
365,0.606467,18493.234
366,0.608133,18353.09
367,0.6098,18151.85
368,0.61155,17895.773
369,0.613133,17895.773
370,0.6148169999999999,17594.77
371,0.616467,17250.553
372,0.618133,17250.553
373,0.6198,16877.428
374,0.621467,16483.814
375,0.623133,16072.02
376,0.6248,16072.02
377,0.626467,15655.532
378,0.62825,15232.488
379,0.629783,14811.605
380,0.63145,14811.605
381,0.633117,14399.066
382,0.634783,13989.881
383,0.63645,13594.851
384,0.638117,13594.851
385,0.639783,13212.935
386,0.64145,12845.844
387,0.643117,12845.844
388,0.644783,12492.016
389,0.64645,12155.846
390,0.6481170000000001,11828.766
391,0.649783,11828.766
392,0.651433,11515.543
393,0.6531,11218.339
394,0.654767,10930.3
395,0.656433,10930.3
396,0.6581,10656.789
397,0.659767,10395.646
398,0.661433,10148.287
399,0.6631,10148.287
400,0.664767,9911.433000000001
401,0.6664330000000001,9689.405000000001
402,0.66815,9689.405000000001
403,0.669767,9476.021000000001
404,0.6714329999999999,9270.98
405,0.6731,9074.732
406,0.674767,9074.732
407,0.676433,8885.637000000001
408,0.6781,8701.831
409,0.679767,8528.903
410,0.681433,8528.903
411,0.6831,8363.798000000001
412,0.684767,8201.152
413,0.686433,8049.309
414,0.6881,8049.309
415,0.689767,7901.713
416,0.691433,7759.407
417,0.6931,7625.744
418,0.694767,7625.744
419,0.696433,7494.837
420,0.6981000000000001,7371.083
421,0.699767,7371.083
422,0.701433,7252.47
423,0.7030999999999999,7139.742
424,0.704767,7028.431
425,0.706433,7028.431
426,0.7081,6918.609
427,0.709767,6808.639
428,0.711417,6703.288
429,0.713183,6703.288
430,0.71475,6602.928
431,0.716417,6508.529
432,0.718083,6419.867
433,0.71975,6419.867
434,0.721417,6331.503
435,0.723083,6245.896
436,0.72475,6245.896
437,0.726417,6158.352
438,0.728083,6076.768
439,0.729817,5999.133
440,0.731417,5999.133
441,0.733083,5922.765
442,0.73475,5851.537
443,0.736417,5781.353
444,0.738083,5781.353
445,0.73975,5711.019
446,0.741417,5644.411
447,0.743117,5577.728
448,0.74475,5577.728
449,0.746517,5515.218
450,0.7480830000000001,5453.527
451,0.74975,5393.475
452,0.751417,5393.475
453,0.7530829999999999,5335.137
454,0.75475,5278.364
455,0.756417,5278.364
456,0.758083,5225.092
457,0.75975,5171.448
458,0.761417,5120.486
459,0.763083,5120.486
460,0.76475,5066.32
461,0.766417,5014.539
462,0.768083,4963.8
463,0.769733,4963.8
464,0.7714,4913.211
465,0.7730669999999999,4866.347
466,0.774733,4822.537
467,0.7764,4822.537
468,0.778067,4781.41
469,0.779733,4740.879
470,0.7814,4740.879
471,0.783067,4697.069
472,0.784733,4649.758
473,0.7864,4607.96
474,0.788067,4607.96
475,0.78975,4564.598
476,0.7914,4526.6
477,0.793067,4490.092
478,0.794733,4490.092
479,0.7964,4451.796
480,0.798067,4418.343
481,0.799733,4384.369
482,0.8014,4384.369
483,0.803067,4352.555
484,0.804733,4322.827
485,0.8064170000000001,4288.107
486,0.808067,4288.107
487,0.809733,4253.76
488,0.8114,4222.318
489,0.813067,4222.318
490,0.814733,4189.759
491,0.8164,4160.404
492,0.818067,4131.496
493,0.819733,4131.496
494,0.8214,4099.31
495,0.823067,4067.272
496,0.824733,4039.034
497,0.8264,4039.034
498,0.828067,4011.094
499,0.8297330000000001,3983.229
500,0.8314,3958.568
501,0.83305,3958.568
502,0.834717,3934.056
503,0.836383,3909.618
504,0.83805,3909.618
505,0.839717,3887.638
506,0.841383,3861.934
507,0.84305,3834.218
508,0.8447170000000001,3834.218
509,0.846383,3809.556
510,0.84805,3783.926
511,0.8497169999999999,3762.022
512,0.851383,3762.022
513,0.85305,3742.501
514,0.8547169999999999,3720.373
515,0.856383,3698.692
516,0.85805,3698.692
517,0.859717,3676.489
518,0.861383,3656.074
519,0.86305,3656.074
520,0.8648169999999999,3636.181
521,0.866383,3618.002
522,0.86805,3596.544
523,0.869717,3596.544
524,0.871383,3574.863
525,0.87305,3553.331
526,0.874717,3531.724
527,0.876383,3531.724
528,0.87805,3514.513
529,0.879717,3497.004
530,0.881383,3478.974
531,0.883083,3478.974
532,0.884717,3461.465
533,0.886383,3443.509
534,0.88805,3426.224
535,0.889717,3426.224
536,0.891367,3411.323
537,0.893033,3395.677
538,0.8947000000000001,3395.677
539,0.896367,3379.36
540,0.898033,3362.894
541,0.8997000000000001,3346.056
542,0.901367,3346.056
543,0.903033,3328.919
544,0.9046999999999999,3313.944
545,0.906367,3300.16
546,0.908033,3300.16
547,0.9097,3285.482
548,0.911367,3270.507
549,0.913033,3254.488
550,0.9147,3254.488
551,0.916367,3239.885
552,0.918033,3226.027
553,0.9197,3226.027
554,0.92135,3216.788
555,0.923017,3205.24
556,0.924683,3192.052
557,0.92635,3192.052
558,0.928017,3175.363
559,0.929683,3157.407
560,0.93135,3142.282
561,0.933017,3142.282
562,0.934683,3126.86
563,0.93635,3115.386
564,0.938017,3104.806
565,0.939683,3104.806
566,0.94135,3092.512
567,0.943017,3079.399
568,0.9446830000000001,3070.086
569,0.94635,3070.086
570,0.948017,3056.899
571,0.94975,3044.531
572,0.95135,3044.531
573,0.953,3032.163
574,0.954667,3019.869
575,0.956333,3007.874
576,0.958,3007.874
577,0.959667,2997.145
578,0.961333,2985.746
579,0.963,2973.676
580,0.964683,2973.676
581,0.966333,2965.108
582,0.968,2956.986
583,0.9696669999999999,2947.375
584,0.971333,2947.375
585,0.973,2936.05
586,0.974667,2923.31
587,0.976333,2923.31
588,0.978,2911.836
589,0.979667,2904.981
590,0.981333,2897.68
591,0.9831,2897.68
592,0.984667,2889.559
593,0.986333,2880.32
594,0.988,2867.803
595,0.989667,2867.803
596,0.991333,2855.658
597,0.993,2845.079
598,0.994667,2833.977
599,0.996333,2833.977
600,0.998,2825.782
601,0.999667,2820.566
602,1.001333,2814.159
603,1.003,2814.159
604,1.004667,2806.559
605,1.006333,2797.097
606,1.008,2797.097
607,1.009667,2787.411
608,1.011333,2777.651
609,1.012983,2769.455
610,1.01465,2769.455
611,1.016317,2762.526
612,1.017983,2752.095
613,1.01965,2742.559
614,1.021317,2742.559
615,1.022983,2736.598
616,1.02465,2728.999
617,1.026317,2722.74
618,1.027983,2722.74
619,1.02965,2717.376
620,1.031317,2706.647
621,1.032983,2706.647
622,1.03465,2697.334
623,1.036317,2691.001
624,1.037983,2683.177
625,1.03965,2683.177
626,1.041317,2676.621
627,1.042983,2671.48
628,1.04465,2664.477
629,1.046317,2664.477
630,1.047983,2658.218
631,1.04965,2651.736
632,1.051317,2645.403
633,1.052983,2645.403
634,1.05465,2637.133
635,1.056317,2630.576
636,1.057983,2630.576
637,1.05965,2625.734
638,1.061317,2617.613
639,1.062983,2609.64
640,1.06465,2609.64
641,1.066317,2600.178
642,1.068033,2592.281
643,1.069633,2585.277
644,1.0713,2585.277
645,1.072967,2581.626
646,1.074633,2575.219
647,1.0763,2568.215
648,1.077967,2568.215
649,1.079633,2564.49
650,1.0813,2557.635
651,1.082967,2554.059
652,1.084633,2554.059
653,1.0863,2547.726
654,1.087967,2539.307
655,1.089633,2539.307
656,1.0913,2531.186
657,1.092967,2522.171
658,1.094633,2517.775
659,1.0963,2517.775
660,1.097967,2514.571
661,1.099633,2510.473
662,1.101417,2505.183
663,1.102967,2505.183
664,1.104633,2498.552
665,1.1063,2491.027
666,1.107967,2486.929
667,1.109633,2486.929
668,1.1113,2483.055
669,1.112967,2478.361
670,1.114633,2478.361
671,1.1163,2472.922
672,1.117967,2464.727
673,1.119633,2460.033
674,1.1213,2460.033
675,1.122967,2454.296
676,1.124633,2451.018
677,1.1263,2447.292
678,1.127967,2447.292
679,1.129633,2443.045
680,1.131283,2437.234
681,1.13295,2430.603
682,1.134617,2430.603
683,1.136283,2424.717
684,1.13795,2417.192
685,1.139617,2413.168
686,1.141283,2413.168
687,1.14295,2408.326
688,1.144617,2405.345
689,1.146283,2405.345
690,1.14795,2404.675
691,1.149617,2401.918
692,1.151283,2398.938
693,1.15295,2398.938
694,1.154617,2392.903
695,1.156283,2387.092
696,1.15795,2378.374
697,1.159617,2378.374
698,1.161283,2370.253
699,1.16295,2365.187
700,1.164617,2357.885
701,1.166283,2357.885
702,1.16795,2357.066
703,1.169617,2356.544
704,1.171283,2356.544
705,1.17295,2355.501
706,1.174617,2353.862
707,1.176283,2351.627
708,1.17795,2351.627
709,1.179617,2347.305
710,1.181283,2343.58
711,1.18295,2341.345
712,1.184617,2341.345
713,1.186333,2335.161
714,1.18795,2332.926
715,1.189617,2329.2
716,1.191267,2329.2
717,1.19295,2321.676
718,1.1946,2317.503
719,1.196267,2311.021
720,1.197933,2311.021
721,1.1996,2304.614
722,1.201267,2300.665
723,1.202933,2300.665
724,1.204617,2298.281
725,1.206267,2294.555
726,1.207933,2290.606
727,1.2096,2290.606
728,1.211267,2287.179
729,1.212917,2281.144
730,1.214583,2276.674
731,1.21625,2276.674
732,1.217917,2273.396
733,1.2197,2270.788
734,1.22125,2269
735,1.222917,2269
736,1.224583,2266.914
737,1.22625,2261.847
738,1.227917,2261.847
739,1.229583,2257.451
740,1.23125,2254.62
741,1.232917,2250.001
742,1.2346,2250.001
743,1.23625,2248.362
744,1.237917,2245.679
745,1.239583,2241.209
746,1.24125,2241.209
747,1.242917,2238.154
748,1.244583,2235.696
749,1.24625,2233.163
750,1.247917,2233.163
751,1.249583,2228.543
752,1.251233,2225.19
753,1.2529,2225.19
754,1.254567,2222.881
755,1.256233,2218.485
756,1.2579,2217.74
757,1.259567,2217.74
758,1.261233,2214.909
759,1.2629,2209.619
760,1.264567,2206.191
761,1.266233,2206.191
762,1.2679,2199.56
763,1.269567,2194.047
764,1.271233,2190.173
765,1.2729,2190.173
766,1.274567,2187.192
767,1.276233,2183.616
768,1.2779,2184.361
769,1.279567,2184.361
770,1.281233,2181.232
771,1.2829,2178.326
772,1.284567,2178.326
773,1.286233,2178.177
774,1.287933,2173.781
775,1.289567,2170.876
776,1.291233,2170.876
777,1.2929,2168.566
778,1.294567,2164.468
779,1.296233,2159.402
780,1.2979,2159.402
781,1.299567,2156.272
782,1.30125,2150.536
783,1.3029,2149.269
784,1.30465,2149.269
785,1.306233,2149.045
786,1.3079,2146.289
787,1.309567,2146.289
788,1.311217,2145.842
789,1.312883,2140.85
790,1.31455,2135.635
791,1.316217,2135.635
792,1.317883,2135.113
793,1.31955,2132.952
794,1.321217,2130.121
795,1.322883,2130.121
796,1.32455,2131.164
797,1.326217,2129.749
798,1.327883,2126.47
799,1.32955,2126.47
800,1.331217,2126.47
801,1.332883,2118.424
802,1.33455,2111.42
803,1.336217,2111.42
804,1.33795,2107.546
805,1.33955,2103.969
806,1.341217,2103.969
807,1.342883,2106.652
808,1.34455,2104.268
809,1.346217,2105.534
810,1.347883,2105.534
811,1.34955,2102.479
812,1.351217,2099.201
813,1.352883,2098.903
814,1.35455,2098.903
815,1.356217,2094.507
816,1.357883,2092.049
817,1.35955,2089.515
818,1.361217,2089.515
819,1.362883,2089.739
820,1.36455,2086.237
821,1.366217,2086.237
822,1.367883,2083.629
823,1.36955,2081.32
824,1.371217,2074.912
825,1.372867,2074.912
826,1.374533,2073.497
827,1.3762,2071.336
828,1.377883,2065.897
829,1.379583,2065.897
830,1.3812,2063.96
831,1.382867,2063.662
832,1.384533,2061.874
833,1.3862,2061.874
834,1.387867,2063.066
835,1.389533,2061.054
836,1.3912,2057.701
837,1.392867,2057.701
838,1.394533,2055.913
839,1.3962,2053.752
840,1.397867,2053.752
841,1.399533,2052.709
842,1.4012,2048.91
843,1.402867,2047.718
844,1.404533,2047.718
845,1.4062,2046.078
846,1.407867,2040.938
847,1.409533,2036.318
848,1.4112,2036.318
849,1.412867,2029.985
850,1.414533,2024.099
851,1.4162,2023.876
852,1.417867,2023.876
853,1.419533,2025.962
854,1.421217,2027.079
855,1.4229,2027.079
856,1.424533,2026.93
857,1.4262,2022.162
858,1.427867,2018.809
859,1.429533,2018.809
860,1.431183,2014.264
861,1.43285,2012.327
862,1.434517,2012.104
863,1.436183,2012.104
864,1.43785,2009.198
865,1.439517,2006.367
866,1.441183,2006.59
867,1.44285,2006.59
868,1.444517,2006.963
869,1.446183,2005.845
870,1.44785,2005.845
871,1.449533,2004.579
872,1.451233,1998.469
873,1.45285,1997.054
874,1.454517,1997.054
875,1.456283,1995.638
876,1.45785,1994.595
877,1.459517,1993.701
878,1.461183,1993.701
879,1.46285,1988.783
880,1.464517,1988.709
881,1.466183,1985.878
882,1.46785,1985.878
883,1.469517,1981.705
884,1.471183,1980.588
885,1.47285,1975.447
886,1.474517,1975.447
887,1.476183,1975.596
888,1.47785,1975.074
889,1.479517,1975.074
890,1.481183,1975.447
891,1.48285,1973.957
892,1.484517,1969.486
893,1.486183,1969.486
894,1.48785,1970.306
895,1.489517,1969.188
896,1.491183,1968.518
897,1.492833,1968.518
898,1.4945,1970.38
899,1.496167,1966.506
900,1.497833,1962.781
901,1.4995,1962.781
902,1.501167,1962.334
903,1.502817,1958.758
904,1.504483,1958.758
905,1.50615,1958.609
906,1.507817,1955.256
907,1.509483,1952.574
908,1.51115,1952.574
909,1.512817,1950.786
910,1.514483,1949.146
911,1.51615,1949.519
912,1.517833,1949.519
913,1.519517,1948.476
914,1.52115,1947.06
915,1.522817,1943.335
916,1.524483,1943.335
917,1.52615,1942.217
918,1.527817,1942.366
