"ID","sea_time","fid_signal"
1,0,149.503
2,0.00165,149.243
3,0.003317,149.25
4,0.004983,149.25
5,0.00665,149.198
6,0.008317,148.49
7,0.009983000000000001,147.581
8,0.01165,147.581
9,0.013317,146.441
10,0.014983,145.838
11,0.01665,145.838
12,0.018317,146.165
13,0.019983,146.702
14,0.02165,147.372
15,0.023317,147.372
16,0.024983,147.775
17,0.02665,147.901
18,0.0283,148.304
19,0.02995,148.304
20,0.031617,148.393
21,0.033283,148.743
22,0.03495,148.609
23,0.036617,148.609
24,0.038283,148.46
25,0.039967,148.378
26,0.041617,148.378
27,0.043283,148.088
28,0.04495,148.229
29,0.046667,148.423
30,0.048283,148.423
31,0.04995,148.706
32,0.051617,148.848
33,0.053283,148.736
34,0.05495,148.736
35,0.056617,148.661
36,0.058283,148.565
37,0.05995,148.267
38,0.061617,148.267
39,0.06328300000000001,148.341
40,0.06494999999999999,148.423
41,0.066617,148.423
42,0.068283,148.445
43,0.06995,148.579
44,0.071617,148.706
45,0.073283,148.706
46,0.07495,148.766
47,0.076617,148.952
48,0.07828300000000001,149.228
49,0.080017,149.228
50,0.081617,149.101
51,0.083283,149.034
52,0.08495,148.9
53,0.086617,148.9
54,0.088267,148.781
55,0.089933,148.84
56,0.0916,148.781
57,0.093267,148.781
58,0.094933,148.743
59,0.09660000000000001,148.669
60,0.09826699999999999,148.669
61,0.09993299999999999,148.55
62,0.1016,148.535
63,0.103267,148.423
64,0.104933,148.423
65,0.1066,148.378
66,0.108267,148.304
67,0.109933,148.296
68,0.1116,148.296
69,0.1133,148.43
70,0.11495,148.468
71,0.1166,148.579
72,0.118267,148.579
73,0.119933,148.751
74,0.1216,148.468
75,0.123267,148.468
76,0.124933,148.557
77,0.1266,148.267
78,0.128267,147.924
79,0.129933,147.924
80,0.1316,148.244
81,0.133267,148.207
82,0.134933,148.363
83,0.1366,148.363
84,0.138267,148.624
85,0.139933,148.512
86,0.1416,148.356
87,0.143267,148.356
88,0.144933,148.512
89,0.146583,148.498
90,0.14825,148.55
91,0.149917,148.55
92,0.151583,148.632
93,0.15325,148.512
94,0.154917,148.512
95,0.156583,148.453
96,0.15825,148.401
97,0.159917,148.147
98,0.161583,148.147
99,0.16325,148.244
100,0.165,148.289
101,0.166583,148.14
102,0.16825,148.14
103,0.169917,148.527
104,0.171583,148.781
105,0.17325,148.691
106,0.174933,148.691
107,0.176583,148.907
108,0.17825,148.728
109,0.179917,148.728
110,0.181583,148.356
111,0.18325,148.229
112,0.184917,148.065
113,0.186583,148.065
114,0.188283,148.103
115,0.189917,148.334
116,0.191583,148.393
117,0.19325,148.393
118,0.194917,148.527
119,0.196583,148.386
120,0.198333,148.073
121,0.199917,148.073
122,0.201583,147.887
123,0.20325,147.574
124,0.204917,147.574
125,0.206567,147.611
126,0.208233,148.028
127,0.2099,148.311
128,0.211567,148.311
129,0.213233,148.229
130,0.2149,148.08
131,0.216567,147.723
132,0.218233,147.723
133,0.2199,147.79
134,0.221567,148.125
135,0.223233,148.371
136,0.2249,148.371
137,0.226567,148.468
138,0.228233,148.274
139,0.2299,147.939
140,0.231567,147.939
141,0.233233,147.73
142,0.2349,147.775
143,0.236567,147.775
144,0.238233,147.656
145,0.2399,147.767
146,0.241567,147.976
147,0.243233,147.976
148,0.2449,147.916
149,0.246567,147.82
150,0.248233,148.028
151,0.2499,148.028
152,0.251567,148.237
153,0.253233,148.08
154,0.2549,148.423
155,0.256567,148.423
156,0.258233,148.371
157,0.2599,147.924
158,0.261567,147.924
159,0.263233,148.043
160,0.2649,147.685
161,0.266583,147.32
162,0.268217,147.32
163,0.269883,147.238
164,0.27155,147.313
165,0.273217,147.276
166,0.274883,147.276
167,0.27655,147.581
168,0.278217,147.872
169,0.279883,147.641
170,0.28155,147.641
171,0.283233,147.76
172,0.284883,147.961
173,0.28655,147.767
174,0.288217,147.767
175,0.289883,147.82
176,0.29155,148.021
177,0.293217,148.021
178,0.294883,147.954
179,0.29655,147.954
180,0.298217,147.842
181,0.299967,147.842
182,0.30155,147.551
183,0.303217,147.015
184,0.304883,147.216
185,0.30655,147.216
186,0.308217,147.44
187,0.309883,147.752
188,0.31155,148.118
189,0.313217,148.118
190,0.314883,148.199
191,0.316667,148.028
192,0.318217,148.028
193,0.319883,147.894
194,0.321533,147.708
195,0.3232,147.685
196,0.324867,147.685
197,0.326517,147.603
198,0.328183,147.417
199,0.32985,147.514
200,0.331517,147.514
201,0.333183,147.305
202,0.334867,147.261
203,0.336517,147.566
204,0.338183,147.566
205,0.33985,147.656
206,0.341517,147.767
207,0.343183,148.17
208,0.34485,148.17
209,0.346517,148.214
210,0.348183,148.103
211,0.349867,148.103
212,0.351517,147.954
213,0.353183,147.782
214,0.35485,147.834
215,0.356517,147.834
216,0.3582,148.229
217,0.35985,148.542
218,0.361517,149.041
219,0.363183,149.041
220,0.36485,149.436
221,0.366517,149.988
222,0.368183,150.703
223,0.36985,150.703
224,0.371517,151.47
225,0.373183,152.327
226,0.37485,152.327
227,0.376517,153.326
228,0.378183,154.942
229,0.37985,157.23
230,0.381517,157.23
231,0.383183,160.865
232,0.38485,166.029
233,0.3865,172.421
234,0.388167,172.421
235,0.389833,180.729
236,0.3915,191.502
237,0.393167,205.033
238,0.394833,205.033
239,0.3965,223.078
240,0.398167,246.301
241,0.399833,246.301
242,0.401567,275.575
243,0.403167,312.977
244,0.404867,360.169
245,0.4065,360.169
246,0.408167,419.691
247,0.409833,494.51
248,0.4115,587.426
249,0.413167,587.426
250,0.414833,701.703
251,0.4165,840.1130000000001
252,0.418233,1005.322
253,0.419833,1005.322
254,0.4215,1200.52
255,0.423167,1426.384
256,0.424833,1684.763
257,0.4265,1684.763
258,0.428167,1975.298
259,0.429833,2295.412
260,0.4315,2295.412
261,0.433167,2642.892
262,0.434933,3012.769
263,0.4365,3399.76
264,0.438167,3399.76
265,0.439833,3797.993
266,0.4415,4200.764
267,0.443167,4600.726
268,0.444833,4600.726
269,0.4465,4990.838
270,0.448167,5364.202
271,0.44985,5714.581
272,0.451583,5714.581
273,0.45315,6036.356
274,0.454817,6325.006
275,0.456483,6325.006
276,0.45815,6576.925
277,0.459817,6789.043
278,0.461483,6960.102
279,0.46315,6960.102
280,0.464817,7089.421
281,0.466483,7176.898
282,0.46815,7224.388
283,0.469817,7224.388
284,0.471483,7234.052
285,0.47315,7207.714
286,0.474817,7149.22
287,0.476483,7149.22
288,0.47815,7061.586
289,0.479833,6947.562
290,0.481483,6811.529
291,0.48315,6811.529
292,0.484817,6656.542
293,0.486483,6485.738
294,0.48815,6485.738
295,0.489817,6303.146
296,0.491483,6111.085
297,0.49315,5912.192
298,0.494817,5912.192
299,0.496483,5709.246
300,0.49815,5504.035
301,0.499817,5298.853
302,0.501483,5298.853
303,0.50315,5095.333
304,0.504817,4894.749
305,0.506483,4697.919
306,0.5081329999999999,4697.919
307,0.5098,4505.835
308,0.511467,4319.415
309,0.513133,4319.415
310,0.5148,4139.021
311,0.516467,3965.11
312,0.518133,3797.956
313,0.5198,3797.956
314,0.521467,3637.292
315,0.523133,3483.124
316,0.5248,3335.953
317,0.526467,3335.953
318,0.528133,3195.308
319,0.5298,3061.339
320,0.531467,2934.434
321,0.533133,2934.434
322,0.5348000000000001,2813.548
323,0.5365,2698.839
324,0.538133,2590.127
325,0.5397999999999999,2590.127
326,0.541467,2486.423
327,0.543133,2388.254
328,0.5448,2388.254
329,0.546467,2295.241
330,0.548133,2206.892
331,0.5498,2123.274
332,0.551467,2123.274
333,0.553217,2043.62
334,0.5548,1967.907
335,0.556467,1896.344
336,0.558133,1896.344
337,0.5598,1828.365
338,0.561467,1764.052
339,0.563133,1703.091
340,0.5648,1703.091
341,0.5664670000000001,1644.924
342,0.568117,1589.82
343,0.569883,1537.703
344,0.57145,1537.703
345,0.573117,1488.015
346,0.574783,1440.793
347,0.57645,1440.793
348,0.578133,1395.695
349,0.579783,1352.489
350,0.58145,1311.682
351,0.583117,1311.682
352,0.5847830000000001,1272.745
353,0.58645,1235.641
354,0.588117,1200.073
355,0.5897829999999999,1200.073
356,0.59145,1165.859
357,0.593117,1133.591
358,0.594783,1102.716
359,0.59645,1102.716
360,0.598117,1073.442
361,0.599783,1045.428
362,0.60145,1045.428
363,0.603117,1018.442
364,0.604783,993.028
365,0.60645,968.412
366,0.608117,968.412
367,0.609783,944.801
368,0.61145,922.188
369,0.6131,900.455
370,0.614767,900.455
371,0.616433,879.578
372,0.6181,859.79
373,0.619767,840.418
374,0.621433,840.418
375,0.6231,821.725
376,0.6248,804
377,0.626417,804
378,0.6280829999999999,787.079
379,0.62975,770.926
380,0.631417,755.146
381,0.633083,755.146
382,0.63475,740.103
383,0.636417,725.1950000000001
384,0.638083,711.136
385,0.63975,711.136
386,0.641417,697.598
387,0.643083,684.15
388,0.64475,671.446
389,0.646417,671.446
390,0.648083,658.758
391,0.64975,646.785
392,0.651417,646.785
393,0.653083,635.438
394,0.654817,624.105
395,0.656417,613.414
396,0.658083,613.414
397,0.6597499999999999,602.886
398,0.661417,592.872
399,0.663083,583.149
400,0.66475,583.149
401,0.666417,573.963
402,0.668083,565.0599999999999
403,0.66975,556.223
404,0.67145,556.223
405,0.673083,547.841
406,0.67475,539.385
407,0.676417,531.428
408,0.678083,531.428
409,0.67975,523.7910000000001
410,0.6814170000000001,516.064
411,0.683083,516.064
412,0.68475,508.621
413,0.6864170000000001,501.283
414,0.6882,494.055
415,0.689733,494.055
416,0.6914,487.372
417,0.693067,480.898
418,0.694733,474.364
419,0.6964,474.364
420,0.698067,468.388
421,0.699733,462.338
422,0.7014,456.773
423,0.703067,456.773
424,0.7047330000000001,451.423
425,0.7064,445.88
426,0.708067,445.88
427,0.7097329999999999,440.657
428,0.7114,435.218
429,0.713067,430.226
430,0.714733,430.226
431,0.7164,425.339
432,0.718067,420.853
433,0.719733,416.338
434,0.7214,416.338
435,0.723067,411.756
436,0.724733,407.42
437,0.7264,402.741
438,0.728067,402.741
439,0.729733,398.397
440,0.7314000000000001,394.002
441,0.733067,389.688
442,0.734733,389.688
443,0.7364000000000001,385.933
444,0.738067,382.118
445,0.739733,382.118
446,0.7413999999999999,378.497
447,0.743067,375.293
448,0.744733,371.642
449,0.7464,371.642
450,0.74805,368.431
451,0.749717,365.235
452,0.751383,361.629
453,0.753067,361.629
454,0.754717,358.567
455,0.756383,354.99
456,0.75805,351.682
457,0.759717,351.682
458,0.761383,348.374
459,0.76305,345.178
460,0.764717,345.178
461,0.766383,342.309
462,0.76805,339.612
463,0.769717,337.213
464,0.771383,337.213
465,0.7731170000000001,334.598
466,0.774717,332.087
467,0.776383,329.427
468,0.77805,329.427
469,0.779717,326.633
470,0.781383,324.19
471,0.78305,321.627
472,0.784717,321.627
473,0.7863830000000001,319.25
474,0.78805,316.97
475,0.789717,314.556
476,0.7913829999999999,314.556
477,0.79305,312.358
478,0.794717,309.952
479,0.796383,309.952
480,0.79805,307.575
481,0.799717,305.533
482,0.801383,303.335
483,0.80305,303.335
484,0.804717,301.182
485,0.806467,299.193
486,0.808033,297.025
487,0.8097,297.025
488,0.8113669999999999,295.103
489,0.813033,293.329
490,0.8147,291.511
491,0.816367,291.511
492,0.818033,289.664
493,0.8197,287.667
494,0.821367,287.667
495,0.823033,285.879
496,0.8247,284.389
497,0.826367,282.876
498,0.828033,282.876
499,0.8297,281.468
500,0.831367,279.889
501,0.833033,278.197
502,0.8347,278.197
503,0.836367,276.379
504,0.83805,274.77
505,0.8397,273.079
506,0.841367,273.079
507,0.843033,271.313
508,0.8447,269.815
509,0.846367,269.815
510,0.848033,268.362
511,0.8497,267.044
512,0.851367,266.112
513,0.853033,266.112
514,0.8547,264.935
515,0.856367,263.572
516,0.858033,261.992
517,0.8597,261.992
518,0.861367,260.353
519,0.8630330000000001,259.094
520,0.8647,257.827
521,0.866367,257.827
522,0.868017,256.777
523,0.869683,255.831
524,0.87135,254.862
525,0.873017,254.862
526,0.874683,253.975
527,0.87635,252.977
528,0.878017,252.977
529,0.879683,251.472
530,0.88135,249.84
531,0.8830170000000001,248.492
532,0.884683,248.492
533,0.88635,247.262
534,0.8880169999999999,246.428
535,0.889683,245.467
536,0.8914,245.467
537,0.8930169999999999,244.305
538,0.894683,243.522
539,0.89635,242.487
540,0.898017,242.487
541,0.899683,241.436
542,0.90135,240.713
543,0.903,240.713
544,0.904667,239.633
545,0.9063330000000001,238.478
546,0.908,237.584
547,0.9097,237.584
548,0.9113329999999999,236.414
549,0.913,235.572
550,0.914667,234.656
551,0.916333,234.656
552,0.918,233.956
553,0.919667,233.084
554,0.921333,232.249
555,0.923,232.249
556,0.924783,231.601
557,0.9263169999999999,230.573
558,0.928,229.97
559,0.92965,229.97
560,0.931317,228.986
561,0.932983,228.189
562,0.93465,228.189
563,0.936317,227.667
564,0.937983,227.146
565,0.93965,226.378
566,0.941317,226.378
567,0.942983,225.544
568,0.94465,224.605
569,0.946317,223.786
570,0.947983,223.786
571,0.94965,223.264
572,0.951317,222.787
573,0.952983,222.161
574,0.95465,222.161
575,0.956317,221.044
576,0.957983,220.09
577,0.95965,220.09
578,0.961317,219.122
579,0.962983,218.399
580,0.96465,217.877
581,0.966317,217.877
582,0.967983,217.453
583,0.96965,216.857
584,0.971317,216.179
585,0.972983,216.179
586,0.97465,215.434
587,0.976317,214.621
588,0.977983,214.316
589,0.97965,214.316
590,0.981333,214.063
591,0.9829830000000001,213.668
592,0.984667,212.96
593,0.9863,212.96
594,0.987967,212.17
595,0.989633,211.351
596,0.9913,211.351
597,0.992967,210.814
598,0.994633,210.442
599,0.9963,210.047
600,0.997967,210.047
601,0.999633,209.6
602,1.0013,209.123
603,1.002967,208.758
604,1.004633,208.758
605,1.0063,208.117
606,1.007967,207.417
607,1.009683,206.62
608,1.0113,206.62
609,1.012967,205.941
610,1.014633,205.398
611,1.0163,205.398
612,1.017967,204.846
613,1.019633,204.831
614,1.0213,204.481
615,1.022967,204.481
616,1.024633,204.049
617,1.0263,203.721
618,1.027967,202.909
619,1.029633,202.909
620,1.0313,202.559
621,1.032967,202.201
622,1.034633,201.851
623,1.0363,201.851
624,1.037967,201.322
625,1.039633,200.599
626,1.0413,200.599
627,1.04305,200.07
628,1.044633,199.541
629,1.046283,199.467
630,1.04795,199.467
631,1.049617,199.154
632,1.051283,198.67
633,1.05295,198.238
634,1.054617,198.238
635,1.056283,197.664
636,1.05795,197.269
637,1.059617,196.904
638,1.0613,196.904
639,1.062983,196.464
640,1.064617,195.973
641,1.066283,195.302
642,1.06795,195.302
643,1.069617,195.123
644,1.071283,194.944
645,1.07295,194.944
646,1.074617,194.758
647,1.076283,194.617
648,1.07795,194.423
649,1.079617,194.423
650,1.081283,193.924
651,1.08295,193.253
652,1.084617,193.141
653,1.086283,193.141
654,1.08795,192.538
655,1.089617,192.367
656,1.091283,192.21
657,1.09295,192.21
658,1.094617,191.763
659,1.096283,191.413
660,1.09795,191.413
661,1.099617,190.981
662,1.101283,190.713
663,1.10295,190.318
664,1.104617,190.318
665,1.106267,190.124
666,1.107933,189.833
667,1.1096,189.602
668,1.111267,189.602
669,1.112933,189.409
670,1.1146,188.954
671,1.116267,188.805
672,1.117933,188.805
673,1.1196,188.157
674,1.121267,187.732
675,1.122933,187.472
676,1.12465,187.472
677,1.126267,186.905
678,1.12795,187.054
679,1.1296,187.054
680,1.131267,186.712
681,1.132933,186.436
682,1.1346,186.361
683,1.136267,186.361
684,1.137933,185.855
685,1.1396,185.557
686,1.141267,185.236
687,1.142933,185.236
688,1.144667,185.035
689,1.146267,185.02
690,1.147933,184.789
691,1.1496,184.789
692,1.151267,184.35
693,1.152933,184.037
694,1.1546,184.037
695,1.156267,184.067
696,1.157933,183.88
697,1.1596,183.985
698,1.161367,183.985
699,1.162933,183.627
700,1.1646,182.785
701,1.16625,182.584
702,1.167917,182.584
703,1.169583,182.338
704,1.17125,182.062
705,1.172917,181.757
706,1.174583,181.757
707,1.17625,181.392
708,1.17795,181.004
709,1.179583,180.818
710,1.18125,180.818
711,1.182917,180.684
712,1.184583,180.438
713,1.18625,180.438
714,1.187917,180.17
715,1.189583,179.738
716,1.19125,179.484
717,1.192917,179.484
718,1.194567,179.276
719,1.196233,179.231
720,1.197917,179.037
721,1.199567,179.037
722,1.201233,178.963
723,1.2029,178.754
724,1.204567,178.233
725,1.206233,178.233
726,1.2079,178.128
727,1.209567,177.749
728,1.211233,177.749
729,1.2129,177.629
730,1.214567,177.696
731,1.216233,177.696
732,1.2179,177.696
733,1.219567,177.227
734,1.221233,176.84
735,1.2229,176.586
736,1.224567,176.586
737,1.226233,176.288
738,1.227883,176.318
739,1.22955,176.214
740,1.231217,176.214
741,1.232883,176.184
742,1.23455,175.975
743,1.236217,175.975
744,1.237883,175.975
745,1.23955,176.072
746,1.241217,175.64
747,1.242883,175.64
748,1.24455,175.618
749,1.246267,175.692
750,1.247883,175.469
751,1.24955,175.469
752,1.251217,175.431
753,1.252883,175.007
754,1.25455,174.798
755,1.256217,174.798
756,1.257883,174.649
757,1.25955,174.478
758,1.261217,174.291
759,1.262967,174.291
760,1.26455,173.695
761,1.266217,173.412
762,1.267883,173.412
763,1.269567,173.122
764,1.271217,173.002
765,1.272883,173.151
766,1.27455,173.151
767,1.276217,173.189
768,1.277883,173.286
769,1.279633,173.509
770,1.281217,173.509
771,1.282883,173.278
772,1.28455,172.861
773,1.286217,172.645
774,1.287867,172.645
775,1.289533,172.518
776,1.2912,172.28
777,1.292867,172.28
778,1.294533,172.123
779,1.296283,171.818
780,1.297867,171.408
781,1.299533,171.408
782,1.3012,171.453
783,1.302867,171.401
784,1.304533,171.252
785,1.3062,171.252
786,1.307867,171.259
787,1.309533,171.08
788,1.3112,170.976
789,1.312867,170.976
790,1.314533,170.998
791,1.3162,170.857
792,1.317867,170.976
793,1.319533,170.976
794,1.3212,170.79
795,1.322867,170.328
796,1.324533,170.328
797,1.3262,169.903
798,1.327867,169.471
799,1.329533,169.456
800,1.3312,169.456
801,1.332867,169.68
802,1.334533,169.449
803,1.3362,169.225
804,1.337867,169.225
805,1.339533,169.069
806,1.341233,168.592
807,1.342867,168.622
808,1.344533,168.622
809,1.3462,168.532
810,1.34785,168.413
811,1.349517,168.413
812,1.351183,168.435
813,1.35285,168.711
814,1.354533,168.614
815,1.356183,168.614
816,1.35785,168.607
817,1.359517,168.584
818,1.361183,168.033
819,1.36285,168.033
820,1.364517,167.899
821,1.366183,167.556
822,1.36785,167.564
823,1.369517,167.564
824,1.371183,167.347
825,1.37285,167.057
826,1.374517,166.848
827,1.376183,166.848
828,1.37785,166.61
829,1.379517,166.573
830,1.381217,166.573
831,1.38285,166.468
832,1.384533,166.364
833,1.386183,166.409
834,1.38785,166.409
835,1.389517,166.379
836,1.391183,166.468
837,1.39285,166.811
838,1.394517,166.811
839,1.396183,166.371
840,1.397917,166.416
841,1.399517,166.282
842,1.401183,166.282
843,1.40285,165.962
844,1.4045,165.88
845,1.406167,165.88
846,1.407833,165.813
847,1.4095,165.753
848,1.411167,165.567
849,1.412833,165.567
850,1.414583,165.604
851,1.416167,165.269
852,1.417883,165.306
853,1.4195,165.306
854,1.421167,165.299
855,1.422833,165.194
856,1.4245,165.202
857,1.426167,165.202
858,1.427833,164.844
859,1.4295,164.472
860,1.431167,164.472
861,1.432833,164.285
862,1.4345,163.965
863,1.436167,163.957
864,1.437833,163.957
865,1.4395,164.144
866,1.441167,164.121
867,1.442833,164.196
868,1.4445,164.196
869,1.446167,164.092
870,1.447833,163.808
871,1.4495,163.555
872,1.451167,163.555
873,1.452833,163.577
874,1.4545,163.577
875,1.456167,163.384
876,1.457833,163.384
877,1.4595,163.265
878,1.461167,162.952
879,1.462833,162.952
880,1.4645,162.736
881,1.46615,162.967
882,1.467817,162.989
883,1.469483,162.989
884,1.47115,163.071
885,1.472817,162.981
886,1.474483,162.654
887,1.47615,162.654
888,1.477817,162.661
889,1.479483,162.534
890,1.48115,162.482
891,1.482817,162.482
892,1.484517,162.587
893,1.486133,162.452
894,1.4878,162.452
895,1.489467,162.475
896,1.491133,162.385
897,1.4928,162.281
898,1.494467,162.281
899,1.496133,162.184
900,1.4978,162.013
901,1.499467,161.998
902,1.501133,161.998
903,1.5028,161.842
904,1.504467,161.856
905,1.506133,161.715
906,1.5078,161.715
907,1.509467,161.722
908,1.511133,161.573
909,1.5128,161.357
910,1.514467,161.357
911,1.516183,161.447
912,1.5178,161.275
913,1.519467,161.275
914,1.521133,161.611
915,1.5228,161.707
916,1.524467,161.581
917,1.52615,161.581
918,1.527783,161.38
919,1.52945,160.903
920,1.531117,160.888
921,1.532867,160.888
922,1.53445,160.657
923,1.536117,160.798
924,1.537783,160.635
925,1.53945,160.635
926,1.541117,160.553
927,1.542783,160.813
928,1.54445,160.813
929,1.546117,160.91
930,1.547783,160.977
931,1.54945,160.992
932,1.551117,160.992
933,1.552783,160.687
934,1.55445,160.404
935,1.556117,160.269
936,1.557783,160.269
937,1.559467,159.912
938,1.561117,159.83
939,1.562783,159.763
940,1.56445,159.763
941,1.566117,159.882
942,1.567783,160.068
943,1.56945,160.031
944,1.571117,160.031
945,1.572783,159.763
946,1.57445,159.524
947,1.576117,159.524
948,1.577783,159.182
949,1.57945,159.174
950,1.581117,159.316
951,1.582783,159.316
952,1.584433,159.271
953,1.586117,159.286
954,1.587767,159.241
955,1.589433,159.241
956,1.5911,159.1
957,1.592767,159.115
958,1.594433,158.973
