"ID","sea_time","fid_signal"
1,0,143.103
2,0.001667,143.282
3,0.003333,143.282
4,0.005,143.461
5,0.006667,143.304
6,0.008333,143.304
7,0.01,143.155
8,0.011783,142.641
9,0.013333,142.418
10,0.015,142.418
11,0.016667,142.85
12,0.018333,143.044
13,0.02,143.275
14,0.021667,143.275
15,0.023333,143.342
16,0.025,142.902
17,0.026667,142.686
18,0.028333,142.686
19,0.03,142.738
20,0.031667,143.021
21,0.033333,143.021
22,0.035,143.588
23,0.036667,143.975
24,0.038333,143.871
25,0.04,143.871
26,0.041683,143.655
27,0.043333,143.252
28,0.045,143.148
29,0.046667,143.148
30,0.048333,143.513
31,0.049983,143.729
32,0.05165,143.751
33,0.05335,143.751
34,0.054983,143.61
35,0.05665,143.446
36,0.058317,143.446
37,0.059983,143.2
38,0.06165,143.416
39,0.063317,143.386
40,0.064983,143.386
41,0.06665,143.319
42,0.068317,143.513
43,0.069983,143.386
44,0.07165000000000001,143.386
45,0.07331699999999999,143.446
46,0.07498299999999999,143.416
47,0.07665,142.783
48,0.078317,142.783
49,0.079983,142.746
50,0.08165,142.753
51,0.083317,142.917
52,0.084983,142.917
53,0.08665,143.334
54,0.08831700000000001,143.528
55,0.08998299999999999,143.528
56,0.09165,143.602
57,0.093317,143.677
58,0.094983,143.789
59,0.096717,143.789
60,0.098317,143.96
61,0.099983,144.184
62,0.10165,144.057
63,0.103317,144.057
64,0.104983,143.953
65,0.10665,143.513
66,0.108317,143.245
67,0.109983,143.245
68,0.111633,143.155
69,0.1133,143.148
70,0.114967,143.148
71,0.116633,143.26
72,0.1183,143.595
73,0.119967,143.588
74,0.121633,143.588
75,0.1233,143.699
76,0.124967,143.55
77,0.126633,143.342
78,0.1283,143.342
79,0.130083,143.439
80,0.131633,143.334
81,0.1333,143.446
82,0.134967,143.446
83,0.136633,143.573
84,0.1383,143.647
85,0.139967,143.908
86,0.141633,143.908
87,0.1433,144.117
88,0.144967,144.05
89,0.146633,144.05
90,0.1483,144.042
91,0.149967,143.759
92,0.151633,143.707
93,0.1533,143.707
94,0.154967,143.424
95,0.156633,143.074
96,0.1583,143.126
97,0.159967,143.126
98,0.161633,142.962
99,0.1633,143.439
100,0.164967,143.789
101,0.166633,143.789
102,0.1683,144.02
103,0.16995,143.863
104,0.171617,143.863
105,0.173283,143.416
106,0.17495,143.498
107,0.176617,143.17
108,0.178283,143.17
109,0.17995,143.26
110,0.181617,143.409
111,0.183317,143.386
112,0.18495,143.386
113,0.186617,143.439
114,0.188283,143.431
115,0.18995,143.245
116,0.191617,143.245
117,0.193283,143.074
118,0.19495,143.036
119,0.196617,143.26
120,0.198283,143.26
121,0.19995,143.647
122,0.201617,143.55
123,0.203283,143.55
124,0.20495,143.737
125,0.206617,143.655
126,0.208283,143.528
127,0.20995,143.528
128,0.211617,143.498
129,0.213283,143.439
130,0.215,143.61
131,0.216617,143.61
132,0.218283,143.573
133,0.21995,143.819
134,0.221617,143.744
135,0.223283,143.744
136,0.22495,143.461
137,0.226617,143.379
138,0.228283,143.379
139,0.229933,143.431
140,0.2317,143.506
141,0.233267,143.833
142,0.234933,143.833
143,0.2366,143.945
144,0.238267,143.856
145,0.239933,144.184
146,0.2416,144.184
147,0.243267,143.841
148,0.244933,143.573
149,0.2466,143.781
150,0.2484,143.781
151,0.249933,143.737
152,0.2516,144.087
153,0.253267,144.303
154,0.254933,144.303
155,0.256633,143.99
156,0.258267,143.58
157,0.259933,143.58
158,0.2616,143.267
159,0.263267,143.066
160,0.264933,143.267
161,0.2666,143.267
162,0.268267,143.468
163,0.269933,143.506
164,0.2716,143.632
165,0.273267,143.632
166,0.274933,143.334
167,0.276617,143.133
168,0.278267,143.051
169,0.279933,143.051
170,0.2816,143.297
171,0.283267,143.364
172,0.284933,143.364
173,0.2866,143.476
174,0.288267,143.23
175,0.2899,142.79
176,0.291567,142.79
177,0.293233,143.074
178,0.2949,143.118
179,0.296567,143.431
180,0.298233,143.431
181,0.2999,143.707
182,0.301567,143.476
183,0.303233,143.625
184,0.3049,143.625
185,0.306567,143.707
186,0.308233,143.677
187,0.3099,143.677
188,0.311567,143.521
189,0.313233,143.275
190,0.3149,143.245
191,0.316567,143.245
192,0.318233,143.282
193,0.3199,143.319
194,0.321567,143.334
195,0.323233,143.334
196,0.3249,143.535
197,0.326567,143.453
198,0.328233,143.491
199,0.3299,143.491
200,0.331567,143.714
201,0.333283,143.64
202,0.3349,143.662
203,0.336567,143.662
204,0.338233,143.491
205,0.3399,143.342
206,0.341567,143.342
207,0.343233,143.163
208,0.3449,143.342
209,0.346567,143.714
210,0.348217,143.714
211,0.349967,143.819
212,0.35155,144.005
213,0.353217,144.05
214,0.354883,144.05
215,0.35655,144.228
216,0.358217,144.579
217,0.359883,144.698
218,0.36155,144.698
219,0.363217,145.227
220,0.364883,145.681
221,0.366667,145.666
222,0.368217,145.666
223,0.369883,146.158
224,0.37155,146.449
225,0.373217,146.449
226,0.374883,147.156
227,0.37655,148.572
228,0.378217,149.719
229,0.379883,149.719
230,0.38155,150.733
231,0.383217,151.791
232,0.384883,152.96
233,0.38655,152.96
234,0.388217,154.51
235,0.389883,156.224
236,0.39155,157.684
237,0.393217,157.684
238,0.394883,158.831
239,0.396567,160.173
240,0.398217,160.173
241,0.399883,161.953
242,0.40155,163.652
243,0.403217,165.805
244,0.404883,165.805
245,0.40655,167.646
246,0.408217,168.934
247,0.409867,170.887
248,0.411533,170.887
249,0.4132,172.518
250,0.414867,173.993
251,0.416533,175.498
252,0.4182,175.498
253,0.419867,176.325
254,0.421533,177.123
255,0.4232,177.123
256,0.424867,177.972
257,0.426533,178.456
258,0.4282,179.224
259,0.429867,179.224
260,0.431533,179.715
261,0.4332,179.678
262,0.434867,179.656
263,0.436533,179.656
264,0.4382,179.283
265,0.439867,178.583
266,0.441533,177.845
267,0.4432,177.845
268,0.444867,177.22
269,0.446533,176.124
270,0.4482,175.133
271,0.449867,175.133
272,0.45155,174.15
273,0.4532,173.271
274,0.454867,173.271
275,0.456533,172.235
276,0.4582,171.073
277,0.459867,170.082
278,0.461533,170.082
279,0.4632,169.031
280,0.464867,167.929
281,0.466533,166.908
282,0.468267,166.908
283,0.46985,165.962
284,0.471533,164.367
285,0.473183,163.339
286,0.47485,163.339
287,0.476517,162.527
288,0.478183,161.484
289,0.47985,161.484
290,0.481517,160.679
291,0.483183,159.74
292,0.4849,158.913
293,0.486517,158.913
294,0.488183,158.191
295,0.48985,157.49
296,0.491517,156.917
297,0.493183,156.917
298,0.49485,156.395
299,0.496517,155.754
300,0.498183,155.374
301,0.49985,155.374
302,0.501633,154.629
303,0.503183,153.743
304,0.50485,153.743
305,0.506517,153.303
306,0.5081830000000001,152.901
307,0.50985,152.61
308,0.511517,152.61
309,0.5131829999999999,152.26
310,0.51485,151.843
311,0.516517,151.336
312,0.5181829999999999,151.336
313,0.51985,151.157
314,0.521517,150.964
315,0.523183,150.815
316,0.52485,150.815
317,0.526517,150.748
318,0.528183,150.509
319,0.529833,150.189
320,0.5315,150.189
321,0.5331669999999999,149.608
322,0.534833,149.176
323,0.5365,149.176
324,0.538167,148.93
325,0.539833,148.892
326,0.541517,148.989
327,0.543167,148.989
328,0.544833,149.094
329,0.5465,149.041
330,0.548167,148.818
331,0.549833,148.818
332,0.5515,148.743
333,0.553167,148.14
334,0.554833,147.715
335,0.5565,147.715
336,0.558167,147.685
337,0.559833,147.752
338,0.5615,147.752
339,0.563167,148.088
340,0.564833,148.334
341,0.5665,148.065
342,0.568167,148.065
343,0.56985,147.671
344,0.5715,147.499
345,0.573167,147.544
346,0.574833,147.544
347,0.5765,147.633
348,0.578167,147.983
349,0.579833,147.931
350,0.581483,147.931
351,0.5831499999999999,147.715
352,0.584817,147.708
353,0.5865,147.179
354,0.58815,147.179
355,0.5898,146.948
356,0.591467,147.052
357,0.593133,147.052
358,0.5948,146.925
359,0.596467,147.127
360,0.598133,147.238
361,0.5998,147.238
362,0.601467,147.194
363,0.6032,147.335
364,0.6048,147.164
365,0.606467,147.164
366,0.608133,147.119
367,0.6098,146.806
368,0.611467,146.605
369,0.613133,146.605
370,0.6148,146.568
371,0.616467,146.59
372,0.618133,146.59
373,0.6199170000000001,146.613
374,0.621467,146.762
375,0.623133,147.03
376,0.6248,147.03
377,0.626483,146.955
378,0.6281330000000001,146.963
379,0.6298,146.806
380,0.631467,146.806
381,0.6331329999999999,146.724
382,0.6348,146.724
383,0.636467,147.045
384,0.638133,147.045
385,0.6398,146.873
386,0.641467,146.769
387,0.643167,146.709
388,0.6448,146.709
389,0.646467,146.24
390,0.648133,146.091
391,0.649783,146.091
392,0.65145,145.897
393,0.6531169999999999,145.964
394,0.654783,146.188
395,0.65645,146.188
396,0.658117,146.523
397,0.659783,146.314
398,0.66145,146.106
399,0.663117,146.106
400,0.664783,146.121
401,0.66645,146.084
402,0.668117,146.121
403,0.669783,146.121
404,0.67145,146.233
405,0.673117,145.942
406,0.674783,145.942
407,0.67645,145.748
408,0.678117,145.875
409,0.679783,145.711
410,0.68145,145.711
411,0.683117,146.046
412,0.684783,145.838
413,0.68645,145.786
414,0.688117,145.786
415,0.689783,146.002
416,0.69145,145.823
417,0.693117,145.942
418,0.694783,145.942
419,0.69645,145.853
420,0.698117,145.555
421,0.699783,145.555
422,0.70145,145.659
423,0.703117,145.614
424,0.704783,145.748
425,0.70645,145.748
426,0.708117,145.756
427,0.709767,145.696
428,0.711433,145.994
429,0.7131,145.994
430,0.714767,145.853
431,0.716433,146.128
432,0.7181,145.83
433,0.719767,145.83
434,0.72145,145.778
435,0.7231,145.763
436,0.7247670000000001,145.733
437,0.726433,145.733
438,0.7281,146.061
439,0.7297670000000001,146.091
440,0.731433,146.091
441,0.7331,146.374
442,0.7347669999999999,146.464
443,0.736433,146.18
444,0.738217,146.18
445,0.739767,146.106
446,0.741433,146.046
447,0.7431,145.793
448,0.744767,145.793
449,0.746433,146.031
450,0.7481,145.964
451,0.749767,145.935
452,0.751433,145.935
453,0.7531,146.389
454,0.754767,146.464
455,0.756433,146.464
456,0.7581,146.903
457,0.759783,146.94
458,0.761433,146.754
459,0.7631,146.754
460,0.764767,146.605
461,0.766433,146.352
462,0.7681,146.747
463,0.769767,146.747
464,0.771417,146.598
465,0.773083,146.866
466,0.77475,147.03
467,0.776417,147.03
468,0.778083,147.231
469,0.7797500000000001,147.805
470,0.781417,148.147
471,0.783083,148.147
472,0.7847499999999999,148.49
473,0.786417,148.393
474,0.788083,148.393
475,0.78975,148.289
476,0.791417,148.125
477,0.793083,148.192
478,0.79475,148.192
479,0.796417,148.289
480,0.798083,148.55
481,0.79975,148.788
482,0.801417,148.788
483,0.803083,148.922
484,0.80475,149.183
485,0.8064170000000001,149.533
486,0.808083,149.533
487,0.80975,149.95
488,0.8114170000000001,150.502
489,0.813083,150.502
490,0.81475,151.098
491,0.8164169999999999,151.552
492,0.818083,151.724
493,0.81975,151.724
494,0.821417,151.977
495,0.823133,152.074
496,0.82475,152.372
497,0.826417,152.372
498,0.828083,152.953
499,0.8297330000000001,153.266
500,0.831417,153.892
501,0.833067,153.892
502,0.8347329999999999,154.354
503,0.8364,154.831
504,0.838067,155.509
505,0.839733,155.509
506,0.8414,156.298
507,0.843067,157.416
508,0.844733,157.416
509,0.8464,158.235
510,0.848067,158.988
511,0.849733,159.569
512,0.8514,159.569
513,0.853067,160.068
514,0.85475,160.873
515,0.8565,161.901
516,0.858067,161.901
517,0.859733,162.795
518,0.8614000000000001,163.749
519,0.863067,164.635
520,0.864733,164.635
521,0.8663999999999999,165.291
522,0.868067,166.476
523,0.869733,166.476
524,0.8714,167.772
525,0.87305,169.128
526,0.874717,170.574
527,0.876383,170.574
528,0.87805,171.766
529,0.879717,173.047
530,0.881383,174.195
531,0.88305,174.195
532,0.884717,175.707
533,0.886383,177.316
534,0.88805,178.672
535,0.889733,178.672
536,0.891367,180.192
537,0.893033,181.839
538,0.8947000000000001,181.839
539,0.896367,183.299
540,0.898033,184.909
541,0.8997000000000001,186.779
542,0.901367,186.779
543,0.903033,188.276
544,0.9046999999999999,190.079
545,0.906367,191.703
546,0.908033,191.703
547,0.9097,193.603
548,0.911367,195.66
549,0.913033,197.582
550,0.9147,197.582
551,0.916367,199.854
552,0.918033,202.164
553,0.9197,204.429
554,0.921367,204.429
555,0.923033,206.552
556,0.9247,208.586
557,0.9263670000000001,208.586
558,0.928033,210.643
559,0.9297,212.699
560,0.9313669999999999,215.262
561,0.933033,215.262
562,0.9347,217.862
563,0.9363669999999999,220.15
564,0.938033,222.959
565,0.9397,222.959
566,0.941433,225.335
567,0.943033,227.913
568,0.9447,231.154
569,0.946367,231.154
570,0.948033,233.68
571,0.9496830000000001,236.742
572,0.95135,236.742
573,0.953017,239.804
574,0.9546829999999999,242.345
575,0.95635,245.325
576,0.958017,245.325
577,0.959683,248.417
578,0.96135,251.256
579,0.963017,254.34
580,0.964683,254.34
581,0.96635,257.514
582,0.968017,260.703
583,0.969683,264.183
584,0.97135,264.183
585,0.973017,267.789
586,0.974733,271.536
587,0.9763500000000001,274.964
588,0.978017,274.964
589,0.9797,278.726
590,0.9813499999999999,282.31
591,0.983017,282.31
592,0.984683,286.065
593,0.9863499999999999,290.371
594,0.988017,294.708
595,0.989683,294.708
596,0.99135,299.036
597,0.993017,303.44
598,0.994683,307.493
599,0.99635,307.493
600,0.998017,311.702
601,0.999683,316.195
602,1.00135,320.598
603,1.003017,320.598
604,1.004683,325.106
605,1.00635,329.845
606,1.008017,329.845
607,1.009667,334.725
608,1.011333,339.799
609,1.013,345.051
610,1.014667,345.051
611,1.016333,350.222
612,1.018,355.542
613,1.019667,360.832
614,1.021333,360.832
615,1.023,366.345
616,1.024667,371.896
617,1.026333,377.707
618,1.028,377.707
619,1.029683,383.861
620,1.031333,390.127
621,1.033,396.527
622,1.034667,396.527
623,1.036333,402.972
624,1.038,409.104
625,1.039667,409.104
626,1.041333,415.392
627,1.043,421.725
628,1.044667,428.155
629,1.046333,428.155
630,1.048017,435.054
631,1.049667,442.043
632,1.051333,448.845
633,1.053,448.845
634,1.054667,456.057
635,1.056333,463.448
636,1.058,470.757
637,1.059667,470.757
638,1.061333,478.528
639,1.063,485.778
640,1.064667,485.778
641,1.066333,493.094
642,1.068,500.515
643,1.06965,507.69
644,1.071317,507.69
645,1.072983,515.498
646,1.07465,523.381
647,1.076417,531.413
648,1.077983,531.413
649,1.07965,539.534
650,1.081317,547.0359999999999
651,1.082983,554.331
652,1.08465,554.331
653,1.086317,561.662
654,1.087983,569.12
655,1.08965,569.12
656,1.091317,576.943
657,1.0931,584.9299999999999
658,1.09465,592.828
659,1.096317,592.828
660,1.097983,600.487
661,1.09965,608.0119999999999
662,1.101317,615.694
663,1.102983,615.694
664,1.10465,623.167
665,1.106317,630.6319999999999
666,1.107983,637.971
667,1.10965,637.971
668,1.111317,644.855
669,1.112983,652.038
670,1.11465,659.138
671,1.116317,659.138
672,1.117983,666.104
673,1.11965,672.773
674,1.121317,672.773
675,1.122983,679.188
676,1.124667,685.647
677,1.126317,692.3819999999999
678,1.127967,692.3819999999999
679,1.129633,699.11
680,1.1313,705.414
681,1.132967,711.657
682,1.134633,711.657
683,1.1363,717.3869999999999
684,1.137967,722.744
685,1.139633,728.294
686,1.1413,728.294
687,1.142967,733.7329999999999
688,1.144633,739.0309999999999
689,1.1463,739.0309999999999
690,1.147967,744.2089999999999
691,1.149633,749.1559999999999
692,1.1513,753.678
693,1.152967,753.678
694,1.154633,758
695,1.1563,762.552
696,1.157967,766.799
697,1.159633,766.799
698,1.1613,771.016
699,1.162967,775.248
700,1.164617,779.122
701,1.166283,779.122
702,1.16795,782.736
703,1.169617,786.163
704,1.171283,789.1799999999999
705,1.17295,789.1799999999999
706,1.174617,792.138
707,1.176283,795.178
708,1.177967,795.178
709,1.179617,798.263
710,1.181283,800.967
711,1.18295,803.843
712,1.184617,803.843
713,1.186283,806.458
714,1.18795,808.5890000000001
715,1.1896,810.958
716,1.1913,810.958
717,1.192983,812.747
718,1.194683,814.4160000000001
719,1.196267,815.995
720,1.197933,815.995
721,1.1996,817.508
722,1.201267,818.923
723,1.202933,818.923
724,1.204617,820.294
725,1.206267,821.687
726,1.207933,822.961
727,1.2096,822.961
728,1.211367,824.347
729,1.212933,825.554
730,1.2146,826.359
731,1.216267,826.359
732,1.217933,827.298
733,1.2196,827.558
734,1.221267,827.812
735,1.222933,827.812
736,1.2246,828.274
737,1.226267,828.616
738,1.228033,828.996
739,1.2296,828.996
740,1.231267,829.101
741,1.232933,829.227
742,1.2346,829.227
743,1.236267,829.16
744,1.237933,829.585
745,1.2396,829.794
746,1.241267,829.794
747,1.242933,829.645
748,1.2446,829.607
749,1.246267,829.153
750,1.247933,829.153
751,1.249583,828.668
752,1.25125,828.326
753,1.252917,827.909
754,1.254583,827.909
755,1.25625,827.178
756,1.257917,826.463
757,1.259583,826.463
758,1.26125,826.068
759,1.262917,825.465
760,1.264617,824.9880000000001
761,1.26625,824.9880000000001
762,1.267917,824.429
763,1.269583,823.446
764,1.27125,822.35
765,1.272917,822.35
766,1.274583,821.047
767,1.27625,820.063
768,1.277933,819.087
769,1.279583,819.087
770,1.28125,818.208
771,1.282917,817.7910000000001
772,1.284583,817.7910000000001
773,1.28625,817.187
774,1.287917,815.95
775,1.289583,814.639
776,1.29125,814.639
777,1.292917,813.29
778,1.294583,811.912
779,1.29625,811.152
780,1.297917,811.152
781,1.299583,810.228
782,1.30125,809.364
783,1.302917,808.053
784,1.304583,808.053
785,1.30625,806.399
786,1.307917,804.752
787,1.309583,802.897
788,1.311233,802.897
789,1.312967,801.6900000000001
790,1.314567,800.617
791,1.316233,800.617
792,1.3179,799.686
793,1.319567,798.717
794,1.321233,797.443
795,1.3229,797.443
796,1.324567,796.08
797,1.326233,794.843
798,1.3279,793.763
799,1.329633,793.763
800,1.331233,792.5549999999999
801,1.332917,791.401
802,1.334567,789.881
803,1.336233,789.881
804,1.3379,788.13
805,1.339567,786.528
806,1.341233,786.528
807,1.3429,785.097
808,1.344567,783.63
809,1.3463,782.095
810,1.3479,782.095
811,1.349567,780.508
812,1.351233,778.914
813,1.3529,777.677
814,1.354567,777.677
815,1.356233,776.097
816,1.3579,774.7859999999999
817,1.359567,773.408
818,1.361233,773.408
819,1.3629,771.813
820,1.364567,770.651
821,1.366233,769.109
822,1.367883,769.109
823,1.369567,767.544
824,1.371217,766.21
825,1.372883,766.21
826,1.37455,764.668
827,1.376217,763.342
828,1.377883,761.6799999999999
829,1.37955,761.6799999999999
830,1.381217,760.175
831,1.382883,758.633
832,1.38455,757.135
833,1.386217,757.135
834,1.387883,755.891
835,1.38955,754.1849999999999
836,1.391217,752.792
837,1.392883,752.792
838,1.39455,751.16
839,1.396217,749.432
840,1.397883,749.432
841,1.39955,747.9640000000001
842,1.401217,746.295
843,1.4029,744.931
844,1.40455,744.931
845,1.406217,743.6130000000001
846,1.407883,742.234
847,1.40955,741.042
848,1.411217,741.042
849,1.412883,739.932
850,1.41455,738.792
851,1.416217,737.272
852,1.417883,737.272
853,1.41955,735.641
854,1.421217,734.121
855,1.422883,732.6900000000001
856,1.42455,732.6900000000001
857,1.426217,731.468
858,1.427867,730.284
859,1.429533,730.284
860,1.431233,728.846
861,1.432883,727.586
862,1.434533,726.365
863,1.4362,726.365
864,1.437867,725.165
865,1.439533,723.958
866,1.4412,722.192
867,1.442867,722.192
868,1.444533,720.6799999999999
869,1.4462,719.085
870,1.447917,717.506
871,1.449533,717.506
872,1.4512,716.485
873,1.452867,714.958
874,1.454533,714.958
875,1.456183,713.676
876,1.45785,712.134
877,1.459517,710.763
878,1.461183,710.763
879,1.46285,709.675
880,1.464583,708.2670000000001
881,1.466183,707.455
882,1.46785,707.455
883,1.469517,706.203
884,1.471183,704.974
885,1.47285,703.797
886,1.474533,703.797
887,1.476183,702.143
888,1.47785,701.092
889,1.479517,701.092
890,1.481183,699.557
891,1.48285,698.3579999999999
892,1.484517,697.248
893,1.486183,697.248
894,1.48785,695.549
895,1.4895,694.498
896,1.491167,693.619
897,1.492833,693.619
898,1.4945,692.45
899,1.496167,691.377
900,1.497833,689.857
901,1.4995,689.857
902,1.501167,688.225
903,1.502833,686.869
904,1.5045,685.655
905,1.506167,685.655
906,1.507833,684.775
907,1.5095,683.367
908,1.511167,683.367
909,1.512833,681.996
910,1.5145,680.827
911,1.516167,679.485
912,1.517833,679.485
913,1.5195,678.279
914,1.521167,676.982
915,1.522833,675.775
916,1.5245,675.775
917,1.526167,674.725
918,1.527833,673.5700000000001
919,1.5295,672.936
920,1.531167,672.936
921,1.532833,671.797
922,1.5345,670.806
923,1.536167,670.806
924,1.537833,669.494
925,1.5395,667.5650000000001
926,1.541167,666.283
927,1.54285,666.283
928,1.5445,664.875
929,1.546167,663.884
930,1.547833,663.109
931,1.5495,663.109
932,1.551167,662.029
933,1.552817,661.008
934,1.554483,659.838
935,1.55615,659.838
936,1.557817,658.7430000000001
937,1.559483,657.3049999999999
938,1.56115,655.934
939,1.562817,655.934
940,1.564483,654.861
941,1.56615,653.7809999999999
942,1.567817,653.7809999999999
943,1.569483,652.663
944,1.57115,651.6130000000001
945,1.572817,650.51
946,1.574483,650.51
