"ID","sea_time","fid_signal"
1,0,149.101
2,0.001667,148.825
3,0.003333,148.9
4,0.005,149.198
5,0.006667,149.198
6,0.008333,149.004
7,0.01,148.356
8,0.011667,148.356
9,0.013333,147.149
10,0.015017,146.113
11,0.01665,145.808
12,0.018333,145.808
13,0.019983,146.389
14,0.02165,147.395
15,0.023317,148.363
16,0.024983,148.363
17,0.02665,148.974
18,0.028317,149.176
19,0.029983,149.287
20,0.03165,149.287
21,0.033317,148.945
22,0.034983,148.945
23,0.03665,148.945
24,0.038317,148.788
25,0.039983,148.736
26,0.04165,149.146
27,0.043317,149.146
28,0.045,148.959
29,0.04665,149.146
30,0.048317,149.369
31,0.049983,149.369
32,0.05165,149.213
33,0.053317,149.19
34,0.054983,149.362
35,0.05665,149.362
36,0.058317,149.511
37,0.059983,149.347
38,0.06165,149.399
39,0.063317,149.399
40,0.064983,149.205
41,0.06665,149.272
42,0.068317,149.272
43,0.069983,149.421
44,0.07165000000000001,149.444
45,0.07331699999999999,149.287
46,0.075,149.287
47,0.07665,148.81
48,0.07829999999999999,148.81
49,0.079967,148.892
50,0.081633,148.892
51,0.0833,149.377
52,0.084967,149.652
53,0.086633,149.742
54,0.0883,149.742
55,0.08996700000000001,149.697
56,0.0917,149.22
57,0.09329999999999999,149.22
58,0.094967,149.019
59,0.096633,148.997
60,0.0983,149.146
61,0.099967,149.146
62,0.10165,149.399
63,0.1033,149.861
64,0.104967,150.055
65,0.106633,150.055
66,0.1084,150.196
67,0.109967,150.181
68,0.111633,149.95
69,0.1133,149.95
70,0.114967,149.6
71,0.116633,149.451
72,0.1183,149.451
73,0.119967,149.451
74,0.121633,149.637
75,0.1233,149.809
76,0.124967,149.809
77,0.126633,149.712
78,0.1283,149.593
79,0.129967,149.176
80,0.131633,149.176
81,0.133283,149.123
82,0.13495,149.041
83,0.1366,149.041
84,0.138267,149.041
85,0.139933,149.25
86,0.1416,149.265
87,0.143267,149.481
88,0.144933,149.481
89,0.1466,149.459
90,0.148267,149.474
91,0.149933,149.474
92,0.1516,149.541
93,0.153267,149.377
94,0.154933,149.325
95,0.1566,149.325
96,0.158267,149.295
97,0.159933,149.228
98,0.1616,149.563
99,0.163267,149.563
100,0.164933,149.958
101,0.1666,149.891
102,0.168267,150.07
103,0.169933,150.07
104,0.1716,149.705
105,0.173267,149.332
106,0.174933,149.332
107,0.1766,149.347
108,0.178267,149.079
109,0.179933,149.101
110,0.1816,149.101
111,0.183283,149.146
112,0.184933,149.205
113,0.1866,149.652
114,0.188267,149.652
115,0.189933,149.854
116,0.1916,150.062
117,0.1933,150.315
118,0.194917,150.315
119,0.196583,149.98
120,0.19825,149.719
121,0.199917,149.406
122,0.201583,149.406
123,0.20325,149.131
124,0.204917,149.302
125,0.206583,149.302
126,0.20825,149.265
127,0.209967,149.421
128,0.211583,149.503
129,0.21325,149.503
130,0.214917,149.503
131,0.216583,149.6
132,0.21825,149.488
133,0.219917,149.488
134,0.221583,149.436
135,0.22325,149.325
136,0.224917,149.503
137,0.226667,149.503
138,0.22825,149.578
139,0.229917,149.369
140,0.231583,149.369
141,0.23325,149.526
142,0.234917,149.466
143,0.236583,149.757
144,0.23825,149.757
145,0.239917,149.801
146,0.241583,149.474
147,0.24325,149.384
148,0.244917,149.384
149,0.2466,148.982
150,0.24825,148.907
151,0.249917,148.945
152,0.251583,148.945
153,0.25325,148.982
154,0.254917,149.071
155,0.256583,149.071
156,0.258233,149.235
157,0.2599,149.243
158,0.261567,149.228
159,0.263267,149.228
160,0.264933,149.19
161,0.266567,149.094
162,0.268233,149.213
163,0.2699,149.213
164,0.271567,149.339
165,0.273233,149.451
166,0.2749,149.436
167,0.276567,149.436
168,0.278233,149.511
169,0.2799,149.31
170,0.281567,149.265
171,0.283233,149.265
172,0.2849,149.198
173,0.286567,149.012
174,0.288233,149.012
175,0.2899,148.967
176,0.291567,148.907
177,0.293233,149.176
178,0.2949,149.176
179,0.296567,149.235
180,0.298233,149.257
181,0.2999,149.22
182,0.301567,149.22
183,0.303233,149.131
184,0.3049,149.257
185,0.306567,149.548
186,0.308233,149.548
187,0.3099,149.734
188,0.311567,149.928
189,0.313233,149.928
190,0.3149,150.01
191,0.316567,149.906
192,0.318217,149.675
193,0.319883,149.675
194,0.32155,149.265
195,0.323217,149.094
196,0.324883,149.272
197,0.32655,149.272
198,0.328283,149.302
199,0.329883,149.526
200,0.33155,149.332
201,0.333233,149.332
202,0.334883,148.818
203,0.33655,149.228
204,0.338217,149.205
205,0.339883,149.205
206,0.34155,149.272
207,0.343217,149.757
208,0.344933,149.757
209,0.34655,149.66
210,0.348217,150.01
211,0.349883,150.047
212,0.35155,150.047
213,0.353217,149.801
214,0.354883,149.913
215,0.35655,149.98
216,0.358217,149.98
217,0.359883,150.345
218,0.361667,150.45
219,0.363217,150.539
220,0.364883,150.539
221,0.36655,150.956
222,0.368217,151.329
223,0.369883,151.329
224,0.37155,152.223
225,0.373217,153.057
226,0.374883,153.646
227,0.37655,153.646
228,0.3782,154.413
229,0.379867,155.047
230,0.381533,155.769
231,0.3832,155.769
232,0.384867,156.544
233,0.386533,158.004
234,0.3882,159.532
235,0.389867,159.532
236,0.391533,161.007
237,0.3932,162.46
238,0.394867,163.585
239,0.396533,163.585
240,0.3982,164.978
241,0.399867,166.394
242,0.401533,166.394
243,0.40325,167.832
244,0.404867,169.262
245,0.406533,170.663
246,0.4082,170.663
247,0.409867,172.123
248,0.411533,173.666
249,0.4132,174.999
250,0.414867,174.999
251,0.416533,176.102
252,0.4182,176.996
253,0.419867,177.912
254,0.421533,177.912
255,0.4232,178.896
256,0.42485,179.701
257,0.426517,179.701
258,0.428183,180.125
259,0.42985,180.677
260,0.431517,180.937
261,0.433183,180.937
262,0.43485,181.012
263,0.4365,181.392
264,0.438167,180.855
265,0.439833,180.855
266,0.4415,180.58
267,0.443167,180.416
268,0.444833,180.11
269,0.44655,180.11
270,0.448167,179.76
271,0.449833,178.792
272,0.4515,178.792
273,0.453167,177.853
274,0.454833,176.892
275,0.4565,176.452
276,0.458167,176.452
277,0.459833,176.087
278,0.4615,175.439
279,0.463217,174.828
280,0.464833,174.828
281,0.4665,174.142
282,0.468167,173.524
283,0.469833,173.084
284,0.4715,173.084
285,0.473167,172.682
286,0.474833,172.228
287,0.4765,171.714
288,0.478217,171.714
289,0.47995,171.207
290,0.4815,170.872
291,0.483167,170.872
292,0.484833,170.171
293,0.4865,169.642
294,0.488167,169.24
295,0.489833,169.24
296,0.4915,168.465
297,0.493167,168.167
298,0.494833,167.727
299,0.4965,167.727
300,0.49815,167.318
301,0.499817,166.871
302,0.501483,166.439
303,0.50315,166.439
304,0.504817,166.163
305,0.506483,165.597
306,0.50815,165.597
307,0.509817,165.373
308,0.511483,164.941
309,0.51315,164.36
310,0.514817,164.36
311,0.516483,163.89
312,0.51815,163.51
313,0.519817,162.944
314,0.521483,162.944
315,0.52315,162.43
316,0.524817,161.991
317,0.526483,161.521
318,0.52815,161.521
319,0.529817,161.208
320,0.531483,160.836
321,0.53315,160.627
322,0.534817,160.627
323,0.536483,160.366
324,0.53815,160.135
325,0.539817,160.135
326,0.541483,160.262
327,0.54315,160.344
328,0.544833,160.083
329,0.5464830000000001,160.083
330,0.54815,159.994
331,0.549817,159.8
332,0.5514829999999999,159.666
333,0.55315,159.666
334,0.554817,159.815
335,0.5564829999999999,159.927
336,0.558133,159.904
337,0.5598,159.904
338,0.561467,159.919
339,0.563133,159.495
340,0.564833,159.495
341,0.5664670000000001,159.1
342,0.568133,158.638
343,0.5698,157.915
344,0.5714669999999999,157.915
345,0.573133,157.624
346,0.5748,157.021
347,0.576467,156.857
348,0.578133,156.857
349,0.5798,156.745
350,0.581467,156.336
351,0.583133,156.403
352,0.5848,156.403
353,0.586467,156.149
354,0.588133,155.993
355,0.5898,155.844
356,0.591467,155.844
357,0.593133,155.538
358,0.5948,155.196
359,0.596467,155.196
360,0.598233,154.927
361,0.5998,155.024
362,0.601467,155.27
363,0.603133,155.27
364,0.6048,155.315
365,0.606467,155.143
366,0.608133,155.486
367,0.6098,155.486
368,0.611467,155.553
369,0.613133,155.814
370,0.6148,156.254
371,0.616467,156.254
372,0.618117,156.254
373,0.619783,156.708
374,0.621483,156.708
375,0.623117,157.185
376,0.624783,157.773
377,0.62645,158.28
378,0.628117,158.28
379,0.629783,158.906
380,0.63145,159.703
381,0.633117,160.329
382,0.634783,160.329
383,0.63645,160.97
384,0.638117,161.193
385,0.639783,161.327
386,0.64145,161.327
387,0.643117,161.655
388,0.644783,161.938
389,0.64645,162.423
390,0.6481170000000001,162.423
391,0.6498,162.661
392,0.65145,162.46
393,0.6531169999999999,162.46
394,0.654783,162.14
395,0.65645,161.745
396,0.658117,161.394
397,0.659783,161.394
398,0.66145,161.514
399,0.663117,161.469
400,0.664783,161.365
401,0.66645,161.365
402,0.668117,161.327
403,0.669783,160.873
404,0.67145,160.582
405,0.673117,160.582
406,0.674783,159.889
407,0.676433,159.375
408,0.6781,159.375
409,0.679767,159.07
410,0.681433,158.772
411,0.683167,158.846
412,0.6848,158.846
413,0.686433,158.317
414,0.6881,157.975
415,0.689767,157.677
416,0.691433,157.677
417,0.6931,157.371
418,0.694767,157.543
419,0.696433,157.334
420,0.6981000000000001,157.334
421,0.699767,157.192
422,0.701433,156.961
423,0.7030999999999999,156.961
424,0.704767,156.827
425,0.706433,156.85
426,0.7081,156.991
427,0.709767,156.991
428,0.711433,157.192
429,0.7131,157.364
430,0.714767,157.624
431,0.716517,157.624
432,0.718083,157.803
433,0.71975,158.295
434,0.721417,158.697
435,0.723083,158.697
436,0.72475,159.316
437,0.726417,160.322
438,0.728083,161.313
439,0.72975,161.313
440,0.731417,162.542
441,0.733083,164.106
442,0.73475,164.106
443,0.7364000000000001,165.977
444,0.738067,168.04
445,0.739733,170.752
446,0.7413999999999999,170.752
447,0.743067,173.934
448,0.744733,177.346
449,0.7464,181.302
450,0.748067,181.302
451,0.749733,185.817
452,0.7514,190.884
453,0.753067,196.673
454,0.754733,196.673
455,0.7564,202.946
456,0.7581,210.017
457,0.759733,210.017
458,0.7614,218.332
459,0.7630670000000001,227.511
460,0.764733,238.053
461,0.7664,238.053
462,0.7680670000000001,249.982
463,0.769733,262.909
464,0.7714,277.258
465,0.7730669999999999,277.258
466,0.774733,293.635
467,0.7764,311.635
468,0.778067,331.104
469,0.779733,331.104
470,0.7814,352.718
471,0.783067,375.748
472,0.784733,400.893
473,0.7864,400.893
474,0.788067,428.528
475,0.789733,457.935
476,0.7914,457.935
477,0.793067,489.585
478,0.794733,523.463
479,0.7964,559.285
480,0.79805,559.285
481,0.799717,597.5069999999999
482,0.80145,638.485
483,0.80305,681.579
484,0.804717,681.579
485,0.806383,727.199
486,0.80805,775.091
487,0.809717,825.129
488,0.811383,825.129
489,0.813067,877.671
490,0.814717,931.948
491,0.816383,931.948
492,0.8180500000000001,988.424
493,0.819717,1046.859
494,0.821383,1106.866
495,0.8230499999999999,1106.866
496,0.824733,1169.115
497,0.826383,1233.168
498,0.82805,1298.688
499,0.8297330000000001,1298.688
500,0.831383,1365.766
501,0.83305,1433.805
502,0.834817,1502.953
503,0.836383,1502.953
504,0.83805,1573.265
505,0.839717,1644.313
506,0.841383,1716.204
507,0.84305,1716.204
508,0.8447170000000001,1788.87
509,0.846383,1861.58
510,0.84805,1861.58
511,0.8497169999999999,1934.812
512,0.851383,2008.17
513,0.85305,2081.595
514,0.8547169999999999,2081.595
515,0.856383,2154.946
516,0.858033,2227.5
517,0.8597,2299.771
518,0.861367,2299.771
519,0.8630330000000001,2371.013
520,0.8647,2441.458
521,0.866367,2511.166
522,0.8680330000000001,2511.166
523,0.8697,2579.674
524,0.871367,2646.498
525,0.8730329999999999,2646.498
526,0.8747,2711.84
527,0.876367,2775.841
528,0.878033,2838.478
529,0.8797,2838.478
530,0.881367,2899.788
531,0.883033,2959.251
532,0.8847,3016.502
533,0.886367,3016.502
534,0.888033,3071.331
535,0.8897,3124.185
536,0.891367,3175.02
537,0.893083,3175.02
538,0.8947000000000001,3223.434
539,0.896367,3269.017
540,0.898033,3269.017
541,0.8997000000000001,3312.051
542,0.901367,3352.396
543,0.903033,3390.558
544,0.9046999999999999,3390.558
545,0.906367,3426.47
546,0.908033,3459.744
547,0.9097,3490.47
548,0.911367,3490.47
549,0.913033,3518.112
550,0.9147,3543.206
551,0.91635,3565.349
552,0.918017,3565.349
553,0.91975,3584.497
554,0.92135,3601.328
555,0.923017,3615.461
556,0.924683,3615.461
557,0.92635,3627.054
558,0.928017,3635.958
559,0.929683,3635.958
560,0.93135,3642.432
561,0.933017,3645.904
562,0.934683,3646.873
563,0.936433,3646.873
564,0.938017,3645.465
565,0.939683,3641.799
566,0.94135,3635.995
567,0.943017,3635.995
568,0.9446830000000001,3627.971
569,0.94635,3618.158
570,0.948017,3605.992
571,0.9496830000000001,3605.992
572,0.95135,3592.67
573,0.953133,3578.231
574,0.9546829999999999,3578.231
575,0.95635,3561.921
576,0.958017,3544.39
577,0.959683,3525.115
578,0.96135,3525.115
579,0.963017,3504.396
580,0.964683,3482.558
581,0.96635,3459.506
582,0.968017,3459.506
583,0.9698,3435.545
584,0.97135,3410.652
585,0.973033,3385.715
586,0.974683,3385.715
587,0.9763500000000001,3360.294
588,0.978,3334.172
589,0.979667,3307.335
590,0.981333,3307.335
591,0.983,3279.634
592,0.984667,3251.292
593,0.986333,3251.292
594,0.988,3223.151
595,0.989667,3195.107
596,0.991333,3167.368
597,0.993,3167.368
598,0.994667,3140.077
599,0.996333,3112.406
600,0.998,3084.965
601,0.999667,3084.965
602,1.001333,3057.279
603,1.003,3029.406
604,1.004667,3002.025
605,1.006317,3002.025
606,1.007983,2974.726
607,1.00965,2947.807
608,1.011317,2947.807
609,1.012983,2921.328
610,1.01465,2895.258
611,1.016317,2869.509
612,1.017983,2869.509
613,1.01965,2843.887
614,1.021317,2818.659
615,1.022983,2793.841
616,1.02465,2793.841
617,1.026317,2769.209
618,1.027983,2745.293
619,1.02965,2721.63
620,1.031317,2721.63
621,1.032983,2697.781
622,1.03465,2674.788
623,1.0363,2674.788
624,1.038033,2651.833
625,1.039633,2629.109
626,1.0413,2607.152
627,1.043,2607.152
628,1.044633,2585.068
629,1.0463,2563.708
630,1.047967,2542.414
631,1.049633,2542.414
632,1.0513,2521.418
633,1.052967,2501.227
634,1.0547,2481.081
635,1.0563,2481.081
636,1.057967,2461.441
637,1.059633,2441.965
638,1.0613,2422.72
639,1.062967,2422.72
640,1.064633,2403.647
641,1.0663,2385.05
642,1.067967,2385.05
643,1.069633,2366.669
644,1.0714,2348.416
645,1.072967,2330.534
646,1.074633,2330.534
647,1.0763,2312.675
648,1.077967,2295.576
649,1.079633,2278.946
650,1.0813,2278.946
651,1.082967,2262.697
652,1.084633,2246.879
653,1.0863,2230.86
654,1.088067,2230.86
655,1.089633,2214.856
656,1.0913,2198.853
657,1.092967,2198.853
658,1.094633,2183.095
659,1.0963,2167.657
660,1.09795,2152.324
661,1.099617,2152.324
662,1.101283,2137.46
663,1.10295,2122.462
664,1.104617,2107.717
665,1.106283,2107.717
666,1.10795,2093.501
667,1.109617,2079.249
668,1.111283,2065.517
669,1.11295,2065.517
670,1.114617,2051.815
671,1.1163,2038.136
672,1.117967,2024.539
673,1.119617,2024.539
674,1.121283,2011.21
675,1.12295,1998.521
676,1.124617,1998.521
677,1.126283,1985.878
678,1.12795,1973.249
679,1.129617,1960.613
680,1.131283,1960.613
681,1.13295,1948.29
682,1.134617,1935.989
683,1.136283,1924.649
684,1.13795,1924.649
685,1.139617,1913.63
686,1.141283,1902.305
687,1.14295,1891.091
688,1.144617,1891.091
689,1.146283,1879.573
690,1.14795,1867.861
691,1.149617,1867.861
692,1.151283,1856.23
693,1.15295,1845.032
694,1.154617,1833.931
695,1.156267,1833.931
696,1.157933,1823.358
697,1.1596,1812.95
698,1.161267,1802.862
699,1.162933,1802.862
700,1.1646,1792.99
701,1.166267,1782.998
702,1.167933,1773.208
703,1.1696,1773.208
704,1.171267,1762.927
705,1.172983,1752.876
706,1.1746,1742.944
707,1.176267,1742.944
708,1.177933,1733.288
709,1.1796,1723.856
710,1.181267,1723.856
711,1.182933,1714.289
712,1.1846,1704.983
713,1.186267,1695.7
714,1.187933,1695.7
715,1.189683,1686.513
716,1.191267,1677.655
717,1.192933,1668.885
718,1.1946,1668.885
719,1.196267,1660.086
720,1.197933,1651.451
721,1.1996,1642.801
722,1.201267,1642.801
723,1.202933,1634.218
724,1.2046,1625.94
725,1.206367,1617.976
726,1.207933,1617.976
727,1.2096,1610.182
728,1.211267,1602.62
729,1.212933,1602.62
730,1.2146,1594.603
731,1.216267,1586.758
732,1.217917,1578.905
733,1.219583,1578.905
734,1.22125,1571.149
735,1.222917,1563.624
736,1.224583,1556.195
737,1.22625,1556.195
738,1.227933,1549.02
739,1.229583,1541.778
740,1.23125,1534.499
741,1.232917,1534.499
742,1.234583,1526.929
743,1.23625,1519.509
744,1.237917,1519.509
745,1.239583,1512.222
746,1.24125,1505.263
747,1.242917,1498.498
748,1.244583,1498.498
749,1.24625,1491.569
750,1.247917,1484.618
751,1.249583,1477.771
752,1.25125,1477.771
753,1.252917,1471.028
754,1.254583,1464.389
755,1.25625,1458.123
756,1.257917,1458.123
757,1.259583,1451.686
758,1.26125,1445.346
759,1.262917,1445.346
760,1.2646,1439.437
761,1.26625,1433.067
762,1.267917,1426.883
763,1.269583,1426.883
764,1.27125,1420.58
765,1.272917,1414.292
766,1.274583,1408.301
767,1.276233,1408.301
768,1.2779,1402.512
769,1.279567,1396.798
770,1.281233,1390.629
771,1.2829,1390.629
772,1.284567,1384.757
773,1.286233,1378.924
774,1.2879,1378.924
775,1.289567,1373.03
776,1.291233,1367.554
777,1.2929,1361.728
778,1.294567,1361.728
779,1.296233,1355.961
780,1.297883,1350.544
781,1.29955,1344.83
782,1.301217,1344.83
783,1.302883,1339.518
784,1.30455,1334.019
785,1.306217,1328.401
786,1.307917,1328.401
787,1.30955,1322.985
788,1.311217,1317.695
789,1.312883,1312.561
790,1.31455,1312.561
791,1.316217,1307.406
792,1.317883,1302.414
793,1.31955,1302.414
794,1.321217,1297.481
795,1.322883,1292.273
796,1.32465,1287.431
797,1.326217,1287.431
798,1.327883,1282.372
799,1.32955,1277.119
800,1.331217,1272.276
801,1.332883,1272.276
802,1.33455,1267.493
803,1.336217,1262.628
804,1.337867,1257.725
805,1.339533,1257.725
806,1.3412,1253.188
807,1.342867,1248.464
808,1.3446,1243.874
809,1.3462,1243.874
810,1.347867,1239.143
811,1.349533,1234.308
812,1.3512,1234.308
813,1.352867,1229.696
814,1.354533,1225.494
815,1.3562,1221.441
816,1.357867,1221.441
817,1.359533,1217.291
818,1.3612,1212.865
819,1.362867,1208.112
820,1.364533,1208.112
821,1.3662,1203.53
822,1.367867,1199.096
823,1.369533,1194.842
824,1.3712,1194.842
825,1.372867,1190.804
826,1.374533,1186.758
827,1.3762,1186.758
828,1.377867,1182.638
829,1.379533,1178.555
830,1.3812,1174.42
831,1.382867,1174.42
832,1.384533,1170.419
833,1.3862,1166.023
834,1.387867,1162.06
835,1.389533,1162.06
836,1.3912,1158.073
837,1.392867,1153.938
838,1.394533,1150.385
839,1.3962,1150.385
840,1.39785,1146.592
841,1.399517,1142.927
842,1.401183,1142.927
843,1.402867,1139.365
844,1.404517,1135.804
845,1.406183,1132.056
846,1.40785,1132.056
847,1.409583,1128.264
848,1.411183,1124.553
849,1.41285,1120.888
850,1.414517,1120.888
851,1.416183,1117.252
852,1.417867,1113.646
853,1.419517,1110.017
854,1.421183,1110.017
855,1.42285,1106.478
856,1.424517,1103.058
857,1.426183,1099.639
858,1.42785,1099.639
859,1.429517,1096.472
860,1.431183,1092.978
861,1.43285,1092.978
862,1.434517,1089.67
863,1.436183,1086.354
864,1.43785,1082.599
865,1.439517,1082.599
866,1.441183,1079.038
867,1.44295,1075.551
868,1.444517,1071.796
869,1.446183,1071.796
870,1.44785,1068.182
871,1.449517,1064.874
872,1.451183,1061.231
873,1.45285,1061.231
874,1.454517,1058.079
875,1.456183,1055.092
876,1.457833,1055.092
877,1.4595,1052.193
878,1.461167,1049.414
879,1.462833,1046.389
880,1.4645,1046.389
881,1.466167,1043.23
882,1.467833,1039.445
883,1.4695,1035.847
884,1.471167,1035.847
885,1.472833,1032.725
886,1.4745,1029.931
887,1.476167,1027.301
888,1.477833,1027.301
889,1.4795,1024.127
890,1.4812,1021.095
891,1.482833,1021.095
892,1.4845,1017.719
893,1.486167,1014.739
894,1.487833,1012.184
895,1.4895,1012.184
896,1.491167,1009.196
897,1.492833,1006.454
898,1.4945,1003.452
899,1.496167,1003.452
900,1.497833,1000.352
901,1.4995,997.61
902,1.501183,994.861
903,1.502833,994.861
904,1.5045,992.276
905,1.506167,990.0700000000001
906,1.507833,987.485
907,1.5095,987.485
908,1.511167,984.855
909,1.512833,981.875
910,1.5145,981.875
911,1.51615,978.76
912,1.517817,976.1900000000001
913,1.519483,973.403
914,1.52115,973.403
915,1.522817,971.124
916,1.524483,968.4640000000001
917,1.52615,965.476
918,1.5279,965.476
919,1.529483,963.025
920,1.53115,960.141
921,1.532817,957.6900000000001
922,1.534483,957.6900000000001
923,1.53615,955.544
924,1.537817,953.265
925,1.539483,953.265
926,1.54115,950.8579999999999
927,1.542817,948.049
928,1.544517,944.9349999999999
929,1.54615,944.9349999999999
930,1.547817,942.186
931,1.549483,939.548
932,1.55115,937.372
933,1.552817,937.372
934,1.554483,935.0549999999999
935,1.55615,932.582
936,1.557817,930.466
937,1.559483,930.466
938,1.56125,928.067
939,1.562817,926.0700000000001
940,1.564483,923.522
941,1.56615,923.522
942,1.567817,920.899
