"ID","sea_time","fid_signal"
1,0,39.186
2,0.001667,39.175
3,0.003333,39.179
4,0.005,39.179
5,0.006667,39.146
6,0.008333,38.94
7,0.01,38.655
8,0.011667,38.655
9,0.013333,38.426
10,0.015,38.355
11,0.016667,38.516
12,0.018333,38.516
13,0.019983,38.788
14,0.02165,38.967
15,0.023333,39.031
16,0.025033,39.031
17,0.02665,39.046
18,0.028317,39.039
19,0.029983,39.039
20,0.03165,39.025
21,0.033317,39.027
22,0.034983,38.996
23,0.03665,38.996
24,0.038317,38.983
25,0.04,39.005
26,0.04165,39.002
27,0.043317,39.002
28,0.044983,39.034
29,0.04665,39.066
30,0.048317,39.082
31,0.049983,39.082
32,0.05165,39.133
33,0.053317,39.141
34,0.054983,39.143
35,0.05665,39.143
36,0.058317,39.155
37,0.059983,39.141
38,0.061667,39.141
39,0.063317,39.151
40,0.064983,39.149
41,0.06665,39.144
42,0.068317,39.144
43,0.069983,39.112
44,0.07165000000000001,39.119
45,0.073417,39.122
46,0.07498299999999999,39.122
47,0.07665,39.1
48,0.078317,39.127
49,0.079967,39.123
50,0.081633,39.123
51,0.0833,39.101
52,0.084967,39.105
53,0.086633,39.105
54,0.0883,39.083
55,0.08996700000000001,39.089
56,0.09163300000000001,39.104
57,0.09329999999999999,39.104
58,0.09495000000000001,39.102
59,0.09661699999999999,39.119
60,0.0983,39.124
61,0.09995,39.124
62,0.101617,39.145
63,0.103283,39.205
64,0.10495,39.212
65,0.106617,39.212
66,0.108283,39.197
67,0.10995,39.18
68,0.111617,39.18
69,0.113283,39.148
70,0.11495,39.157
71,0.116617,39.172
72,0.118283,39.172
73,0.11995,39.15
74,0.121617,39.154
75,0.123283,39.113
76,0.12495,39.113
77,0.126617,39.099
78,0.1283,39.137
79,0.12995,39.153
80,0.131617,39.153
81,0.133283,39.181
82,0.13495,39.195
83,0.1366,39.183
84,0.138267,39.183
85,0.139933,39.171
86,0.1416,39.171
87,0.143267,39.171
88,0.144933,39.138
89,0.1466,39.126
90,0.148267,39.114
91,0.149933,39.114
92,0.1516,39.099
93,0.153267,39.098
94,0.154933,39.104
95,0.1566,39.104
96,0.158333,39.107
97,0.159933,39.135
98,0.161617,39.157
99,0.163267,39.157
100,0.164933,39.154
101,0.1666,39.156
102,0.168267,39.156
103,0.169933,39.134
104,0.1716,39.129
105,0.173267,39.138
106,0.174933,39.138
107,0.1766,39.168
108,0.178267,39.185
109,0.179933,39.188
110,0.1816,39.188
111,0.183267,39.186
112,0.184933,39.146
113,0.1866,39.147
114,0.188267,39.147
115,0.189933,39.153
116,0.191683,39.152
117,0.193267,39.15
118,0.194933,39.15
119,0.1966,39.156
120,0.19825,39.153
121,0.199917,39.153
122,0.201583,39.161
123,0.20325,39.178
124,0.204917,39.17
125,0.206583,39.17
126,0.20825,39.169
127,0.209917,39.161
128,0.211583,39.148
129,0.21325,39.148
130,0.214917,39.141
131,0.216583,39.142
132,0.21825,39.138
133,0.219917,39.138
134,0.221583,39.11
135,0.22325,39.069
136,0.224917,39.069
137,0.226583,39.054
138,0.22825,39.046
139,0.229917,39.069
140,0.231583,39.069
141,0.23325,39.102
142,0.234917,39.11
143,0.2366,39.113
144,0.23825,39.113
145,0.239917,39.127
146,0.241583,39.139
147,0.24325,39.115
148,0.244917,39.115
149,0.246583,39.122
150,0.24825,39.117
151,0.249917,39.117
152,0.251583,39.127
153,0.25325,39.174
154,0.254917,39.164
155,0.256583,39.164
156,0.258233,39.168
157,0.2599,39.15
158,0.261567,39.113
159,0.263233,39.113
160,0.2649,39.115
161,0.266567,39.085
162,0.268233,39.066
163,0.2699,39.066
164,0.271567,39.083
165,0.273233,39.066
166,0.2749,39.087
167,0.276583,39.087
168,0.278233,39.109
169,0.2799,39.112
170,0.281567,39.112
171,0.283233,39.134
172,0.2849,39.137
173,0.286567,39.13
174,0.288233,39.13
175,0.2899,39.13
176,0.291567,39.158
177,0.293233,39.132
178,0.2949,39.132
179,0.296567,39.104
180,0.298233,39.082
181,0.2999,39.023
182,0.301567,39.023
183,0.303267,39.019
184,0.3049,39.048
185,0.306567,39.048
186,0.308233,39.075
187,0.31,39.078
188,0.311567,39.107
189,0.313233,39.107
190,0.3149,39.102
191,0.316567,39.076
192,0.318233,39.084
193,0.319883,39.084
194,0.32155,39.089
195,0.323217,39.103
196,0.324883,39.128
197,0.326667,39.128
198,0.328217,39.151
199,0.329883,39.151
200,0.33155,39.16
201,0.333217,39.16
202,0.334883,39.153
203,0.33655,39.13
204,0.338217,39.13
205,0.339883,39.129
206,0.34155,39.127
207,0.343217,39.098
208,0.344883,39.098
209,0.34655,39.095
210,0.348217,39.069
211,0.349883,39.069
212,0.35155,39.069
213,0.353217,39.082
214,0.354883,39.092
215,0.35655,39.092
216,0.358217,39.092
217,0.359883,39.052
218,0.36155,39.05
219,0.363217,39.05
220,0.364883,39.082
221,0.36655,39.125
222,0.368217,39.169
223,0.369883,39.169
224,0.37155,39.242
225,0.373217,39.255
226,0.374883,39.284
227,0.376533,39.284
228,0.378233,39.347
229,0.379867,39.366
230,0.381533,39.434
231,0.3832,39.434
232,0.384867,39.496
233,0.386517,39.533
234,0.388183,39.601
235,0.38985,39.601
236,0.391517,39.653
237,0.393183,39.693
238,0.39485,39.693
239,0.396517,39.776
240,0.398183,39.813
241,0.39985,39.875
242,0.401517,39.875
243,0.403183,39.972
244,0.40485,40.037
245,0.406517,40.15
246,0.408183,40.15
247,0.40985,40.217
248,0.411567,40.267
249,0.413183,40.321
250,0.41485,40.321
251,0.416517,40.371
252,0.418183,40.436
253,0.41985,40.436
254,0.421517,40.503
255,0.423183,40.573
256,0.42485,40.594
257,0.426517,40.594
258,0.428267,40.604
259,0.42985,40.598
260,0.431517,40.605
261,0.433183,40.605
262,0.43485,40.63
263,0.436517,40.669
264,0.438167,40.706
265,0.439833,40.706
266,0.4415,40.726
267,0.443167,40.696
268,0.444933,40.65
269,0.4465,40.65
270,0.448167,40.603
271,0.449833,40.542
272,0.451533,40.542
273,0.453167,40.554
274,0.454833,40.543
275,0.4565,40.529
276,0.458167,40.529
277,0.459833,40.514
278,0.4615,40.447
279,0.463167,40.437
280,0.464833,40.437
281,0.4665,40.416
282,0.468167,40.381
283,0.469833,40.37
284,0.4715,40.37
285,0.473167,40.326
286,0.474833,40.283
287,0.4765,40.283
288,0.478167,40.261
289,0.479833,40.28
290,0.4815,40.293
291,0.483167,40.293
292,0.484833,40.315
293,0.4865,40.346
294,0.488167,40.349
295,0.489833,40.349
296,0.4915,40.346
297,0.493167,40.338
298,0.494833,40.319
299,0.4965,40.319
300,0.498167,40.286
301,0.499817,40.282
302,0.501483,40.282
303,0.50315,40.288
304,0.504817,40.285
305,0.506483,40.32
306,0.50815,40.32
307,0.509817,40.336
308,0.511483,40.364
309,0.5131829999999999,40.374
310,0.514817,40.374
311,0.5165,40.367
312,0.51815,40.386
313,0.519817,40.39
314,0.521483,40.39
315,0.52315,40.437
316,0.524817,40.47
317,0.526483,40.51
318,0.52815,40.51
319,0.52985,40.567
320,0.531483,40.627
321,0.53315,40.627
322,0.534817,40.708
323,0.536483,40.799
324,0.53815,40.896
325,0.539817,40.896
326,0.541483,41.002
327,0.54315,41.132
328,0.544817,41.271
329,0.546517,41.271
330,0.54815,41.468
331,0.549817,41.685
332,0.5514829999999999,41.901
333,0.55315,41.901
334,0.554817,42.199
335,0.5564829999999999,42.517
336,0.558133,42.517
337,0.5598,42.896
338,0.561467,43.347
339,0.56325,43.823
340,0.5648,43.823
341,0.5664670000000001,44.367
342,0.568133,45.003
343,0.5698,45.733
344,0.5714669999999999,45.733
345,0.573133,46.588
346,0.5748,47.486
347,0.576467,48.476
348,0.578133,48.476
349,0.5798,49.563
350,0.581467,50.77
351,0.583133,52.144
352,0.5848,52.144
353,0.586467,53.611
354,0.588167,55.234
355,0.5898,55.234
356,0.591467,56.934
357,0.593133,58.746
358,0.5948,60.73
359,0.596467,60.73
360,0.598133,62.858
361,0.5998,65.19
362,0.601467,67.708
363,0.603133,67.708
364,0.6048,70.35899999999999
365,0.606467,73.212
366,0.608133,76.188
367,0.6098,76.188
368,0.611467,79.33499999999999
369,0.613133,82.684
370,0.6148,82.684
371,0.616467,86.22799999999999
372,0.618133,89.947
373,0.619783,93.86199999999999
374,0.6214499999999999,93.86199999999999
375,0.623117,97.99299999999999
376,0.624783,102.241
377,0.62645,106.689
378,0.628117,106.689
379,0.629783,111.294
380,0.63145,116.093
381,0.633117,121.084
382,0.634783,121.084
383,0.63645,126.31
384,0.638117,131.703
385,0.6398,137.272
386,0.64145,137.272
387,0.643117,143.023
388,0.644783,148.92
389,0.64645,148.92
390,0.6481170000000001,155.035
391,0.649783,161.285
392,0.65145,167.741
393,0.6531169999999999,167.741
394,0.654783,174.332
395,0.65645,181.077
396,0.658117,187.999
397,0.659783,187.999
398,0.66145,195.043
399,0.663117,202.234
400,0.664783,209.611
401,0.66645,209.611
402,0.668117,217.102
403,0.669783,224.693
404,0.67145,224.693
405,0.673117,232.432
406,0.674783,240.213
407,0.67645,248.128
408,0.678083,248.128
409,0.67975,256.194
410,0.6815330000000001,264.373
411,0.683083,272.685
412,0.68475,272.685
413,0.6864170000000001,281.094
414,0.688083,289.587
415,0.68975,298.117
416,0.6914169999999999,298.117
417,0.693083,306.749
418,0.69475,315.453
419,0.696417,315.453
420,0.698083,324.211
421,0.69975,333.056
422,0.701417,341.931
423,0.703083,341.931
424,0.70475,350.872
425,0.706417,359.882
426,0.708083,368.961
427,0.70975,368.961
428,0.711417,378.09
429,0.713083,387.227
430,0.71475,396.363
431,0.716417,396.363
432,0.718083,405.505
433,0.71975,414.69
434,0.721417,423.925
435,0.723083,423.925
436,0.72475,433.145
437,0.726417,442.379
438,0.728083,442.379
439,0.7297670000000001,451.582
440,0.731417,460.792
441,0.733083,470.058
442,0.73475,470.058
443,0.736417,479.313
444,0.738067,488.573
445,0.739733,497.769
446,0.7413999999999999,497.769
447,0.743067,506.938
448,0.744733,516.093
449,0.7464,525.218
450,0.748067,525.218
451,0.749733,534.336
452,0.7514,543.3920000000001
453,0.753067,543.3920000000001
454,0.754733,552.417
455,0.7564,561.383
456,0.758067,570.293
457,0.759733,570.293
458,0.7614,579.2
459,0.7630670000000001,588.024
460,0.764733,596.775
461,0.76645,596.775
462,0.7680670000000001,605.46
463,0.769733,614.034
464,0.7714,622.569
465,0.7730669999999999,622.569
466,0.774733,631.066
467,0.7764,639.503
468,0.778067,647.901
469,0.779733,647.901
470,0.7814,656.1950000000001
471,0.783067,664.352
472,0.784733,664.352
473,0.7864,672.401
474,0.788067,680.304
475,0.789733,688.109
476,0.7914,688.109
477,0.793067,695.793
478,0.794733,703.356
479,0.7964,710.808
480,0.79805,710.808
481,0.799767,718.0940000000001
482,0.801383,725.25
483,0.80305,732.227
484,0.804717,732.227
485,0.806383,739.076
486,0.80805,745.774
487,0.809767,745.774
488,0.811383,752.369
489,0.8130500000000001,758.852
490,0.814733,765.131
491,0.816383,765.131
492,0.8180500000000001,771.268
493,0.819717,777.213
494,0.821383,782.9829999999999
495,0.8230499999999999,782.9829999999999
496,0.824717,788.607
497,0.826383,794.079
498,0.82805,799.407
499,0.829717,799.407
500,0.831383,804.574
501,0.83305,809.624
502,0.834717,814.51
503,0.836383,814.51
504,0.83805,819.229
505,0.839717,823.8
506,0.841383,823.8
507,0.84305,828.178
508,0.8447170000000001,832.4109999999999
509,0.846383,836.448
510,0.84805,836.448
511,0.8497169999999999,840.338
512,0.851383,844.077
513,0.853067,847.624
514,0.8547169999999999,847.624
515,0.856383,851.1130000000001
516,0.858033,854.441
517,0.8597,857.601
518,0.861367,857.601
519,0.8630330000000001,860.678
520,0.8647,863.568
521,0.866367,863.568
522,0.8680330000000001,866.307
523,0.8697,868.913
524,0.871367,871.338
525,0.873067,871.338
526,0.8747,873.588
527,0.876367,875.64
528,0.878033,877.54
529,0.8797,877.54
530,0.881367,879.289
531,0.883033,880.951
532,0.88475,882.572
533,0.886367,882.572
534,0.888033,884.1609999999999
535,0.8897,885.645
536,0.891367,885.645
537,0.893033,887.0359999999999
538,0.8947000000000001,888.275
539,0.896367,889.345
540,0.898033,889.345
541,0.8997000000000001,890.308
542,0.901367,891.155
543,0.903033,891.9400000000001
544,0.9046999999999999,891.9400000000001
545,0.906367,892.6420000000001
546,0.908033,893.205
547,0.9097,893.696
548,0.911367,893.696
549,0.913033,894.107
550,0.9147,894.397
551,0.916367,894.633
552,0.91815,894.633
553,0.919683,894.748
554,0.92135,894.777
555,0.923017,894.777
556,0.924683,894.755
557,0.92635,894.669
558,0.928017,894.5650000000001
559,0.929683,894.5650000000001
560,0.93135,894.325
561,0.933017,894.045
562,0.934683,893.71
563,0.93635,893.71
564,0.938017,893.284
565,0.939683,892.846
566,0.94135,892.364
567,0.943017,892.364
568,0.9446830000000001,891.854
569,0.946383,891.2910000000001
570,0.948033,891.2910000000001
571,0.9496830000000001,890.6849999999999
572,0.95135,889.974
573,0.953017,889.172
574,0.9546829999999999,889.172
575,0.95635,888.316
576,0.958017,887.424
577,0.959683,886.5410000000001
578,0.96135,886.5410000000001
579,0.963017,885.6420000000001
580,0.964683,884.678
581,0.96635,883.707
582,0.968017,883.707
583,0.9696669999999999,882.663
584,0.971333,881.599
585,0.973,880.491
586,0.974667,880.491
587,0.976333,879.356
588,0.977983,878.173
589,0.97965,878.173
590,0.981317,876.956
591,0.9829830000000001,875.746
592,0.98465,874.472
593,0.986317,874.472
594,0.9879829999999999,873.236
595,0.989667,872
596,0.991317,870.755
597,0.9929829999999999,870.755
598,0.99465,869.534
599,0.996317,868.252
600,0.997983,866.912
601,0.99965,866.912
602,1.001317,865.5700000000001
603,1.003033,864.211
604,1.00465,864.211
605,1.006317,862.823
606,1.007983,861.471
607,1.00965,860.128
608,1.011317,860.128
609,1.012983,858.766
610,1.01465,857.419
611,1.016317,856.046
612,1.017983,856.046
613,1.019767,854.634
614,1.021333,853.178
615,1.022983,851.728
616,1.02465,851.728
617,1.026317,850.292
618,1.027983,848.841
619,1.02965,847.3869999999999
620,1.031317,847.3869999999999
621,1.032983,845.926
622,1.03465,844.405
623,1.036417,844.405
624,1.037967,842.86
625,1.03965,841.312
626,1.0413,839.765
627,1.042967,839.765
628,1.044633,838.167
629,1.0463,836.578
630,1.047967,835.002
631,1.049633,835.002
632,1.0513,833.449
633,1.052967,831.936
634,1.054633,830.422
635,1.0563,830.422
636,1.057967,828.927
637,1.059633,827.38
638,1.0613,827.38
639,1.062967,825.856
640,1.064633,824.365
641,1.0663,822.8440000000001
642,1.067967,822.8440000000001
643,1.069633,821.333
644,1.0713,819.84
645,1.072967,818.353
646,1.074633,818.353
647,1.0763,816.835
648,1.077967,815.35
649,1.079633,813.787
650,1.0813,813.787
651,1.082967,812.086
652,1.084633,810.4450000000001
653,1.0863,810.4450000000001
654,1.087967,808.813
655,1.089633,807.2910000000001
656,1.091317,805.884
657,1.092967,805.884
658,1.094633,804.497
659,1.096283,803.126
660,1.09795,801.7140000000001
661,1.099617,801.7140000000001
662,1.101283,800.3440000000001
663,1.10295,798.966
664,1.104617,797.553
665,1.106283,797.553
666,1.10795,796.15
667,1.109617,794.723
668,1.111283,793.274
669,1.11295,793.274
670,1.114617,791.832
671,1.116283,790.405
672,1.11795,790.405
673,1.119617,788.946
674,1.121317,787.482
675,1.12295,786.033
676,1.124617,786.033
677,1.126283,784.545
678,1.12795,783.091
679,1.129617,781.609
680,1.131283,781.609
681,1.13295,780.08
682,1.134617,778.585
683,1.136283,777.0839999999999
684,1.13805,777.0839999999999
685,1.139617,775.595
686,1.141283,774.1180000000001
687,1.14295,774.1180000000001
688,1.144617,772.603
689,1.146283,771.097
690,1.14795,769.623
691,1.149617,769.623
692,1.151283,768.194
693,1.15295,766.812
694,1.1547,765.39
695,1.156267,765.39
696,1.157933,763.915
697,1.1596,762.4059999999999
698,1.161267,760.862
699,1.162933,760.862
700,1.1646,759.352
701,1.166267,757.874
702,1.167967,756.417
703,1.169633,756.417
704,1.171267,755.015
705,1.172933,753.611
706,1.1746,753.611
707,1.176267,752.21
708,1.177933,750.802
709,1.1796,749.397
710,1.181267,749.397
711,1.182933,747.971
712,1.1846,746.582
713,1.186267,745.191
714,1.187933,745.191
715,1.1896,743.775
716,1.191267,742.393
717,1.192933,740.997
718,1.1946,740.997
719,1.196267,739.607
720,1.197933,738.226
721,1.1996,738.226
722,1.201267,736.871
723,1.202933,735.5170000000001
724,1.2046,734.164
725,1.206267,734.164
726,1.207933,732.793
727,1.2096,731.364
728,1.211267,729.948
729,1.212933,729.948
730,1.2146,728.557
731,1.21625,727.177
732,1.217933,725.818
733,1.219583,725.818
734,1.22125,724.465
735,1.222917,723.115
736,1.224583,721.759
737,1.22625,721.759
738,1.227917,720.3869999999999
739,1.229583,719.038
740,1.23125,719.038
741,1.232917,717.6799999999999
742,1.234583,716.298
743,1.23625,714.95
744,1.237917,714.95
745,1.239583,713.562
746,1.24125,712.179
747,1.242917,710.832
748,1.244583,710.832
749,1.24625,709.4930000000001
750,1.247917,708.14
751,1.249583,706.785
752,1.25125,706.785
753,1.252917,705.45
754,1.254583,704.136
755,1.2563,704.136
756,1.257917,702.806
757,1.259583,701.486
758,1.261233,700.179
759,1.2629,700.179
760,1.264567,698.861
761,1.266233,697.567
762,1.2679,696.259
763,1.269567,696.259
764,1.271233,694.939
765,1.272983,693.619
766,1.27455,692.326
767,1.276233,692.326
768,1.277883,691.043
769,1.27955,689.779
770,1.281217,689.779
771,1.282883,688.504
772,1.28455,687.265
773,1.286217,686.069
774,1.287883,686.069
775,1.28955,684.866
776,1.291217,683.67
777,1.292883,682.4299999999999
778,1.29455,682.4299999999999
779,1.296217,681.163
780,1.297883,679.929
781,1.29955,678.729
782,1.301217,678.729
783,1.302883,677.547
784,1.30455,676.381
785,1.30625,675.229
786,1.3079,675.229
787,1.30955,674.076
788,1.311217,672.927
789,1.312883,672.927
790,1.31455,671.773
791,1.316217,670.574
792,1.317883,669.365
793,1.31955,669.365
794,1.321217,668.149
795,1.322883,666.9589999999999
796,1.32455,665.766
797,1.326217,665.766
798,1.327883,664.574
799,1.32955,663.377
800,1.331217,662.165
801,1.332883,662.165
802,1.33455,660.9829999999999
803,1.336217,659.768
804,1.337883,659.768
805,1.339533,658.5599999999999
806,1.3412,657.364
807,1.342867,656.123
808,1.344533,656.123
809,1.3462,654.96
810,1.347867,653.806
811,1.349533,652.611
812,1.3512,652.611
813,1.352867,651.453
814,1.354533,650.249
815,1.3562,649.0650000000001
816,1.357867,649.0650000000001
817,1.359533,647.879
818,1.3612,646.692
819,1.362867,645.5410000000001
820,1.364533,645.5410000000001
821,1.3662,644.4059999999999
822,1.367867,643.317
823,1.369533,643.317
824,1.3712,642.26
825,1.372867,641.1799999999999
826,1.3746,640.111
827,1.3762,640.111
828,1.377867,639.05
829,1.379533,637.95
830,1.3812,636.8440000000001
831,1.382867,636.8440000000001
832,1.384533,635.73
833,1.3862,634.638
834,1.387867,633.559
835,1.389533,633.559
836,1.391233,632.479
837,1.392867,631.366
838,1.394533,631.366
839,1.3962,630.223
840,1.397867,629.099
841,1.399517,628.043
842,1.401183,628.043
843,1.40285,627.005
844,1.404517,625.965
845,1.406183,624.9059999999999
846,1.407967,624.9059999999999
847,1.409517,623.783
848,1.411183,622.672
849,1.41285,621.577
850,1.414517,621.577
851,1.416183,620.487
852,1.41785,619.397
853,1.419517,618.258
854,1.421183,618.258
855,1.42285,617.1319999999999
856,1.424517,615.997
857,1.426183,615.997
858,1.42785,614.9109999999999
859,1.429517,613.893
860,1.431183,612.849
861,1.43285,612.849
862,1.434517,611.846
863,1.436183,610.8440000000001
864,1.43785,609.831
865,1.439517,609.831
866,1.441183,608.852
867,1.44285,607.822
868,1.444517,606.768
869,1.4462,606.768
870,1.44785,605.729
871,1.449517,604.659
872,1.4512,604.659
873,1.452867,603.644
874,1.454517,602.663
875,1.456183,601.645
876,1.457833,601.645
877,1.4595,600.6369999999999
878,1.461167,599.619
879,1.462833,598.578
880,1.4645,598.578
881,1.466167,597.59
882,1.467833,596.607
883,1.4695,595.602
884,1.471167,595.602
885,1.472833,594.579
886,1.4745,593.558
887,1.476167,593.558
888,1.477833,592.557
889,1.4795,591.567
890,1.481167,590.598
891,1.482833,590.598
892,1.4845,589.602
893,1.486167,588.539
894,1.487833,587.481
895,1.4895,587.481
896,1.491167,586.443
897,1.492833,585.413
898,1.4945,584.403
899,1.496167,584.403
900,1.497833,583.372
901,1.4995,582.3579999999999
902,1.501167,581.303
903,1.502833,581.303
904,1.5045,580.274
905,1.506167,579.3
906,1.507833,579.3
907,1.5095,578.266
908,1.511167,577.278
909,1.512833,576.3049999999999
910,1.5145,576.3049999999999
911,1.51615,575.3049999999999
912,1.517817,574.378
913,1.519483,573.415
914,1.52115,573.415
915,1.522817,572.471
916,1.524483,571.544
917,1.526217,570.559
918,1.527817,570.559
919,1.5295,569.596
920,1.531217,568.596
921,1.532817,568.596
922,1.534483,567.596
923,1.53615,566.645
924,1.537817,565.711
925,1.539483,565.711
926,1.54115,564.755
927,1.542817,563.8099999999999
928,1.544483,562.873
929,1.54615,562.873
930,1.547817,561.941
931,1.549483,561.034
932,1.55115,560.092
933,1.5528,560.092
934,1.554467,559.127
935,1.556133,558.179
936,1.5578,557.2140000000001
937,1.559467,557.2140000000001
938,1.561133,556.313
939,1.5628,555.389
940,1.564467,555.389
941,1.566133,554.433
942,1.5678,553.528
943,1.569467,552.586
944,1.571133,552.586
