"ID","sea_time","fid_signal"
1,0,1244.843
2,0.001667,1245.439
3,0.003333,1244.694
4,0.005,1243.874
5,0.006667,1243.874
6,0.008449999999999999,1240.373
7,0.01,1231.283
8,0.011667,1224.95
9,0.013333,1224.95
10,0.015,1220.703
11,0.016667,1216.903
12,0.018333,1216.903
13,0.02,1219.213
14,0.021667,1222.64
15,0.023333,1226.366
16,0.024983,1226.366
17,0.026667,1228.526
18,0.028317,1228.675
19,0.029983,1230.389
20,0.03165,1230.389
21,0.033317,1230.612
22,0.034983,1233.369
23,0.03665,1237.616
24,0.038317,1237.616
25,0.039983,1236.871
26,0.04165,1235.753
27,0.043317,1235.306
28,0.044983,1235.306
29,0.04665,1231.953
30,0.048333,1232.922
31,0.049983,1232.922
32,0.05165,1234.487
33,0.053317,1234.189
34,0.054983,1236.2
35,0.05665,1236.2
36,0.058317,1238.212
37,0.059983,1237.169
38,0.06165,1238.659
39,0.063317,1238.659
40,0.064983,1238.436
41,0.066633,1234.487
42,0.0683,1234.412
43,0.069967,1234.412
44,0.071633,1235.753
45,0.0733,1239.404
46,0.07496700000000001,1239.404
47,0.07663300000000001,1241.565
48,0.07829999999999999,1245.588
49,0.080017,1245.067
50,0.081633,1245.067
51,0.0833,1242.682
52,0.084967,1242.161
53,0.086617,1237.467
54,0.088283,1237.467
55,0.08995,1236.126
56,0.091617,1235.828
57,0.09335,1233.444
58,0.09495000000000001,1233.444
59,0.09661699999999999,1231.208
60,0.098283,1227.93
61,0.09995,1227.93
62,0.101617,1225.323
63,0.103283,1224.279
64,0.10495,1225.77
65,0.106617,1225.77
66,0.108283,1226.44
67,0.10995,1228.675
68,0.111617,1230.836
69,0.113283,1230.836
70,0.11495,1231.506
71,0.116617,1233.369
72,0.118283,1233.22
73,0.11995,1233.22
74,0.121617,1231.059
75,0.123283,1233.295
76,0.12495,1233.444
77,0.126717,1233.444
78,0.128283,1233.071
79,0.12995,1237.392
80,0.131617,1237.392
81,0.133283,1234.263
82,0.13495,1233.369
83,0.136617,1232.55
84,0.138283,1232.55
85,0.13995,1228.526
86,0.141617,1231.059
87,0.143283,1231.656
88,0.14495,1231.656
89,0.146617,1232.848
90,0.148267,1232.251
91,0.149933,1228.303
92,0.1516,1228.303
93,0.153267,1227.856
94,0.154933,1225.919
95,0.1566,1225.919
96,0.158267,1225.546
97,0.159933,1226.962
98,0.1616,1228.228
99,0.163267,1228.228
100,0.164933,1229.718
101,0.1666,1232.997
102,0.168267,1234.263
103,0.169933,1234.263
104,0.1716,1229.644
105,0.173267,1229.718
106,0.174933,1226.291
107,0.1766,1226.291
108,0.178267,1223.087
109,0.179933,1225.397
110,0.1816,1224.95
111,0.183267,1224.95
112,0.184933,1227.93
113,0.1866,1230.314
114,0.1883,1230.314
115,0.189933,1228.601
116,0.1916,1228.005
117,0.193267,1225.173
118,0.194933,1225.173
119,0.1966,1224.13
120,0.198267,1222.789
121,0.199933,1221.076
122,0.2016,1221.076
123,0.203267,1223.907
124,0.204917,1221.97
125,0.206583,1225.62
126,0.20825,1225.62
127,0.209917,1224.726
128,0.21165,1221.448
129,0.21325,1221.448
130,0.214917,1222.64
131,0.216583,1220.033
132,0.21825,1220.554
133,0.219917,1220.554
134,0.221583,1221.374
135,0.22325,1221.15
136,0.224917,1224.503
137,0.226583,1224.503
138,0.22835,1225.471
139,0.229917,1225.993
140,0.231583,1228.154
141,0.23325,1228.154
142,0.234917,1225.099
143,0.236583,1224.428
144,0.23825,1224.354
145,0.239917,1224.354
146,0.241583,1222.044
147,0.24325,1222.491
148,0.245,1222.491
149,0.246583,1221.746
150,0.24825,1221.895
151,0.249917,1221.076
152,0.251583,1221.076
153,0.25325,1220.778
154,0.254933,1221.448
155,0.256583,1221.001
156,0.25825,1221.001
157,0.259917,1221.746
158,0.261583,1221.15
159,0.26325,1219.139
160,0.264933,1219.139
161,0.266567,1218.244
162,0.268233,1218.393
163,0.2699,1218.393
164,0.271567,1215.115
165,0.273233,1217.574
166,0.2749,1218.244
167,0.276567,1218.244
168,0.278233,1216.903
169,0.2799,1217.872
170,0.281567,1215.86
171,0.283233,1215.86
172,0.2849,1216.233
173,0.286567,1220.182
174,0.288233,1224.652
175,0.2899,1224.652
176,0.291567,1224.503
177,0.293233,1225.248
178,0.2949,1225.248
179,0.296567,1221.448
180,0.298233,1218.393
181,0.2999,1215.413
182,0.301567,1215.413
183,0.303233,1213.625
184,0.3049,1210.868
185,0.306567,1210.049
186,0.308233,1210.049
187,0.3099,1212.06
188,0.311567,1211.539
189,0.313233,1215.488
190,0.3149,1215.488
191,0.316567,1217.201
192,0.318233,1218.915
193,0.3199,1220.629
194,0.321567,1220.629
195,0.323233,1220.778
196,0.3249,1219.809
197,0.326567,1219.809
198,0.328217,1219.66
199,0.329917,1217.276
200,0.33155,1214.296
201,0.333217,1214.296
202,0.334883,1211.911
203,0.33655,1208.931
204,0.338217,1208.857
205,0.339883,1208.857
206,0.34155,1210.943
207,0.343217,1210.868
208,0.344883,1213.923
209,0.346633,1213.923
210,0.348217,1213.998
211,0.349883,1215.786
212,0.35155,1215.786
213,0.353217,1217.574
214,0.354883,1219.586
215,0.35655,1222.193
216,0.3582,1222.193
217,0.359867,1220.629
218,0.361533,1223.981
219,0.3633,1226.589
220,0.364867,1226.589
221,0.366533,1228.526
222,0.3682,1233.369
223,0.369867,1239.33
224,0.371533,1239.33
225,0.3732,1243.278
226,0.374867,1251.474
227,0.376533,1263.693
228,0.3782,1263.693
229,0.379967,1277.402
230,0.381533,1300.499
231,0.3832,1300.499
232,0.384867,1330.45
233,0.386517,1376.42
234,0.388183,1451.373
235,0.38985,1451.373
236,0.391517,1563.355
237,0.393183,1739.562
238,0.39485,2004.579
239,0.396517,2004.579
240,0.398183,2399.534
241,0.39985,2976.135
242,0.401517,3799.275
243,0.403217,3799.275
244,0.40485,4940.704
245,0.406517,6474.331
246,0.408183,6474.331
247,0.40985,8483.306
248,0.411517,11040.718
249,0.413183,14212.206
250,0.41485,14212.206
251,0.416517,18072.947
252,0.418183,22678.002
253,0.419867,28074.309
254,0.421517,28074.309
255,0.423183,34280.719
256,0.42485,41261.168
257,0.426517,48927.441
258,0.428183,48927.441
259,0.429867,57130.531
260,0.431517,65673.516
261,0.433183,74319.68799999999
262,0.43485,74319.68799999999
263,0.436517,82820.05499999999
264,0.438183,90917.57000000001
265,0.43985,90917.57000000001
266,0.441517,98377.836
267,0.443183,104980.617
268,0.44485,110541.281
269,0.4465,110541.281
270,0.448167,114914.625
271,0.449833,117998.492
272,0.4515,119741.336
273,0.453167,119741.336
274,0.454833,120148.586
275,0.4565,119275.305
276,0.458167,117216.852
277,0.459833,117216.852
278,0.4615,114110.484
279,0.463167,110124.422
280,0.464883,110124.422
281,0.4665,105432.047
282,0.468167,100216.641
283,0.469867,94659.852
284,0.4715,94659.852
285,0.473167,88913.81299999999
286,0.474833,83123.594
287,0.4765,77403.781
288,0.478167,77403.781
289,0.479833,71848.109
290,0.481567,66527.727
291,0.483167,61489.344
292,0.484833,61489.344
293,0.4865,56769.176
294,0.488167,52379.52
295,0.489833,52379.52
296,0.4915,48320.145
297,0.493167,44587.551
298,0.494833,41161.105
299,0.4965,41161.105
300,0.498283,38025.453
301,0.499833,35158.695
302,0.5014999999999999,32541.006
303,0.503167,32541.006
304,0.504817,30150.414
305,0.506483,27967.244
306,0.5081830000000001,25974.289
307,0.509817,25974.289
308,0.511483,24152.1
309,0.51315,22485.629
310,0.514817,20957.887
311,0.516483,20957.887
312,0.51815,19558.072
313,0.519817,18272.996
314,0.521483,18272.996
315,0.52315,17091.482
316,0.524817,16005.486
317,0.526483,15004.203
318,0.52815,15004.203
319,0.529817,14081.001
320,0.531483,13231.784
321,0.53315,12449.92
322,0.534817,12449.92
323,0.536483,11726.021
324,0.53815,11059.642
325,0.539833,10442.809
326,0.541483,10442.809
327,0.54315,9873.137000000001
328,0.544817,9351.224
329,0.5464830000000001,9351.224
330,0.54815,8863.956
331,0.549817,8413.791999999999
332,0.5514829999999999,7995.665
333,0.55315,7995.665
334,0.554817,7605.18
335,0.5564829999999999,7248.819
336,0.55815,6916.598
337,0.559817,6916.598
338,0.561483,6609.335
339,0.56315,6323.755
340,0.564817,6052.852
341,0.5664670000000001,6052.852
342,0.568133,5803.183
343,0.5698,5570.277
344,0.5714669999999999,5351.827
345,0.573133,5351.827
346,0.5748,5148.724
347,0.576467,4960.746
348,0.578133,4960.746
349,0.5798,4784.688
350,0.581467,4621.223
351,0.583133,4468.337
352,0.5848,4468.337
353,0.586467,4324.689
354,0.588133,4188.121
355,0.5898,4061.088
356,0.591483,4061.088
357,0.593133,3945.827
358,0.5948,3835.037
359,0.596467,3728.569
360,0.598133,3728.569
361,0.5998329999999999,3627.688
362,0.601467,3531.128
363,0.603133,3531.128
364,0.6048,3438.89
365,0.606467,3357.008
366,0.608133,3278.628
367,0.6098,3278.628
368,0.611467,3201.217
369,0.613133,3134.236
370,0.6148,3068.671
371,0.61655,3068.671
372,0.618133,3005.49
373,0.6198,2947.524
374,0.621467,2891.198
375,0.623133,2891.198
376,0.6248,2834.722
377,0.626467,2783.76
378,0.628117,2733.543
379,0.629783,2733.543
380,0.63145,2681.613
381,0.633117,2635.494
382,0.634783,2635.494
383,0.63645,2593.994
384,0.638117,2555.326
385,0.639783,2518.52
386,0.64145,2518.52
387,0.643117,2480.671
388,0.644783,2442.3
389,0.64645,2404.153
390,0.6481170000000001,2404.153
391,0.649767,2369.732
392,0.651433,2338.886
393,0.6531,2308.041
394,0.654767,2308.041
395,0.656433,2281.293
396,0.6581,2256.483
397,0.659767,2256.483
398,0.661433,2230.182
399,0.6631,2207.682
400,0.664767,2183.095
401,0.6664330000000001,2183.095
402,0.6681,2158.135
403,0.669767,2133.399
404,0.6714329999999999,2109.11
405,0.673117,2109.11
406,0.674767,2086.759
407,0.676433,2062.619
408,0.6781,2045.482
409,0.679767,2045.482
410,0.681467,2028.644
411,0.6831,2008.9
412,0.68475,2008.9
413,0.6864170000000001,1993.701
414,0.688083,1974.255
415,0.68975,1956.15
416,0.6914169999999999,1956.15
417,0.693083,1943.856
418,0.69475,1923.889
419,0.696417,1907.647
420,0.698083,1907.647
421,0.69975,1891.926
422,0.7015,1875.013
423,0.703083,1866.147
424,0.70475,1866.147
425,0.706417,1856.834
426,0.708083,1846.999
427,0.70975,1833.811
428,0.711417,1833.811
429,0.713083,1821.518
430,0.71475,1809.821
431,0.716417,1809.821
432,0.718117,1796.335
433,0.71975,1786.277
434,0.721417,1775.324
435,0.723083,1775.324
436,0.72475,1764.447
437,0.726417,1752.675
438,0.728083,1742.616
439,0.72975,1742.616
440,0.731417,1731.515
441,0.733083,1722.947
442,0.73485,1715.571
443,0.736417,1715.571
444,0.738083,1704.469
445,0.73975,1694.784
446,0.741417,1694.784
447,0.743083,1681.82
448,0.74475,1670.867
449,0.7464,1666.918
450,0.748067,1666.918
451,0.749733,1662.001
452,0.7514,1657.978
453,0.753067,1650.229
454,0.754733,1650.229
455,0.7564,1641.363
456,0.7581329999999999,1633.242
457,0.759733,1625.717
458,0.7614,1625.717
459,0.7630670000000001,1622.96
460,0.764733,1616.105
461,0.7664,1608.357
462,0.7680670000000001,1608.357
463,0.769733,1599.64
464,0.7714,1590.401
465,0.7730669999999999,1590.401
466,0.774733,1584.664
467,0.7764,1578.331
468,0.778067,1574.084
469,0.779733,1574.084
470,0.7814,1569.167
471,0.783067,1565.516
472,0.784733,1562.61
473,0.7864,1562.61
474,0.788067,1556.128
475,0.789733,1551.881
476,0.7914,1545.027
477,0.793067,1545.027
478,0.794733,1541.749
479,0.7964,1537.576
480,0.798067,1537.576
481,0.799733,1536.459
482,0.8014,1534.969
483,0.80305,1531.318
484,0.804733,1531.318
485,0.806383,1528.04
486,0.80805,1519.173
487,0.809717,1512.095
488,0.811383,1512.095
489,0.8130500000000001,1504.794
490,0.814717,1496.896
491,0.816383,1492.202
492,0.8180500000000001,1492.202
493,0.819767,1484.528
494,0.821383,1479.611
495,0.8230499999999999,1477.897
496,0.824717,1477.897
497,0.826383,1473.874
498,0.82805,1473.725
499,0.829717,1473.725
500,0.8314,1469.478
501,0.833067,1467.317
502,0.834717,1464.263
503,0.836383,1464.263
504,0.83805,1459.122
505,0.839717,1455.471
506,0.841383,1452.342
507,0.84305,1452.342
508,0.8447170000000001,1450.777
509,0.846383,1450.106
510,0.84805,1448.84
511,0.8497169999999999,1448.84
512,0.851383,1446.605
513,0.85315,1445.338
514,0.8547169999999999,1445.338
515,0.856383,1443.848
516,0.85805,1443.922
517,0.859717,1439.899
518,0.861383,1439.899
519,0.86305,1432.151
520,0.864717,1426.116
521,0.866367,1419.783
522,0.8680330000000001,1419.783
523,0.8697,1417.026
524,0.871367,1419.038
525,0.8730329999999999,1418.889
526,0.8747,1418.889
527,0.876367,1416.951
528,0.878033,1416.504
529,0.8797,1416.504
530,0.881367,1412.63
531,0.883033,1410.395
532,0.8847,1409.501
533,0.886367,1409.501
534,0.888033,1407.787
535,0.8897,1404.881
536,0.891367,1403.019
537,0.893033,1403.019
538,0.8947000000000001,1399.89
539,0.896367,1394.227
540,0.898033,1392.514
541,0.8997000000000001,1392.514
542,0.901367,1389.459
543,0.903033,1389.98
544,0.9046999999999999,1394.078
545,0.906367,1394.078
546,0.908033,1392.662
547,0.9097,1391.396
548,0.911367,1391.396
549,0.913033,1388.788
550,0.914717,1382.977
551,0.916367,1381.934
552,0.918033,1381.934
553,0.9197,1379.177
554,0.921367,1376.271
555,0.923033,1372.695
556,0.9247,1372.695
557,0.92635,1369.64
558,0.928017,1368.076
559,0.929683,1363.68
560,0.93135,1363.68
561,0.933017,1362.339
562,0.934683,1361.668
563,0.93635,1361.668
564,0.938083,1361.072
565,0.939683,1363.978
566,0.941333,1361.296
567,0.9429999999999999,1361.296
568,0.944667,1360.476
569,0.946333,1358.092
570,0.948,1353.92
571,0.949667,1353.92
572,0.951333,1353.621
573,0.953,1350.343
574,0.954667,1348.481
575,0.956333,1348.481
576,0.958,1348.779
577,0.959667,1347.214
578,0.961333,1346.99
579,0.963033,1346.99
580,0.9646670000000001,1345.277
581,0.966333,1340.732
582,0.968,1340.732
583,0.9696669999999999,1340.136
584,0.971433,1336.56
585,0.973,1335.144
586,0.974667,1335.144
587,0.976333,1335.144
588,0.978,1335.517
589,0.979667,1336.485
590,0.981333,1336.485
591,0.983,1334.026
592,0.984667,1334.324
593,0.986333,1330.674
594,0.9879829999999999,1330.674
595,0.98965,1329.556
596,0.991317,1331.493
597,0.9929829999999999,1331.493
598,0.99465,1330.003
599,0.996317,1331.344
600,0.997983,1327.246
601,0.99965,1327.246
602,1.001317,1323.521
603,1.002983,1322.925
604,1.00465,1321.807
605,1.006333,1321.807
606,1.008,1322.478
607,1.00965,1324.415
608,1.011317,1322.255
609,1.012983,1322.255
610,1.01465,1321.211
611,1.016317,1319.945
612,1.017983,1316.89
613,1.01965,1316.89
614,1.021317,1315.847
615,1.022983,1312.569
