"ID","sea_time","fid_signal"
1,0,1187.623
2,0.001667,1184.717
3,0.003333,1183.45
4,0.005,1182.631
5,0.0067,1182.631
6,0.008333,1179.65
7,0.01,1178.086
8,0.011667,1180.097
9,0.013333,1180.097
10,0.015,1180.246
11,0.016667,1181.588
12,0.018333,1180.917
13,0.02,1180.917
14,0.021667,1176.596
15,0.023383,1175.18
16,0.025,1175.18
17,0.02665,1173.168
18,0.028317,1172.274
19,0.029983,1174.733
20,0.03165,1174.733
21,0.033317,1179.725
22,0.034983,1180.619
23,0.03665,1185.536
24,0.038317,1185.536
25,0.040067,1187.25
26,0.04165,1186.43
27,0.043317,1188.964
28,0.044983,1188.964
29,0.04665,1186.356
30,0.048317,1186.356
31,0.049983,1186.356
32,0.05165,1187.25
33,0.053317,1184.791
34,0.054983,1187.921
35,0.056767,1187.921
36,0.058317,1186.356
37,0.059983,1185.462
38,0.06165,1186.281
39,0.063317,1186.281
40,0.064983,1181.96
41,0.06665,1180.992
42,0.068317,1176.894
43,0.069983,1176.894
44,0.07165000000000001,1175.851
45,0.07331699999999999,1176.894
46,0.07498299999999999,1179.203
47,0.07665,1179.203
48,0.078317,1184.27
49,0.079983,1186.505
50,0.08165,1186.505
51,0.083317,1188.219
52,0.084983,1188.964
53,0.086633,1186.505
54,0.0883,1186.505
55,0.08996700000000001,1184.046
56,0.09163300000000001,1182.854
57,0.09329999999999999,1179.874
58,0.094967,1179.874
59,0.096633,1179.501
60,0.0983,1177.937
61,0.099967,1177.192
62,0.101633,1177.192
63,0.1033,1175.627
64,0.104967,1173.615
65,0.106633,1173.615
66,0.1083,1174.584
67,0.109967,1173.839
68,0.11165,1175.553
69,0.1133,1175.553
70,0.114967,1177.341
71,0.116633,1178.533
72,0.1183,1177.564
73,0.119967,1177.564
74,0.121633,1179.725
75,0.1233,1180.396
76,0.124967,1178.309
77,0.126633,1178.309
78,0.1283,1179.129
79,0.129967,1177.266
80,0.131633,1177.415
81,0.1333,1177.415
82,0.134967,1179.203
83,0.136633,1181.364
84,0.1383,1181.364
85,0.139967,1182.407
86,0.141683,1181.96
87,0.1433,1185.462
88,0.144967,1185.462
89,0.146617,1185.313
90,0.148283,1185.238
91,0.14995,1186.803
92,0.151617,1186.803
93,0.153283,1186.952
94,0.15495,1186.058
95,0.156633,1183.003
96,0.158333,1183.003
97,0.15995,1180.321
98,0.161617,1176
99,0.163283,1176
100,0.16495,1177.043
101,0.166617,1176.968
102,0.168283,1176.521
103,0.16995,1176.521
104,0.171617,1177.713
105,0.173283,1178.16
106,0.175067,1181.737
107,0.176617,1181.737
108,0.178283,1184.419
109,0.17995,1186.43
110,0.181617,1187.772
111,0.183283,1187.772
112,0.18495,1186.952
113,0.186617,1186.877
114,0.188283,1187.176
115,0.18995,1187.176
116,0.191617,1185.462
117,0.193283,1186.356
118,0.19495,1186.356
119,0.196617,1187.772
120,0.198283,1187.921
121,0.19995,1186.952
122,0.201633,1186.952
123,0.203283,1186.505
124,0.20495,1181.737
125,0.2066,1178.458
126,0.208267,1178.458
127,0.209933,1179.501
128,0.2116,1180.172
129,0.213267,1183.897
130,0.214933,1183.897
131,0.2166,1185.834
132,0.218267,1186.207
133,0.219933,1186.207
134,0.2216,1185.611
135,0.223267,1184.195
136,0.224933,1184.121
137,0.2266,1184.121
138,0.228267,1183.525
139,0.229933,1185.313
140,0.2316,1184.419
141,0.233267,1184.419
142,0.234933,1183.078
143,0.2366,1185.387
144,0.238267,1185.238
145,0.239933,1185.238
146,0.2416,1186.579
147,0.243267,1183.972
148,0.244933,1180.693
149,0.2466,1180.693
150,0.248267,1178.607
151,0.249933,1179.203
152,0.251617,1179.203
153,0.253267,1183.301
154,0.254933,1184.717
155,0.2566,1183.748
156,0.258267,1183.748
157,0.259933,1182.705
158,0.2616,1177.564
159,0.263267,1176.745
160,0.264933,1176.745
161,0.266583,1178.235
162,0.26825,1178.831
163,0.269917,1183.078
164,0.271583,1183.078
165,0.27325,1182.854
166,0.274917,1184.94
167,0.2766,1184.94
168,0.27825,1187.399
169,0.279917,1185.313
170,0.281567,1185.611
171,0.283233,1185.611
172,0.2849,1183.897
173,0.286583,1179.725
174,0.288233,1181.662
175,0.2899,1181.662
176,0.291567,1182.258
177,0.293333,1180.545
178,0.2949,1179.129
179,0.296567,1179.129
180,0.298233,1181.513
181,0.2999,1180.097
182,0.3016,1180.097
183,0.303233,1180.917
184,0.3049,1182.184
185,0.306567,1178.905
186,0.308233,1178.905
187,0.3099,1180.992
188,0.311567,1181.215
189,0.313233,1182.482
190,0.3149,1182.482
191,0.316567,1182.78
192,0.318233,1178.905
193,0.3199,1179.352
194,0.321567,1179.352
195,0.323233,1181.141
196,0.3249,1184.195
197,0.32655,1186.729
198,0.328217,1186.729
199,0.329883,1186.579
200,0.33155,1187.176
201,0.333217,1187.176
202,0.334883,1185.462
203,0.33655,1182.556
204,0.338217,1182.035
205,0.339883,1182.035
206,0.34155,1179.65
207,0.343217,1177.043
208,0.344883,1178.309
209,0.34655,1178.309
210,0.348217,1177.713
211,0.349883,1177.788
212,0.35155,1179.799
213,0.353217,1179.799
214,0.354883,1181.588
215,0.35655,1180.47
216,0.358217,1180.47
217,0.359883,1180.396
218,0.361567,1180.619
219,0.363233,1180.619
220,0.3649,1180.619
221,0.36655,1182.407
222,0.368217,1182.482
223,0.369883,1182.929
224,0.37155,1182.929
225,0.373217,1182.035
226,0.374883,1184.717
227,0.37655,1186.505
228,0.378267,1186.505
229,0.379883,1186.132
230,0.38155,1189.262
231,0.383217,1187.324
232,0.384883,1187.324
233,0.386533,1188.368
234,0.3882,1191.05
235,0.389867,1191.05
236,0.391533,1191.348
237,0.3932,1196.265
238,0.394867,1199.767
239,0.396533,1199.767
240,0.3982,1200.512
241,0.399867,1203.492
242,0.401533,1204.759
243,0.4032,1204.759
244,0.404867,1202.747
245,0.406533,1202.971
246,0.4082,1203.939
247,0.409867,1203.939
248,0.41165,1203.418
249,0.4132,1207.143
250,0.414867,1207.143
251,0.416533,1207.739
252,0.4182,1208.335
253,0.419867,1207.59
254,0.421533,1207.59
255,0.4232,1206.174
256,0.424867,1210.272
257,0.42655,1211.688
258,0.4282,1211.688
259,0.429867,1212.209
260,0.431533,1210.943
261,0.4332,1208.782
262,0.434867,1208.782
263,0.436533,1209.229
264,0.4382,1210.794
265,0.4399,1213.625
266,0.44155,1213.625
267,0.4432,1213.253
268,0.444867,1212.731
269,0.446517,1212.731
270,0.448183,1211.315
271,0.44985,1209.155
272,0.451517,1209.229
273,0.453183,1209.229
274,0.45485,1206.845
275,0.456517,1208.484
276,0.458183,1210.198
277,0.45985,1210.198
278,0.461517,1211.986
279,0.463183,1212.507
280,0.46485,1210.496
281,0.466517,1210.496
282,0.468183,1209.229
283,0.46985,1209.155
284,0.471517,1209.155
285,0.473183,1209.229
286,0.47485,1211.986
287,0.476517,1210.496
288,0.478183,1210.496
289,0.47985,1209.155
290,0.481517,1208.708
291,0.483183,1208.708
292,0.48485,1208.708
293,0.486517,1211.166
294,0.488183,1209.08
295,0.48985,1207.367
296,0.491517,1207.367
297,0.493183,1203.492
298,0.49485,1204.684
299,0.496583,1204.833
300,0.498183,1204.833
301,0.49985,1204.535
302,0.501517,1205.057
303,0.503183,1205.057
304,0.50485,1201.555
305,0.5065,1204.237
306,0.5081830000000001,1204.535
307,0.5099,1204.535
308,0.5115,1205.355
309,0.513167,1204.684
310,0.514833,1199.693
311,0.5165,1199.693
312,0.518167,1200.661
313,0.519833,1199.245
314,0.5215,1200.959
315,0.523167,1200.959
316,0.524833,1204.982
317,0.5265,1204.312
318,0.5281670000000001,1204.312
319,0.52985,1204.535
320,0.5315,1203.418
321,0.5331669999999999,1200.065
322,0.534833,1200.065
323,0.5365,1198.5
324,0.538167,1198.873
325,0.539833,1197.755
326,0.5415,1197.755
327,0.543167,1198.5
328,0.544833,1199.096
329,0.5465,1198.575
330,0.548167,1198.575
331,0.549833,1197.457
332,0.5515,1196.414
333,0.553167,1196.414
334,0.554833,1193.21
335,0.5565,1191.646
336,0.558167,1191.869
337,0.559833,1191.869
338,0.5615,1189.709
339,0.563167,1192.242
340,0.564833,1193.434
341,0.566483,1193.434
342,0.56815,1192.614
343,0.569817,1195.371
344,0.571483,1192.614
345,0.573133,1192.614
346,0.5748,1191.422
347,0.576467,1192.763
348,0.578133,1189.634
349,0.579817,1189.634
350,0.581533,1193.136
351,0.583133,1193.434
352,0.5848,1193.434
353,0.586467,1192.242
354,0.588133,1194.179
355,0.5898,1193.881
356,0.591467,1193.881
357,0.593133,1194.104
358,0.5948,1192.912
359,0.596467,1195.371
360,0.598133,1195.371
361,0.5998,1195.222
362,0.601483,1192.689
363,0.603133,1194.552
364,0.6048,1194.552
365,0.606467,1191.571
366,0.608133,1191.795
367,0.6098,1191.795
368,0.611467,1197.308
369,0.613133,1196.712
370,0.6148670000000001,1197.383
371,0.616467,1197.383
372,0.618133,1197.606
373,0.6198,1191.497
374,0.621467,1193.509
375,0.623133,1193.509
376,0.624783,1193.881
377,0.62645,1193.583
378,0.628117,1198.277
379,0.629783,1198.277
380,0.631583,1197.904
381,0.633117,1199.245
382,0.634783,1199.245
383,0.63645,1197.979
384,0.638117,1196.265
385,0.639783,1194.552
386,0.64145,1194.552
387,0.643117,1193.807
388,0.644783,1194.403
389,0.64645,1195.297
390,0.648167,1195.297
391,0.649783,1195.073
392,0.651467,1195.371
393,0.6531169999999999,1195.222
394,0.654783,1195.222
395,0.656467,1194.328
396,0.658117,1195.669
397,0.659783,1194.775
398,0.66145,1194.775
399,0.663117,1191.646
400,0.664783,1190.305
401,0.66645,1190.305
402,0.668117,1187.324
403,0.669783,1186.43
404,0.67145,1188.591
405,0.673117,1188.591
406,0.674783,1187.623
407,0.67645,1188.144
408,0.678117,1186.132
409,0.679783,1186.132
410,0.68145,1185.76
411,0.683117,1187.995
412,0.684783,1191.05
413,0.686433,1191.05
414,0.6881,1189.709
415,0.689767,1187.995
416,0.691433,1187.995
417,0.6931,1188.144
418,0.694767,1187.772
419,0.696433,1192.763
420,0.6981000000000001,1192.763
421,0.699767,1193.881
422,0.701433,1195.297
423,0.7030999999999999,1196.34
424,0.704767,1196.34
425,0.706433,1196.936
426,0.7081,1200.512
427,0.709767,1202.598
428,0.711433,1202.598
429,0.7131,1205.206
430,0.714767,1207.59
431,0.716433,1208.41
432,0.7181,1208.41
433,0.719767,1210.049
434,0.721433,1212.507
435,0.7231,1212.507
436,0.7247670000000001,1215.19
437,0.726433,1216.978
438,0.7281,1219.064
439,0.7297670000000001,1219.064
440,0.731433,1224.354
441,0.733133,1230.165
442,0.7347669999999999,1243.353
443,0.736433,1243.353
444,0.7381,1258.999
445,0.739767,1273.081
446,0.741433,1288.727
447,0.7431,1288.727
448,0.744767,1304.001
449,0.746417,1321.733
450,0.7480830000000001,1321.733
451,0.749867,1340.136
452,0.751417,1365.691
453,0.7530829999999999,1390.353
454,0.75475,1390.353
455,0.756417,1415.014
456,0.758083,1445.487
457,0.75975,1475.513
458,0.761417,1475.513
459,0.763083,1513.287
460,0.76475,1554.042
461,0.766483,1598.448
462,0.768083,1598.448
463,0.76975,1645.461
464,0.771417,1698.509
465,0.773083,1754.91
466,0.77475,1754.91
467,0.776417,1813.471
468,0.778083,1878.366
469,0.7797500000000001,1878.366
470,0.781417,1942.292
471,0.783183,2010.763
472,0.7847499999999999,2083.555
473,0.786417,2083.555
474,0.788083,2158.806
475,0.78975,2238.527
476,0.791417,2322.57
477,0.793083,2322.57
478,0.79475,2406.314
479,0.796417,2495.87
480,0.798083,2586.32
481,0.79975,2586.32
482,0.801417,2678.707
483,0.803083,2776.012
484,0.80475,2776.012
485,0.8064,2872.348
486,0.808067,2970.174
487,0.809733,3070.682
488,0.8114,3070.682
489,0.813067,3174.543
490,0.814733,3279.671
491,0.8164,3386.885
492,0.818083,3386.885
493,0.819733,3496.781
494,0.8214,3606.304
495,0.823067,3717.914
496,0.824733,3717.914
497,0.8264,3832.132
498,0.828067,3936.812
499,0.82975,4040.375
500,0.8314,4040.375
501,0.833067,4146.621
502,0.8347329999999999,4252.493
503,0.8364,4252.493
504,0.838067,4362.688
505,0.839733,4471.541
506,0.8414,4579.127
507,0.843067,4579.127
508,0.844733,4687.831
509,0.8464,4796.386
510,0.848067,4906.282
511,0.849733,4906.282
512,0.8514,5007.61
513,0.853067,5104.318
514,0.854733,5202.591
515,0.8564000000000001,5202.591
516,0.858067,5299.523
517,0.859733,5396.008
518,0.8614000000000001,5396.008
519,0.863067,5490.258
520,0.8647,5579.666
521,0.8663999999999999,5661.845
522,0.86815,5661.845
523,0.8697,5745.664
524,0.871367,5827.323
525,0.8730329999999999,5904.734
526,0.8747,5904.734
527,0.876367,5980.432
528,0.878033,6051.66
529,0.8797,6120.652
530,0.881367,6120.652
531,0.883033,6186.292
532,0.884767,6250.218
533,0.886367,6250.218
534,0.888033,6312.504
535,0.8897,6366
536,0.891367,6415.471
537,0.893033,6415.471
538,0.8947000000000001,6460.92
539,0.896367,6502.643
540,0.898033,6541.461
541,0.8997000000000001,6541.461
542,0.901467,6576.851
543,0.903033,6608.144
544,0.9046999999999999,6630.719
545,0.906367,6630.719
546,0.908033,6651.282
547,0.9097,6666.407
548,0.911367,6675.646
549,0.913033,6675.646
550,0.9147,6680.042
551,0.916367,6678.85
552,0.918033,6678.85
553,0.9197,6671.324
554,0.921367,6660.148
555,0.923033,6646.812
556,0.9247,6646.812
557,0.92635,6630.048
558,0.928017,6609.708
559,0.929683,6587.133
560,0.93135,6587.133
561,0.933017,6559.938
562,0.934683,6528.497
563,0.93635,6496.31
564,0.9380500000000001,6496.31
565,0.939683,6456.151
566,0.94135,6411.97
567,0.943017,6411.97
568,0.9446830000000001,6363.094
569,0.94635,6312.43
570,0.948017,6263.033
571,0.9496830000000001,6263.033
572,0.95135,6212.667
573,0.953017,6159.544
574,0.9546829999999999,6102.249
575,0.95635,6102.249
576,0.958017,6041.825
577,0.959683,5983.338
578,0.96135,5926.043
579,0.963017,5926.043
580,0.964683,5867.481
581,0.96635,5808.622
582,0.968017,5745.59
583,0.969733,5745.59
584,0.97135,5685.314
585,0.973017,5626.604
586,0.974683,5626.604
587,0.9763500000000001,5567.968
588,0.978017,5507.022
589,0.979683,5445.257
590,0.9813499999999999,5445.257
591,0.983017,5385.28
592,0.9847,5329.251
593,0.9863499999999999,5277.172
594,0.988,5277.172
595,0.989667,5223.751
596,0.991333,5171.225
597,0.993,5117.059
598,0.994667,5117.059
599,0.996333,5060.435
600,0.998,5009.472
601,0.999667,5009.472
602,1.001333,4960.075
603,1.003067,4913.881
604,1.004683,4871.488
605,1.006333,4871.488
606,1.008033,4825.964
607,1.009667,4778.579
608,1.011333,4731.268
609,1.013,4731.268
610,1.014667,4689.023
611,1.016333,4647.523
612,1.018,4607.439
613,1.019783,4607.439
614,1.021333,4566.982
615,1.023,4526.749
616,1.024667,4483.685
617,1.026333,4483.685
618,1.028,4444.42
619,1.029667,4406.348
620,1.031333,4406.348
621,1.033,4367.679
622,1.034667,4338.324
623,1.036333,4303.977
624,1.038,4303.977
625,1.039667,4270.375
626,1.041333,4234.538
627,1.043,4199.147
628,1.044667,4199.147
629,1.046317,4166.29
630,1.047983,4132.837
631,1.04965,4103.854
632,1.051317,4103.854
633,1.052983,4074.35
634,1.05465,4044.92
635,1.056317,4044.92
636,1.057983,4018.545
637,1.05965,3989.563
638,1.061317,3957.897
639,1.062983,3957.897
640,1.06465,3929.66
641,1.066317,3902.987
642,1.067983,3878.772
643,1.06965,3878.772
644,1.071317,3855.452
645,1.073017,3832.653
646,1.07465,3809.854
647,1.076317,3809.854
648,1.077983,3785.491
649,1.07965,3759.861
650,1.081317,3759.861
651,1.082983,3735.945
652,1.08465,3708.601
653,1.086317,3686.026
654,1.087983,3686.026
655,1.08965,3667.995
656,1.091317,3644.824
657,1.092983,3622.472
658,1.09465,3622.472
659,1.096317,3599.599
660,1.097983,3576.279
661,1.09965,3556.237
662,1.101317,3556.237
663,1.102983,3541.484
664,1.104633,3522.411
665,1.106317,3503.412
666,1.107967,3503.412
667,1.109633,3486.797
668,1.1113,3464.296
669,1.112967,3464.296
670,1.114633,3448.65
671,1.1163,3430.694
672,1.117967,3409.535
673,1.119633,3409.535
674,1.1213,3392.473
675,1.122967,3371.909
676,1.124633,3355.369
677,1.1263,3355.369
678,1.127967,3342.181
679,1.129633,3327.131
680,1.1313,3313.199
681,1.132967,3313.199
682,1.134633,3297.776
683,1.1363,3280.044
684,1.138083,3262.386
685,1.139633,3262.386
686,1.1413,3246.516
687,1.142967,3233.552
688,1.144633,3233.552
689,1.1463,3218.949
690,1.147967,3204.346
691,1.149633,3187.284
692,1.151317,3187.284
693,1.152967,3169.7
694,1.154633,3157.705
695,1.156283,3147.498
696,1.15795,3147.498
697,1.159617,3139.675
698,1.161283,3127.009
699,1.16295,3110.17
700,1.164617,3110.17
701,1.166267,3095.716
702,1.167933,3080.368
703,1.1696,3080.368
704,1.171267,3068.149
705,1.172933,3060.251
706,1.1746,3047.511
707,1.176267,3047.511
708,1.177933,3036.559
709,1.179617,3024.936
710,1.181267,3010.258
711,1.182933,3010.258
712,1.1846,2997.89
713,1.186267,2985.373
714,1.187933,2971.739
715,1.1896,2971.739
716,1.191267,2958.924
717,1.192933,2948.567
718,1.1946,2948.567
719,1.196267,2934.486
720,1.197933,2922.937
721,1.1996,2911.761
722,1.201267,2911.761
723,1.202933,2900.362
724,1.2046,2889.931
725,1.206267,2879.649
726,1.207933,2879.649
727,1.2096,2868.623
728,1.211267,2859.309
729,1.212933,2850.443
730,1.2146,2850.443
731,1.216267,2840.832
732,1.21795,2832.487
733,1.2196,2832.487
734,1.221267,2825.111
735,1.222933,2818.108
736,1.224633,2808.496
737,1.22625,2808.496
738,1.227917,2800.301
739,1.229583,2788.454
740,1.23125,2775.341
741,1.232917,2775.341
742,1.234583,2767.518
743,1.23625,2757.609
744,1.237917,2748.743
745,1.239583,2748.743
746,1.24125,2742.633
747,1.242917,2731.383
748,1.244583,2724.528
749,1.24625,2724.528
750,1.247917,2716.258
751,1.249583,2706.721
752,1.25125,2706.721
753,1.252917,2701.059
754,1.254583,2693.683
755,1.25635,2684.295
756,1.257917,2684.295
757,1.259583,2678.186
758,1.26125,2669.394
759,1.262917,2659.932
760,1.264583,2659.932
761,1.26625,2653.301
762,1.267917,2645.701
763,1.269583,2638.325
764,1.27125,2638.325
765,1.272917,2631.023
766,1.274583,2622.977
767,1.27625,2622.977
768,1.277917,2612.472
769,1.279583,2602.935
770,1.28125,2591.685
771,1.282917,2591.685
772,1.284583,2583.712
773,1.286233,2579.167
774,1.2879,2578.422
775,1.289567,2578.422
776,1.29125,2577.901
777,1.2929,2574.548
778,1.294567,2566.948
779,1.296233,2566.948
780,1.2979,2555.922
781,1.299567,2543.777
782,1.301233,2532.899
783,1.3029,2532.899
784,1.304567,2525.3
785,1.306233,2518.147
786,1.3079,2518.147
787,1.309567,2514.273
788,1.311233,2507.791
789,1.3129,2500.415
790,1.314567,2500.415
791,1.316233,2495.498
792,1.3179,2492.07
793,1.319567,2488.643
794,1.321233,2488.643
795,1.3229,2483.576
796,1.324567,2474.71
797,1.326233,2465.099
798,1.3279,2465.099
799,1.329567,2456.605
800,1.331233,2449.453
801,1.3329,2449.453
802,1.334567,2444.088
803,1.336233,2436.861
804,1.3379,2430.305
805,1.339567,2430.305
806,1.3413,2424.344
807,1.3429,2417.788
808,1.344567,2413.69
809,1.346217,2413.69
810,1.347883,2409.145
811,1.34955,2403.334
812,1.351217,2401.546
813,1.352883,2401.546
814,1.35455,2397.746
815,1.356217,2392.307
816,1.357883,2387.613
817,1.359583,2387.613
818,1.361217,2379.268
819,1.362883,2371.296
820,1.36455,2371.296
821,1.366217,2364.367
822,1.367883,2357.215
823,1.36955,2352.893
824,1.371217,2352.893
825,1.372883,2351.105
826,1.374667,2350.807
827,1.376217,2349.243
828,1.377883,2349.243
829,1.37955,2345.219
830,1.381217,2337.173
831,1.382883,2329.871
832,1.38455,2329.871
833,1.386217,2322.644
834,1.387883,2315.864
835,1.389583,2315.864
836,1.391217,2313.405
837,1.392883,2309.531
838,1.39455,2308.786
839,1.396217,2308.786
840,1.3979,2307.147
841,1.39955,2302.9
842,1.401217,2298.132
843,1.402883,2298.132
844,1.40455,2292.991
845,1.4062,2287.328
846,1.407883,2280.25
847,1.409533,2280.25
848,1.4112,2275.631
849,1.412867,2268.255
850,1.414533,2263.412
851,1.4162,2263.412
852,1.417867,2259.687
853,1.419533,2254.397
854,1.4212,2254.397
855,1.422867,2251.118
856,1.424533,2245.382
857,1.4262,2240.986
858,1.427867,2240.986
859,1.42955,2235.472
860,1.4312,2231.151
861,1.432867,2230.853
862,1.434533,2230.853
863,1.4362,2225.786
864,1.437867,2224.669
865,1.439533,2220.795
866,1.4412,2220.795
867,1.442867,2212.971
868,1.444533,2207.085
869,1.4462,2207.085
870,1.44785,2201.796
871,1.449517,2197.251
872,1.451183,2191.812
873,1.45285,2191.812
874,1.454517,2188.757
875,1.456183,2183.691
876,1.45785,2178.699
877,1.459583,2178.699
878,1.461183,2178.773
879,1.46285,2176.687
880,1.464517,2175.271
881,1.466167,2175.271
882,1.467833,2172.291
883,1.4695,2169.385
884,1.471167,2169.385
885,1.472833,2167.299
886,1.4745,2162.904
887,1.476167,2157.688
888,1.47785,2157.688
889,1.479533,2153.59
890,1.481167,2146.214
891,1.482833,2142.042
892,1.4845,2142.042
893,1.486167,2140.328
894,1.487833,2134.219
895,1.4895,2130.866
896,1.491167,2130.866
897,1.49295,2130.046
898,1.4945,2126.843
899,1.496167,2125.129
900,1.497833,2125.129
901,1.4995,2125.055
902,1.501167,2119.243
903,1.502833,2119.243
904,1.5045,2114.922
905,1.506183,2111.718
906,1.507833,2109.632
907,1.5095,2109.632
908,1.511167,2106.801
909,1.512833,2105.906
910,1.5145,2100.542
911,1.516167,2100.542
912,1.517833,2095.029
913,1.5195,2090.558
914,1.521167,2086.237
915,1.522833,2086.237
916,1.524483,2083.555
917,1.52615,2077.222
918,1.527817,2077.222
919,1.529483,2072.751
920,1.53115,2067.983
921,1.532817,2067.611
922,1.534483,2067.611
