"ID","sea_time","fid_signal"
1,0,1183.748
2,0.001667,1181.364
3,0.003333,1180.843
4,0.005,1180.843
5,0.006683,1181.513
6,0.008333,1181.662
7,0.01,1180.172
8,0.011667,1180.172
9,0.013333,1177.937
10,0.015,1176.447
11,0.016667,1176.521
12,0.018333,1176.521
13,0.02,1175.702
14,0.021683,1174.36
15,0.023333,1174.36
16,0.025,1172.498
17,0.026667,1171.231
18,0.028333,1168.549
19,0.03,1168.549
20,0.031667,1170.859
21,0.033333,1173.019
22,0.035,1171.902
23,0.036667,1171.902
24,0.038417,1177.49
25,0.039983,1177.788
26,0.04165,1177.415
27,0.043317,1177.415
28,0.044983,1179.799
29,0.04665,1178.607
30,0.048317,1178.607
31,0.049983,1178.086
32,0.05165,1179.129
33,0.053317,1177.415
34,0.054967,1177.415
35,0.056633,1175.702
36,0.0583,1173.988
37,0.059967,1173.839
38,0.061633,1173.839
39,0.0633,1177.043
40,0.064967,1180.843
41,0.066633,1183.152
42,0.0683,1183.152
43,0.069967,1181.96
44,0.071633,1181.141
45,0.0733,1181.141
46,0.07496700000000001,1180.992
47,0.07663300000000001,1180.992
48,0.07829999999999999,1181.141
49,0.079967,1181.141
50,0.081633,1178.607
51,0.0833,1176.968
52,0.084967,1176.223
53,0.086633,1176.223
54,0.0883,1178.235
55,0.08996700000000001,1180.693
56,0.09163300000000001,1182.184
57,0.09329999999999999,1182.184
58,0.094967,1179.799
59,0.096633,1178.235
60,0.0983,1178.98
61,0.099967,1178.98
62,0.101633,1177.713
63,0.1033,1181.215
64,0.104967,1181.215
65,0.106633,1182.556
66,0.1083,1181.662
67,0.109967,1181.662
68,0.111633,1181.662
69,0.1133,1181.364
70,0.11495,1179.65
71,0.116617,1181.439
72,0.118283,1181.439
73,0.11995,1181.215
74,0.121617,1179.427
75,0.123283,1181.141
76,0.12495,1181.141
77,0.126617,1179.874
78,0.128283,1179.501
79,0.12995,1179.501
80,0.131617,1180.768
81,0.133283,1179.725
82,0.13495,1179.799
83,0.136617,1179.799
84,0.138283,1183.45
85,0.13995,1183.748
86,0.141617,1181.886
87,0.143283,1181.886
88,0.14495,1180.992
89,0.146617,1176.745
90,0.148283,1176.149
91,0.14995,1176.149
92,0.151617,1178.533
93,0.153283,1178.309
94,0.15495,1180.097
95,0.156733,1180.097
96,0.158283,1180.321
97,0.15995,1180.396
98,0.161617,1180.396
99,0.163283,1182.482
100,0.16495,1183.674
101,0.166617,1184.642
102,0.168283,1184.642
103,0.16995,1184.94
104,0.171617,1183.45
105,0.173283,1180.023
106,0.174933,1180.023
107,0.1766,1179.427
108,0.178267,1177.788
109,0.179933,1174.733
110,0.181617,1174.733
111,0.183267,1175.702
112,0.184933,1177.266
113,0.1866,1177.266
114,0.188267,1178.458
115,0.189933,1180.097
116,0.1916,1181.215
117,0.193267,1181.215
118,0.194933,1179.501
119,0.1966,1178.682
120,0.198267,1179.725
121,0.199933,1179.725
122,0.2016,1176.745
123,0.203267,1176.894
124,0.204933,1176.372
125,0.2066,1176.372
126,0.208267,1176.074
127,0.209933,1177.564
128,0.2116,1175.255
129,0.213267,1175.255
130,0.214933,1175.627
131,0.2166,1173.69
132,0.218267,1173.69
133,0.219933,1175.106
134,0.2216,1177.564
135,0.223267,1179.576
136,0.224933,1179.576
137,0.2266,1182.184
138,0.228267,1182.854
139,0.229933,1183.897
140,0.2316,1183.897
141,0.233267,1183.674
142,0.234917,1182.333
143,0.236583,1178.98
144,0.23825,1178.98
145,0.239917,1176.298
146,0.241633,1175.255
147,0.24325,1175.255
148,0.244917,1176.596
149,0.246583,1180.843
150,0.24825,1180.917
151,0.249917,1180.917
152,0.251583,1178.607
153,0.25325,1178.831
154,0.254917,1175.702
155,0.256583,1175.702
156,0.25835,1177.043
157,0.259917,1177.564
158,0.261583,1176.223
159,0.26325,1176.223
160,0.264917,1175.255
161,0.266583,1175.553
162,0.26825,1175.553
163,0.269917,1176.968
164,0.271583,1177.341
165,0.27325,1178.533
166,0.275017,1178.533
167,0.276583,1178.235
168,0.27825,1181.886
169,0.279917,1182.407
170,0.281583,1182.407
171,0.28325,1184.121
172,0.284917,1185.015
173,0.2866,1179.129
174,0.288317,1179.129
175,0.289917,1179.203
176,0.291583,1178.607
177,0.293233,1178.682
178,0.2949,1178.682
179,0.296567,1182.333
180,0.298233,1181.588
181,0.2999,1181.588
182,0.301567,1180.843
183,0.303233,1177.341
184,0.3049,1175.553
185,0.306567,1175.553
186,0.308233,1178.756
187,0.3099,1179.65
188,0.311567,1181.96
189,0.313233,1181.96
190,0.3149,1179.725
191,0.316567,1175.925
192,0.318233,1174.36
193,0.3199,1174.36
194,0.321567,1175.627
195,0.323233,1177.192
196,0.3249,1177.192
197,0.326567,1178.011
198,0.328233,1178.458
199,0.329883,1176.298
200,0.33155,1176.298
201,0.333217,1178.607
202,0.334883,1180.47
203,0.33655,1182.035
204,0.338217,1182.035
205,0.339883,1186.132
206,0.34155,1189.113
207,0.343217,1189.56
208,0.344883,1189.56
209,0.34655,1188.666
210,0.348217,1186.877
211,0.349883,1184.121
212,0.3516,1184.121
213,0.353217,1184.791
214,0.354883,1187.846
215,0.35655,1187.846
216,0.3582,1190.528
217,0.359883,1195.297
218,0.361533,1195.669
219,0.3632,1195.669
220,0.364867,1198.277
221,0.366533,1201.034
222,0.3682,1200.736
223,0.369867,1200.736
224,0.371533,1208.857
225,0.3732,1214.743
226,0.374867,1218.99
227,0.376617,1218.99
228,0.3782,1223.385
229,0.379867,1223.013
230,0.381533,1223.013
231,0.3832,1226.738
232,0.384867,1234.487
233,0.386533,1244.992
234,0.3882,1244.992
235,0.389867,1256.317
236,0.391533,1263.842
237,0.3933,1269.057
238,0.394867,1269.057
239,0.396533,1270.92
240,0.3982,1273.751
241,0.399867,1278.147
242,0.401533,1278.147
243,0.4032,1285.374
244,0.404867,1296.103
245,0.406533,1296.103
246,0.4082,1302.734
247,0.409983,1312.122
248,0.411533,1319.945
249,0.4132,1319.945
250,0.41485,1328.513
251,0.416517,1336.709
252,0.418183,1340.881
253,0.41985,1340.881
254,0.421517,1343.265
255,0.423183,1346.171
256,0.42485,1350.79
257,0.426533,1350.79
258,0.428183,1354.665
259,0.42985,1363.158
260,0.431517,1368.523
261,0.433183,1368.523
262,0.43485,1376.495
263,0.436517,1384.467
264,0.438183,1384.467
265,0.43985,1389.682
266,0.441517,1393.631
267,0.443183,1396.09
268,0.44485,1396.09
269,0.446517,1396.239
270,0.448183,1395.345
271,0.44985,1397.654
272,0.451517,1397.654
273,0.453183,1400.039
274,0.45485,1403.987
275,0.456517,1406.67
276,0.458183,1406.67
277,0.45985,1407.117
278,0.461517,1404.583
279,0.463183,1404.583
280,0.46485,1403.689
281,0.466517,1402.199
282,0.468183,1398.176
283,0.46985,1398.176
284,0.471517,1394.674
285,0.473183,1388.267
286,0.474833,1381.561
287,0.4765,1381.561
288,0.478167,1377.91
289,0.479833,1375.303
290,0.4815,1373.068
291,0.483167,1373.068
292,0.484833,1372.77
293,0.4865,1367.852
294,0.488167,1363.456
295,0.489833,1363.456
296,0.4915,1359.284
297,0.493167,1349.747
298,0.494933,1345.575
299,0.4965,1345.575
300,0.498167,1339.912
301,0.499833,1332.611
302,0.5014999999999999,1332.611
303,0.503167,1328.811
304,0.504833,1322.329
305,0.5065,1319.647
306,0.508167,1319.647
307,0.509833,1315.698
308,0.511567,1309.514
309,0.513167,1305.491
310,0.514833,1305.491
311,0.5165,1297.742
312,0.518167,1293.868
313,0.519833,1293.868
314,0.5215,1290.292
315,0.523167,1287.088
316,0.524833,1282.617
317,0.5265,1282.617
318,0.5282829999999999,1276.583
319,0.529833,1275.018
320,0.5315,1272.187
321,0.5331669999999999,1272.187
322,0.534817,1267.269
323,0.536483,1264.736
324,0.53815,1256.689
325,0.539817,1256.689
326,0.541483,1248.27
327,0.54315,1244.769
328,0.544817,1239.479
329,0.5464830000000001,1239.479
330,0.54815,1238.734
331,0.549817,1238.212
332,0.5514829999999999,1238.212
333,0.55315,1239.404
334,0.554817,1241.416
335,0.5564829999999999,1242.31
336,0.55815,1242.31
337,0.559817,1241.118
338,0.561483,1239.181
339,0.563183,1235.53
340,0.564817,1235.53
341,0.566483,1231.581
342,0.56815,1230.016
343,0.569817,1226.217
344,0.571483,1226.217
345,0.57315,1223.609
346,0.574817,1222.566
347,0.576483,1222.566
348,0.578167,1223.534
349,0.579817,1224.95
350,0.581483,1226.589
351,0.5831499999999999,1226.589
352,0.584817,1224.205
353,0.586483,1221.374
354,0.58815,1216.531
355,0.589817,1216.531
356,0.591483,1214.594
357,0.59315,1212.135
358,0.5948,1211.539
359,0.596467,1211.539
360,0.598133,1212.06
361,0.5998,1208.931
362,0.601467,1209.378
363,0.603133,1209.378
364,0.6048,1208.037
365,0.606467,1207.814
366,0.608133,1207.814
367,0.6098,1208.484
368,0.611467,1209.006
369,0.613133,1206.771
370,0.6148,1206.771
371,0.616467,1206.323
372,0.618133,1207.143
373,0.6198,1206.473
374,0.6214499999999999,1206.473
375,0.623117,1210.272
376,0.624783,1210.645
377,0.62645,1208.41
378,0.628117,1208.41
379,0.629867,1209.676
380,0.631467,1210.123
381,0.633117,1210.123
382,0.634783,1212.954
383,0.63645,1216.084
384,0.638117,1217.052
385,0.639783,1217.052
386,0.64145,1219.213
387,0.643117,1219.958
388,0.644783,1223.534
389,0.64655,1223.534
390,0.6481170000000001,1228.377
391,0.649783,1228.601
392,0.65145,1233.071
393,0.6531169999999999,1233.071
394,0.654767,1235.977
395,0.656433,1240.894
396,0.6581,1240.894
397,0.659767,1247.749
398,0.661433,1255.348
399,0.6631,1263.842
400,0.664767,1263.842
401,0.6664330000000001,1273.081
402,0.6681,1283.511
403,0.669783,1290.217
404,0.6714329999999999,1290.217
405,0.6731,1297.966
406,0.674767,1306.757
407,0.676433,1316.443
408,0.6781,1316.443
409,0.679767,1330.078
410,0.681433,1342.967
411,0.6831,1353.994
412,0.684767,1353.994
413,0.686433,1367.48
414,0.6881,1382.902
415,0.689767,1382.902
416,0.691433,1400.858
417,0.6931,1425.52
418,0.694767,1450.703
419,0.696433,1450.703
420,0.6981000000000001,1475.066
421,0.699767,1502.857
422,0.701433,1527.891
423,0.7030999999999999,1527.891
424,0.704767,1554.191
425,0.70645,1584.813
426,0.7081,1617
427,0.709767,1617
428,0.711433,1654.178
429,0.713083,1691.654
430,0.71475,1691.654
431,0.716417,1729.578
432,0.718083,1771.599
433,0.71975,1813.844
434,0.721417,1813.844
435,0.723083,1860.634
436,0.72475,1913.309
437,0.726417,1968.816
438,0.728083,1968.816
439,0.72975,2029.017
440,0.731483,2092.049
441,0.733083,2156.869
442,0.73475,2156.869
443,0.736417,2224.967
444,0.738083,2297.908
445,0.73975,2373.308
446,0.741417,2373.308
447,0.743083,2452.582
448,0.74475,2535.731
449,0.746417,2535.731
450,0.748133,2619.475
451,0.74975,2710.819
452,0.751417,2804.548
453,0.7530829999999999,2804.548
454,0.75475,2899.99
455,0.756417,2999.529
456,0.758083,3103.39
457,0.75975,3103.39
458,0.761417,3209.561
459,0.763083,3322.586
460,0.764833,3436.58
461,0.766417,3436.58
462,0.768083,3553.033
463,0.76975,3676.34
464,0.771417,3676.34
465,0.7730669999999999,3803.149
466,0.774733,3933.981
467,0.7764,4067.048
468,0.778067,4067.048
469,0.779733,4202.425
470,0.7814,4338.324
471,0.783083,4479.885
472,0.784733,4479.885
473,0.7864,4625.32
474,0.788067,4771.426
475,0.789733,4920.14
476,0.7914,4920.14
477,0.793067,5073.026
478,0.794733,5223.975
479,0.7964,5381.554
480,0.798067,5381.554
481,0.799733,5539.134
482,0.8014,5694.404
483,0.803067,5694.404
484,0.804733,5854.368
485,0.8064,6015.822
486,0.808067,6181.151
487,0.809733,6181.151
488,0.8114,6348.789
489,0.813083,6519.109
490,0.814733,6686.3
491,0.8164,6686.3
492,0.818067,6852.746
493,0.819733,7021.651
494,0.8214,7189.736
495,0.823067,7189.736
496,0.824733,7357.001
497,0.8264,7524.565
498,0.828083,7524.565
499,0.8297330000000001,7689.968
500,0.8314,7856.414
501,0.83305,8024.275
502,0.834717,8024.275
503,0.836383,8194.521000000001
504,0.83805,8365.809999999999
505,0.839717,8532.628000000001
506,0.841383,8532.628000000001
507,0.84305,8700.267
508,0.8447170000000001,8865.521000000001
509,0.846383,9027.794
510,0.84805,9027.794
511,0.8498,9193.42
512,0.851383,9359.494000000001
513,0.85305,9359.494000000001
514,0.8547169999999999,9520.873
515,0.856383,9680.093000000001
516,0.85805,9835.735000000001
517,0.859717,9835.735000000001
518,0.861383,9988.546
519,0.86305,10143.071
520,0.864717,10297.447
521,0.866383,10297.447
522,0.86805,10451.302
523,0.869717,10598.228
524,0.871383,10741.8
525,0.87305,10741.8
526,0.874717,10885.671
527,0.876383,11023.655
528,0.87805,11164.695
529,0.879717,11164.695
530,0.881383,11301.786
531,0.88315,11434.257
532,0.884717,11434.257
533,0.886383,11565.238
534,0.88805,11691.898
535,0.889717,11821.017
536,0.891383,11821.017
537,0.89305,11944.025
538,0.8947000000000001,12064.8
539,0.896367,12182.594
540,0.898033,12182.594
541,0.8997000000000001,12293.16
542,0.901367,12403.429
543,0.903033,12508.779
544,0.9046999999999999,12508.779
545,0.906367,12608.99
546,0.908033,12708.753
547,0.9097,12708.753
548,0.91135,12806.803
549,0.913017,12902.245
550,0.914683,12995.526
551,0.91635,12995.526
552,0.918017,13083.667
553,0.919683,13168.082
554,0.921367,13248.921
555,0.923017,13248.921
556,0.924683,13325.811
557,0.92635,13399.72
558,0.928017,13470.649
559,0.929683,13470.649
560,0.93135,13537.929
561,0.933017,13600.514
562,0.934683,13661.906
563,0.93635,13661.906
564,0.938017,13722.032
565,0.939683,13778.434
566,0.94135,13778.434
567,0.943017,13832.599
568,0.9446830000000001,13876.334
569,0.94635,13916.046
570,0.948017,13916.046
571,0.9496830000000001,13956.428
572,0.95135,13991.743
573,0.953017,14026.91
574,0.954667,14026.91
575,0.956333,14058.054
576,0.958,14082.268
577,0.959667,14106.854
578,0.961333,14106.854
579,0.963,14127.939
580,0.9646670000000001,14143.735
581,0.966333,14143.735
582,0.968083,14161.095
583,0.9696669999999999,14173.91
584,0.971333,14183.67
585,0.973,14183.67
586,0.974667,14193.579
587,0.976333,14197.007
588,0.978,14200.435
589,0.979667,14200.435
590,0.981333,14200.732
591,0.983,14198.795
592,0.984683,14194.324
593,0.986333,14194.324
594,0.988017,14184.043
595,0.989667,14175.922
596,0.99135,14160.275
597,0.99305,14160.275
598,0.994667,14141.947
599,0.996333,14127.493
600,0.998,14127.493
601,0.999667,14108.047
602,1.001433,14089.644
603,1.003,14071.613
604,1.004667,14071.613
605,1.006333,14045.76
606,1.008,14017.97
607,1.009667,13987.05
608,1.011333,13987.05
609,1.012983,13951.361
610,1.01465,13917.014
611,1.016317,13879.612
612,1.017983,13879.612
613,1.01965,13843.774
614,1.021317,13807.565
615,1.022983,13807.565
616,1.02465,13765.618
617,1.026317,13724.938
618,1.027983,13680.532
619,1.02965,13680.532
620,1.031317,13637.245
621,1.032983,13590.083
622,1.03465,13541.803
623,1.036317,13541.803
624,1.037983,13494.343
625,1.03965,13443.827
626,1.041317,13395.026
627,1.042983,13395.026
628,1.04465,13346.821
629,1.046317,13294.741
630,1.047983,13294.741
631,1.04965,13240.725
632,1.051317,13187.603
633,1.052983,13130.829
634,1.05465,13130.829
635,1.056317,13073.98
636,1.057983,13017.207
637,1.05965,12960.955
638,1.061317,12960.955
639,1.062983,12904.107
640,1.06465,12846.589
641,1.066317,12792.2
642,1.067983,12792.2
643,1.06965,12736.544
644,1.071317,12678.057
645,1.072983,12621.06
646,1.074667,12621.06
647,1.0763,12560.71
648,1.077967,12498.125
649,1.079633,12498.125
650,1.0813,12437.403
651,1.082967,12377.947
652,1.084633,12314.99
653,1.086367,12314.99
654,1.087967,12253.598
655,1.089633,12192.801
656,1.0913,12127.459
657,1.092967,12127.459
658,1.094633,12068.152
659,1.0963,12006.686
660,1.097967,11946.634
661,1.099633,11946.634
662,1.1013,11887.476
663,1.102967,11824.593
664,1.104633,11824.593
665,1.1063,11765.138
666,1.107967,11703.819
667,1.109633,11643.842
668,1.1113,11643.842
669,1.112967,11583.269
670,1.114633,11520.312
671,1.1163,11455.789
672,1.117967,11455.789
673,1.11975,11387.766
674,1.1213,11324.138
675,1.122967,11262.968
676,1.124633,11262.968
677,1.1263,11204.779
678,1.127967,11146.292
679,1.129633,11082.292
680,1.1313,11082.292
681,1.132967,11019.855
682,1.134617,10957.569
683,1.136283,10957.569
684,1.137983,10899.752
685,1.139617,10843.947
686,1.141283,10785.461
687,1.14295,10785.461
688,1.144617,10726.601
689,1.146283,10666.698
690,1.14795,10609.329
691,1.149617,10609.329
692,1.151283,10552.854
693,1.15295,10492.95
694,1.154617,10434.24
695,1.156283,10434.24
696,1.15795,10375.008
697,1.159617,10314.808
698,1.161283,10314.808
699,1.16295,10257.885
700,1.164633,10197.907
701,1.166283,10141.507
702,1.16795,10141.507
703,1.169617,10086.819
704,1.171283,10034.069
705,1.17295,9981.99
706,1.174617,9981.99
707,1.176283,9927.824000000001
708,1.17795,9873.434999999999
709,1.179617,9813.531999999999
710,1.181283,9813.531999999999
711,1.18295,9758.025
712,1.184617,9700.135
713,1.186283,9644.628000000001
714,1.18795,9644.628000000001
715,1.189617,9592.398999999999
716,1.191283,9536.147000000001
717,1.19295,9536.147000000001
718,1.1946,9485.707
719,1.196267,9433.627
720,1.197933,9382.963
721,1.1996,9382.963
722,1.201267,9334.534
723,1.202933,9280.07
724,1.2046,9225.16
725,1.20625,9225.16
726,1.207917,9170.174999999999
727,1.209583,9114.370000000001
728,1.21125,9064.450999999999
729,1.212917,9064.450999999999
730,1.214583,9017.289000000001
731,1.21625,8969.754000000001
732,1.217917,8969.754000000001
733,1.219583,8924.678
734,1.221367,8874.387000000001
735,1.222917,8824.317999999999
736,1.224583,8824.317999999999
737,1.22625,8775.441999999999
738,1.227917,8725.896000000001
739,1.229583,8679.777
740,1.23125,8679.777
741,1.232917,8630.529
742,1.234583,8583.067999999999
743,1.23625,8539.558000000001
744,1.238017,8539.558000000001
745,1.239583,8493.065000000001
746,1.24125,8447.021000000001
747,1.242917,8447.021000000001
748,1.244583,8403.063
749,1.24625,8356.646000000001
750,1.247917,8310.824000000001
751,1.249583,8310.824000000001
752,1.25125,8267.686
753,1.252933,8223.653
754,1.254583,8181.557
755,1.256233,8181.557
756,1.2579,8138.642
757,1.259567,8094.087
758,1.261233,8049.533
759,1.2629,8049.533
760,1.264567,8003.861
761,1.266233,7962.138
762,1.2679,7923.022
763,1.269567,7923.022
764,1.271233,7881.969
765,1.2729,7840.842
766,1.274567,7840.842
767,1.27625,7802.248
768,1.2779,7760.152
769,1.279567,7721.186
770,1.281233,7721.186
771,1.2829,7681.027
772,1.284567,7637.963
773,1.286233,7597.506
774,1.2879,7597.506
775,1.289567,7554.367
776,1.291233,7513.314
777,1.2929,7476.732
778,1.294567,7476.732
779,1.296233,7439.852
780,1.2979,7405.207
781,1.299567,7405.207
782,1.301233,7370.636
783,1.3029,7334.724
784,1.304567,7297.844
785,1.306233,7297.844
786,1.3079,7260.814
787,1.309567,7223.859
788,1.311233,7182.732
789,1.3129,7182.732
790,1.31455,7143.766
791,1.316217,7105.619
792,1.317883,7071.569
793,1.31955,7071.569
794,1.321217,7037.073
795,1.32295,7002.726
796,1.32455,6969.794
797,1.326217,6969.794
798,1.327883,6933.361
799,1.32955,6901.398
800,1.331217,6901.398
801,1.332883,6866.455
802,1.33455,6831.735
803,1.336217,6797.984
804,1.337883,6797.984
805,1.3396,6763.563
806,1.341217,6730.854
807,1.342883,6700.009
808,1.34455,6700.009
809,1.346217,6668.717
810,1.347933,6638.765
811,1.34955,6612.763
812,1.351217,6612.763
813,1.352883,6582.588
814,1.35455,6552.338
815,1.3563,6518.736
816,1.357883,6518.736
817,1.35955,6482.229
818,1.361217,6449.819
819,1.362883,6449.819
820,1.36455,6415.621
821,1.366217,6383.732
822,1.367883,6355.271
823,1.36955,6355.271
824,1.371217,6324.798
825,1.373,6294.325
826,1.374533,6264.672
827,1.3762,6264.672
828,1.377867,6236.956
829,1.379533,6209.388
830,1.3812,6182.864
831,1.382867,6182.864
832,1.384533,6156.638
833,1.3862,6126.985
834,1.387867,6126.985
835,1.389533,6096.586
836,1.391217,6068.2
837,1.392867,6041.378
838,1.394533,6041.378
839,1.3962,6013.736
840,1.397867,5986.839
841,1.399533,5960.018
842,1.4012,5960.018
843,1.402867,5932.45
844,1.404533,5906.895
845,1.4062,5882.084
846,1.407867,5882.084
847,1.409533,5857.944
848,1.4112,5832.762
849,1.412867,5832.762
850,1.41455,5808.175
851,1.4162,5781.427
852,1.417867,5756.169
853,1.419533,5756.169
854,1.4212,5728.304
855,1.422883,5701.11
856,1.424533,5678.013
857,1.4262,5678.013
858,1.427867,5653.054
859,1.429533,5631.745
860,1.4312,5606.636
861,1.432867,5606.636
862,1.434517,5581.006
863,1.436183,5554.855
864,1.43785,5554.855
865,1.439517,5528.182
866,1.441183,5505.458
867,1.44285,5482.882
868,1.444517,5482.882
869,1.446183,5461.201
870,1.44785,5436.018
871,1.449517,5413.368
872,1.451183,5413.368
873,1.45285,5389.675
874,1.454517,5366.355
875,1.456183,5348.399
876,1.457883,5348.399
877,1.459517,5328.879
878,1.461183,5308.39
879,1.46285,5288.05
880,1.464517,5288.05
881,1.466183,5264.729
882,1.46785,5239.025
883,1.469517,5239.025
884,1.471183,5216.822
885,1.47285,5193.576
886,1.474567,5172.64
887,1.476183,5172.64
888,1.47785,5150.214
889,1.479517,5129.129
890,1.481183,5107.149
891,1.48285,5107.149
892,1.484517,5086.81
893,1.486183,5070.195
894,1.48785,5048.439
895,1.489517,5048.439
896,1.4913,5026.385
897,1.49285,5004.853
898,1.494483,5004.853
