"ID","sea_time","fid_signal"
1,0,142.12
2,0.001667,142.358
3,0.003367,142.358
4,0.005,142.753
5,0.006667,142.649
6,0.008333,142.649
7,0.01,142.44
8,0.011667,142.038
9,0.013333,141.367
10,0.015,141.367
11,0.016667,141.211
12,0.018333,141.576
13,0.02,141.777
14,0.021667,141.777
15,0.023333,141.889
16,0.025,141.881
17,0.026667,141.352
18,0.028333,141.352
19,0.03,141.405
20,0.031667,141.464
21,0.033333,141.464
22,0.035,141.367
23,0.036667,141.576
24,0.038317,141.457
25,0.039983,141.457
26,0.041683,141.434
27,0.043317,141.598
28,0.044983,141.554
29,0.04665,141.554
30,0.048317,141.717
31,0.049983,141.911
32,0.05165,142.105
33,0.053317,142.105
34,0.054983,142.202
35,0.05665,141.963
36,0.058317,141.799
37,0.059983,141.799
38,0.061667,141.568
39,0.063317,141.554
40,0.064983,141.554
41,0.06665,141.658
42,0.068317,141.852
43,0.069983,141.867
44,0.07165000000000001,141.867
45,0.07331699999999999,141.867
46,0.07498299999999999,142.068
47,0.07665,141.948
48,0.078333,141.948
49,0.079983,142.172
50,0.08165,142.351
51,0.083317,142.269
52,0.084983,142.269
53,0.08665,142.239
54,0.08831700000000001,142.276
55,0.08998299999999999,142.276
56,0.09165,142.395
57,0.09329999999999999,142.157
58,0.095067,142.097
59,0.096633,142.097
60,0.0983,142.165
61,0.09995,142.068
62,0.101617,142.246
63,0.103283,142.246
64,0.10495,142.232
65,0.106617,141.844
66,0.108283,141.546
67,0.10995,141.546
68,0.111617,141.65
69,0.113283,141.889
70,0.11495,142.209
71,0.116617,142.209
72,0.118283,142.448
73,0.11995,142.276
74,0.121617,142.276
75,0.123283,142.075
76,0.12495,141.896
77,0.126617,141.867
78,0.128283,141.867
79,0.12995,141.986
80,0.131633,142.261
81,0.133283,142.41
82,0.13495,142.41
83,0.136617,142.388
84,0.138283,142.373
85,0.13995,141.852
86,0.141617,141.852
87,0.143283,141.643
88,0.14495,141.658
89,0.146617,141.658
90,0.148283,141.673
91,0.149967,141.948
92,0.151617,142.202
93,0.153283,142.202
94,0.15495,142.001
95,0.156617,141.963
96,0.158267,142.12
97,0.159933,142.12
98,0.1616,142.016
99,0.163267,142.284
100,0.164933,142.224
101,0.1666,142.224
102,0.168267,142.239
103,0.169933,141.963
104,0.1716,141.963
105,0.173267,141.717
106,0.174933,141.822
107,0.1766,141.822
108,0.178267,141.822
109,0.179983,142.165
110,0.1816,142.448
111,0.183267,142.448
112,0.184933,142.448
113,0.1866,142.202
114,0.188267,142.03
115,0.189933,142.15
116,0.1916,142.15
117,0.193267,142.179
118,0.194933,142.306
119,0.1966,142.597
120,0.198267,142.597
121,0.199933,142.626
122,0.2016,142.835
123,0.203267,142.835
124,0.204933,142.91
125,0.2066,142.463
126,0.208267,142.261
127,0.209933,142.261
128,0.2116,142.008
129,0.213383,141.956
130,0.214933,142.239
131,0.216583,142.239
132,0.21825,142.217
133,0.21995,141.971
134,0.221583,141.934
135,0.22325,141.934
136,0.224917,142.097
137,0.226583,142.44
138,0.228267,142.44
139,0.229917,142.597
140,0.231583,142.716
141,0.23325,142.679
142,0.234917,142.679
143,0.236583,142.246
144,0.23825,142.075
145,0.239917,141.688
146,0.241583,141.688
147,0.24325,141.241
148,0.244917,141.382
149,0.246583,141.501
150,0.24825,141.501
151,0.249917,141.576
152,0.251583,141.993
153,0.25325,141.859
154,0.254917,141.859
155,0.256583,142.142
156,0.25825,142.53
157,0.259917,142.53
158,0.261583,142.485
159,0.26325,142.82
160,0.264917,142.492
161,0.266583,142.492
162,0.26825,142.135
163,0.269917,142.202
164,0.271583,141.867
165,0.27325,141.867
166,0.274917,141.956
167,0.276583,142.172
168,0.278233,142.209
169,0.2799,142.209
170,0.281567,142.239
171,0.283233,142.448
172,0.2849,142.448
173,0.286567,142.299
174,0.288233,141.747
175,0.2899,141.814
176,0.291567,141.814
177,0.293233,141.65
178,0.2949,141.762
179,0.296567,142.06
180,0.298317,142.06
181,0.2999,142.224
182,0.301567,142.179
183,0.303233,141.993
184,0.3049,141.993
185,0.306567,142.179
186,0.308233,141.904
187,0.3099,141.993
188,0.311567,141.993
189,0.313233,142.187
190,0.3149,142.358
191,0.316567,142.358
192,0.318233,142.686
193,0.3199,142.88
194,0.321567,143.379
195,0.323233,143.379
196,0.3249,143.982
197,0.326567,144.616
198,0.328233,145.912
199,0.3299,145.912
200,0.331667,147.41
201,0.333233,149.123
202,0.3349,151.88
203,0.336567,151.88
204,0.338217,154.667
205,0.339883,158.198
206,0.34155,158.198
207,0.343217,162.847
208,0.344883,168.212
209,0.34655,175.2
210,0.348217,175.2
211,0.349883,183.448
212,0.35155,193.179
213,0.353217,204.951
214,0.354883,204.951
215,0.35655,219.01
216,0.358217,235.49
217,0.3599,254.43
218,0.36155,254.43
219,0.363217,276.037
220,0.364933,300.393
221,0.36655,327.922
222,0.368217,327.922
223,0.369883,358.894
224,0.37155,393.257
225,0.373217,393.257
226,0.374883,431.366
227,0.37655,473.03
228,0.378217,518.6799999999999
229,0.379883,518.6799999999999
230,0.38155,568.6130000000001
231,0.383217,622.451
232,0.384867,681.326
233,0.386533,681.326
234,0.3882,744.149
235,0.389867,811.473
236,0.391533,883.579
237,0.3932,883.579
238,0.394867,960.067
239,0.396517,1041.412
240,0.398183,1041.412
241,0.39985,1127.578
242,0.401517,1218.915
243,0.403183,1315.467
244,0.40485,1315.467
245,0.406517,1417.972
246,0.408183,1526.073
247,0.40985,1640.044
248,0.411517,1640.044
249,0.413183,1760.453
250,0.41485,1887.538
251,0.416583,2022.438
252,0.418183,2022.438
253,0.41985,2165.511
254,0.421517,2316.594
255,0.423183,2316.594
256,0.42485,2476.625
257,0.426517,2646.186
258,0.428183,2826.065
259,0.42985,2826.065
260,0.431517,3017.366
261,0.433183,3220.812
262,0.43485,3436.781
263,0.436533,3436.781
264,0.438183,3665.291
265,0.43985,3906.593
266,0.441517,4160.494
267,0.443183,4160.494
268,0.44485,4426.092
269,0.446517,4702.956
270,0.448183,4990.593
271,0.44995,4990.593
272,0.451517,5286.679
273,0.453183,5589.888
274,0.45485,5589.888
275,0.456517,5897.708
276,0.458167,6207.265
277,0.459833,6515.734
278,0.4615,6515.734
279,0.463167,6819.979
280,0.464833,7117.033
281,0.4665,7403.381
282,0.468167,7403.381
283,0.469833,7675.67
284,0.4715,7930.696
285,0.473167,8164.823
286,0.474833,8164.823
287,0.4765,8375.108
288,0.478167,8559.421
289,0.479833,8559.421
290,0.4815,8715.674000000001
291,0.483167,8842.141
292,0.484833,8937.419
293,0.4865,8937.419
294,0.488167,9000.793
295,0.489833,9032.138000000001
296,0.4915,9031.467000000001
297,0.493167,9031.467000000001
298,0.494833,8999.937
299,0.4965,8938.691999999999
300,0.498167,8848.883
301,0.499833,8848.883
302,0.5014999999999999,8733.130999999999
303,0.503167,8593.262000000001
304,0.504833,8431.346
305,0.5065,8431.346
306,0.508167,8249.610000000001
307,0.509833,8050.486
308,0.5115,8050.486
309,0.513167,7836.677
310,0.514833,7610.321
311,0.516517,7374.563
312,0.51815,7374.563
313,0.519817,7131.42
314,0.521483,6882.437
315,0.52315,6630.592
316,0.524817,6630.592
317,0.526483,6376.751
318,0.52815,6122.828
319,0.529817,5870.774
320,0.531483,5870.774
321,0.53315,5621.552
322,0.534833,5376.6
323,0.536483,5376.6
324,0.53815,5136.743
325,0.539817,4903.339
326,0.541483,4676.528
327,0.54315,4676.528
328,0.544817,4456.9
329,0.5464830000000001,4245.43
330,0.54815,4041.508
331,0.549817,4041.508
332,0.551583,3846.012
333,0.55315,3659.032
334,0.554817,3479.987
335,0.5564829999999999,3479.987
336,0.55815,3309.272
337,0.559817,3146.887
338,0.561483,2992.682
339,0.56315,2992.682
340,0.564817,2846.71
341,0.566483,2708.763
342,0.56825,2708.763
343,0.569817,2578.02
344,0.571483,2454.46
345,0.57315,2337.776
346,0.574817,2337.776
347,0.576483,2227.411
348,0.578133,2123.326
349,0.5798,2025.224
350,0.5815,2025.224
351,0.583133,1933.001
352,0.5848,1845.911
353,0.586467,1763.977
354,0.588133,1763.977
355,0.5898,1686.819
356,0.591467,1613.766
357,0.593133,1613.766
358,0.5948,1545.101
359,0.596467,1480.438
360,0.598133,1419.544
361,0.5998,1419.544
362,0.601467,1361.936
363,0.603133,1307.845
364,0.6048,1256.682
365,0.606467,1256.682
366,0.60815,1208.611
367,0.6098,1163.334
368,0.611467,1120.359
369,0.613133,1120.359
370,0.6148,1079.872
371,0.616467,1040.958
372,0.618133,1040.958
373,0.6198,1004.107
374,0.621467,969.194
375,0.623133,936.24
376,0.6248,936.24
377,0.626467,905.193
378,0.6281330000000001,875.443
379,0.6298,847.287
380,0.631467,847.287
381,0.6331329999999999,820.033
382,0.6348,793.934
383,0.636467,769.5410000000001
384,0.638117,769.5410000000001
385,0.639783,745.974
386,0.64145,723.928
387,0.643117,703.037
388,0.644783,703.037
389,0.646483,682.943
390,0.6481170000000001,663.713
391,0.649783,663.713
392,0.65145,644.982
393,0.6531169999999999,627.324
394,0.654783,610.165
395,0.65645,610.165
396,0.658117,593.856
397,0.659783,578.076
398,0.66145,562.496
399,0.663117,562.496
400,0.664783,547.893
401,0.66645,533.819
402,0.668117,520.617
403,0.669833,520.617
404,0.67145,507.832
405,0.673117,495.531
406,0.674783,495.531
407,0.676433,483.93
408,0.6781,472.702
409,0.679767,461.891
410,0.681433,461.891
411,0.6831,451.714
412,0.684767,441.633
413,0.6865329999999999,431.679
414,0.6881,431.679
415,0.689767,422.247
416,0.6914670000000001,413.045
417,0.6931,404.172
418,0.694767,404.172
419,0.696417,395.723
420,0.698083,387.676
421,0.69975,379.525
422,0.701417,379.525
423,0.703217,371.985
424,0.70475,364.825
425,0.706417,364.825
426,0.708083,358.105
427,0.709767,351.705
428,0.711417,345.305
429,0.713083,345.305
430,0.71475,339.165
431,0.716417,333.19
432,0.718083,327.215
433,0.719783,327.215
434,0.721417,321.344
435,0.723083,315.644
436,0.72475,309.87
437,0.726417,309.87
438,0.728083,304.691
439,0.72975,299.908
440,0.731417,299.908
441,0.733083,295.423
442,0.73475,291.176
443,0.736417,286.818
444,0.738083,286.818
445,0.73975,282.571
446,0.741417,278.398
447,0.743083,274.174
448,0.74475,274.174
449,0.746417,270.434
450,0.7480830000000001,266.723
451,0.74975,263.065
452,0.751417,263.065
453,0.7530829999999999,259.526
454,0.75475,255.927
455,0.756417,255.927
456,0.758067,252.493
457,0.759733,249.051
458,0.7614,246.197
459,0.7630670000000001,246.197
460,0.764733,243.567
461,0.7664,240.81
462,0.7680670000000001,238.21
463,0.769733,238.21
464,0.7714,235.707
465,0.7730669999999999,232.801
466,0.774733,230.558
467,0.7764,230.558
468,0.778067,228.249
469,0.779733,225.544
470,0.7814,223.525
471,0.783067,223.525
472,0.784733,220.925
473,0.7864,218.883
474,0.78815,217.147
475,0.789733,217.147
476,0.7914,214.927
477,0.793067,213.027
478,0.794733,213.027
479,0.7964,210.881
480,0.798067,208.87
481,0.799733,207.35
482,0.8014,207.35
483,0.803067,205.964
484,0.804767,204.384
485,0.8064,202.686
486,0.808067,202.686
487,0.809733,201.017
488,0.8114,199.318
489,0.813067,199.318
490,0.814733,197.947
491,0.8164,196.777
492,0.8180500000000001,195.384
493,0.819717,195.384
494,0.8215170000000001,194.088
495,0.8230499999999999,192.806
496,0.824717,191.778
497,0.826383,191.778
498,0.82805,190.631
499,0.829717,189.625
500,0.831383,188.634
501,0.83305,188.634
502,0.834717,187.308
503,0.836383,186.116
504,0.83805,184.909
505,0.839717,184.909
506,0.841383,183.612
507,0.84305,182.323
508,0.8447170000000001,182.323
509,0.846383,181.317
510,0.84805,180.252
511,0.8497169999999999,179.142
512,0.851383,179.142
513,0.85305,178.255
514,0.8547169999999999,177.398
515,0.856383,176.921
516,0.85805,176.921
517,0.859717,176.355
518,0.8614000000000001,175.998
519,0.86305,175.238
520,0.864717,175.238
521,0.866383,174.463
522,0.86805,173.785
523,0.869717,173.785
524,0.871383,172.943
525,0.87305,172.406
526,0.874717,171.669
527,0.876383,171.669
528,0.878033,171.073
529,0.8797,170.447
530,0.881367,169.881
531,0.883033,169.881
532,0.8847,169.404
533,0.886367,169.083
534,0.888033,168.733
535,0.8897,168.733
536,0.891367,168.324
537,0.893033,167.847
538,0.8947000000000001,167.005
539,0.896367,167.005
540,0.898033,166.29
541,0.8997000000000001,165.5
542,0.901367,165.5
543,0.903033,164.941
544,0.9046999999999999,165.008
545,0.9064,164.479
546,0.908033,164.479
547,0.9097,163.92
548,0.911367,163.205
549,0.913033,162.46
550,0.9147,162.46
551,0.916367,162.348
552,0.918033,162.423
553,0.9197,162.326
554,0.921367,162.326
555,0.9231,161.678
556,0.9247,160.962
557,0.9263670000000001,160.962
558,0.928033,160.493
559,0.9297,159.986
560,0.9313669999999999,159.577
561,0.933033,159.577
562,0.9347,159.435
563,0.9363669999999999,159.055
564,0.9380500000000001,158.839
565,0.9398,158.839
566,0.94135,159.1
567,0.943017,158.779
568,0.9446830000000001,158.72
569,0.94635,158.72
570,0.948017,158.675
571,0.9496830000000001,158.235
572,0.95135,158.064
573,0.953017,158.064
574,0.9546829999999999,157.855
575,0.95635,157.282
576,0.958017,157.282
577,0.959683,157.2
578,0.96135,156.939
579,0.963017,156.209
580,0.964683,156.209
581,0.96635,155.948
582,0.968,155.635
583,0.9696669999999999,155.598
584,0.971333,155.598
585,0.973,155.494
586,0.974667,155.255
587,0.976333,155.151
588,0.978,155.151
589,0.979667,154.92
590,0.981333,155.121
591,0.983,155.121
592,0.984667,155.345
593,0.986333,155.009
594,0.988,154.786
595,0.989667,154.786
596,0.991333,154.652
597,0.993,154.316
598,0.994667,154.242
599,0.996333,154.242
600,0.997983,154.123
601,0.99965,153.631
602,1.001317,153.564
603,1.003,153.564
604,1.0047,153.385
605,1.006317,153.139
606,1.007983,153.139
607,1.00965,152.878
608,1.011317,152.744
609,1.012983,152.476
610,1.01465,152.476
611,1.016317,152.215
612,1.017983,152.29
613,1.01965,152.007
614,1.021317,152.007
615,1.022983,151.902
616,1.02465,151.746
617,1.026317,151.619
618,1.027983,151.619
619,1.02965,151.739
620,1.031317,151.649
621,1.032983,151.642
622,1.03465,151.642
623,1.036317,151.56
624,1.037983,151.247
625,1.03965,151.247
626,1.041317,151.09
627,1.042983,151.232
628,1.04465,151.068
629,1.046317,151.068
630,1.047983,150.889
631,1.04965,150.777
632,1.051317,150.576
633,1.052983,150.576
634,1.05465,150.897
635,1.0563,151.113
636,1.0581,151.165
637,1.059633,151.165
638,1.0613,150.934
639,1.062967,150.517
640,1.064633,150.517
641,1.0663,150.338
642,1.067967,150.159
643,1.069633,150.204
644,1.0713,150.204
645,1.072967,150.077
646,1.074633,149.667
647,1.076317,149.377
648,1.078,149.377
649,1.079633,149.064
650,1.0813,148.796
651,1.082967,148.93
652,1.084633,148.93
653,1.0863,149.004
654,1.087967,149.22
655,1.089633,149.541
656,1.0913,149.541
657,1.092967,149.384
658,1.094633,149.541
659,1.0963,149.541
660,1.097967,149.667
661,1.099633,149.466
662,1.1013,149.317
663,1.102967,149.317
664,1.104633,149.094
665,1.1063,148.699
666,1.107967,148.684
667,1.109633,148.684
668,1.1113,148.49
669,1.112967,148.185
670,1.114633,147.961
671,1.1163,147.961
672,1.11795,147.827
673,1.119617,148.073
674,1.121283,148.073
675,1.12295,148.244
676,1.124617,148.647
677,1.126283,148.743
678,1.12795,148.743
679,1.129617,148.699
680,1.131283,148.714
681,1.13295,148.505
682,1.134617,148.505
683,1.136283,148.349
684,1.13795,148.08
685,1.139617,148.095
686,1.141283,148.095
687,1.142983,147.797
688,1.144617,147.671
689,1.146283,147.775
690,1.14795,147.775
691,1.149617,147.603
692,1.151317,147.961
693,1.15295,147.961
694,1.154617,148.08
695,1.156283,148.177
696,1.15795,148.17
697,1.159617,148.17
698,1.161283,147.954
699,1.16295,147.574
700,1.164617,147.335
701,1.1663,147.335
702,1.16795,147.209
703,1.169617,146.97
704,1.171283,147.142
705,1.17295,147.142
706,1.174617,147.119
707,1.1764,147.037
708,1.177933,147.037
709,1.1796,147.387
710,1.181267,147.469
711,1.182933,147.499
712,1.1846,147.499
713,1.186267,147.685
714,1.187933,147.365
715,1.1896,147.164
716,1.191267,147.164
717,1.192933,147.179
718,1.1946,146.933
719,1.196267,146.955
720,1.197933,146.955
721,1.1996,147.097
722,1.201267,147.007
723,1.202933,147.007
724,1.2046,147.261
725,1.206267,147.052
726,1.207933,146.963
727,1.2096,146.963
728,1.211267,146.985
729,1.212933,146.575
730,1.2146,146.583
731,1.216267,146.583
732,1.217933,146.233
733,1.2196,145.89
734,1.221267,145.808
735,1.222933,145.808
736,1.2246,145.882
737,1.226267,146.292
738,1.227933,146.583
739,1.2296,146.583
740,1.231267,146.739
741,1.232933,146.56
742,1.2346,146.56
743,1.236267,146.136
744,1.237917,146.002
745,1.239583,145.972
746,1.24125,145.972
747,1.242917,146.143
748,1.244583,146.277
749,1.24625,146.195
750,1.247917,146.195
751,1.249583,146.352
752,1.25125,146.233
753,1.252917,146.024
754,1.254583,146.024
755,1.25625,145.942
756,1.257917,145.786
757,1.259567,145.786
758,1.261283,145.718
759,1.2629,145.599
760,1.264567,145.532
761,1.266233,145.532
762,1.2679,145.622
763,1.269567,145.502
764,1.271233,145.525
765,1.2729,145.525
766,1.274567,145.651
767,1.276233,145.607
768,1.2779,145.867
769,1.279567,145.867
770,1.281233,146.188
771,1.2829,146.203
772,1.284567,146.322
773,1.286233,146.322
774,1.2879,146.173
775,1.289567,145.845
776,1.291233,145.845
777,1.2929,145.718
778,1.294683,145.279
779,1.296217,144.981
780,1.297883,144.981
781,1.29955,145.07
782,1.301217,145.212
783,1.302883,145.413
784,1.30455,145.413
785,1.306217,145.547
786,1.307883,145.599
787,1.30955,145.301
788,1.311217,145.301
789,1.312883,145.227
790,1.31455,145.301
791,1.316217,145.301
792,1.317883,145.189
793,1.31955,145.48
794,1.321217,145.353
795,1.322883,145.353
796,1.32455,145.465
797,1.326217,145.823
798,1.3279,145.711
799,1.32955,145.711
800,1.331217,145.607
801,1.332883,145.383
802,1.33455,144.921
803,1.336217,144.921
804,1.337883,144.944
805,1.33955,145.316
806,1.341233,145.279
807,1.342883,145.279
808,1.34455,145.406
809,1.346217,145.584
810,1.347883,145.584
811,1.34955,145.271
812,1.351217,145.54
813,1.352883,145.867
814,1.35455,145.867
815,1.356217,145.592
816,1.357867,145.517
817,1.359567,145.249
818,1.3612,145.249
819,1.362867,144.802
820,1.364533,144.772
821,1.3662,144.765
822,1.367867,144.765
823,1.369533,144.631
824,1.3712,144.43
825,1.372867,144.43
826,1.374533,144.325
827,1.3762,144.295
828,1.377867,144.452
829,1.379567,144.452
830,1.3812,144.675
831,1.382867,144.988
832,1.384533,145.242
833,1.3862,145.242
834,1.387867,145.115
835,1.389533,145.085
836,1.3912,144.854
837,1.392867,144.854
838,1.394533,144.906
839,1.396267,145.085
840,1.397867,145.085
841,1.399533,145.338
842,1.4012,145.458
843,1.402867,145.286
844,1.404533,145.286
845,1.4062,145.115
846,1.407867,145.137
847,1.40955,145.189
848,1.4112,145.189
849,1.412967,145.093
850,1.414533,145.212
851,1.4162,144.579
852,1.41785,144.579
853,1.419517,144.243
854,1.421183,144.459
855,1.42285,144.31
856,1.424517,144.31
857,1.426183,144.623
858,1.42785,144.854
859,1.42965,144.564
860,1.431183,144.564
861,1.432867,144.668
862,1.434517,144.75
863,1.436183,144.75
864,1.43785,144.757
865,1.439517,144.899
866,1.441183,144.809
867,1.44285,144.809
868,1.444517,144.832
869,1.446183,144.683
870,1.44785,144.832
871,1.449517,144.832
872,1.451183,145.048
873,1.45285,145.063
874,1.454517,145.063
875,1.456183,145.078
876,1.45785,144.966
877,1.459517,144.69
878,1.461183,144.69
879,1.46285,144.43
880,1.464517,144.273
881,1.466183,144.161
882,1.46785,144.161
883,1.469517,144.258
884,1.471183,144.191
885,1.47285,144.407
886,1.474517,144.407
887,1.476183,144.348
888,1.477833,144.087
889,1.4795,144.444
890,1.481167,144.444
891,1.482833,144.608
892,1.4845,144.66
893,1.486167,144.66
894,1.487833,145.115
895,1.4895,145.234
896,1.491167,144.854
897,1.492833,144.854
898,1.494517,144.877
899,1.496167,144.526
900,1.4979,144.474
901,1.4995,144.474
902,1.501167,144.638
903,1.502833,144.638
904,1.5045,144.713
905,1.506167,144.713
906,1.507833,144.37
907,1.5095,144.206
908,1.511167,144.206
909,1.512833,144.176
910,1.514567,144.266
911,1.516167,144.154
912,1.517833,144.154
913,1.5195,143.938
914,1.521167,143.684
915,1.522833,143.774
916,1.5245,143.774
917,1.526167,144.221
918,1.527833,144.809
919,1.5295,145.018
920,1.531167,145.018
921,1.532833,144.817
922,1.5345,144.586
923,1.53615,144.094
924,1.537817,144.094
925,1.539483,143.93
926,1.54115,143.856
927,1.542817,143.856
928,1.544483,143.602
929,1.54615,143.573
930,1.547933,143.737
931,1.549467,143.737
932,1.551133,143.67
933,1.5528,143.982
934,1.554467,144.266
935,1.556133,144.266
936,1.5578,144.303
937,1.559467,144.37
938,1.561133,144.273
939,1.5628,144.273
940,1.564467,144.131
941,1.566133,144.057
942,1.567817,144.057
943,1.5695,144.109
944,1.571133,143.915
945,1.5728,143.744
946,1.574467,143.744
947,1.576133,143.535
948,1.5778,143.401
949,1.579467,143.349
950,1.581133,143.349
951,1.5828,143.774
952,1.584467,143.826
953,1.586133,143.759
954,1.5878,143.759
