"ID","sea_time","fid_signal"
1,0,1180.023
2,0.001667,1177.117
3,0.003333,1178.011
4,0.005,1180.097
5,0.006667,1180.097
6,0.008333,1181.215
7,0.010033,1180.47
8,0.011733,1176.372
9,0.013333,1176.372
10,0.015,1173.317
11,0.016667,1173.765
12,0.018333,1177.639
13,0.02,1177.639
14,0.021667,1177.564
15,0.023333,1178.384
16,0.025,1178.384
17,0.026667,1178.384
18,0.028333,1177.341
19,0.03,1177.117
20,0.031667,1177.117
21,0.033333,1177.192
22,0.034983,1175.851
23,0.03665,1178.235
24,0.038317,1178.235
25,0.040067,1180.321
26,0.04165,1178.607
27,0.043317,1181.439
28,0.044983,1181.439
29,0.04665,1180.321
30,0.0483,1181.215
31,0.049967,1181.215
32,0.051633,1181.588
33,0.0533,1181.066
34,0.054967,1180.321
35,0.056633,1180.321
36,0.0583,1181.811
37,0.059967,1182.407
38,0.061633,1181.29
39,0.0633,1181.29
40,0.064967,1182.035
41,0.066633,1179.054
42,0.0683,1178.309
43,0.069967,1178.309
44,0.071633,1180.545
45,0.07340000000000001,1178.607
46,0.07496700000000001,1181.141
47,0.07663300000000001,1181.141
48,0.07829999999999999,1183.897
49,0.079967,1180.545
50,0.081633,1180.545
51,0.0833,1181.588
52,0.084967,1182.258
53,0.086633,1180.917
54,0.08833299999999999,1180.917
55,0.08996700000000001,1181.141
56,0.09163300000000001,1182.78
57,0.09329999999999999,1179.576
58,0.09495000000000001,1179.576
59,0.09661699999999999,1180.47
60,0.098283,1182.705
61,0.09995,1181.439
62,0.101617,1181.439
63,0.103283,1182.184
64,0.10495,1183.152
65,0.106617,1183.152
66,0.108283,1184.121
67,0.10995,1183.227
68,0.111617,1182.631
69,0.113283,1182.631
70,0.11495,1177.862
71,0.116617,1175.031
72,0.118283,1174.957
73,0.11995,1174.957
74,0.121617,1175.925
75,0.123283,1174.957
76,0.12495,1174.212
77,0.126617,1174.212
78,0.128283,1175.18
79,0.12995,1174.212
80,0.131617,1180.097
81,0.133283,1180.097
82,0.13495,1179.948
83,0.136617,1180.023
84,0.138283,1180.023
85,0.13995,1180.246
86,0.141617,1177.341
87,0.143283,1176.745
88,0.14495,1176.745
89,0.146617,1177.341
90,0.148283,1181.29
91,0.14995,1183.003
92,0.151617,1183.003
93,0.153267,1184.195
94,0.154967,1181.29
95,0.1566,1174.733
96,0.15835,1174.733
97,0.159933,1172.647
98,0.1616,1173.615
99,0.163267,1173.615
100,0.164933,1173.69
101,0.1666,1176.447
102,0.168267,1179.203
103,0.169933,1179.203
104,0.1716,1181.215
105,0.173267,1186.058
106,0.174933,1185.909
107,0.1766,1185.909
108,0.178267,1183.972
109,0.179933,1180.321
110,0.1816,1176.447
111,0.183267,1176.447
112,0.184933,1177.788
113,0.1866,1177.266
114,0.188267,1181.29
115,0.189933,1181.29
116,0.191717,1184.791
117,0.193267,1188.07
118,0.194933,1188.07
119,0.1966,1188.591
120,0.198267,1185.164
121,0.199933,1182.631
122,0.2016,1182.631
123,0.203267,1177.788
124,0.204933,1177.639
125,0.2066,1178.458
126,0.208267,1178.458
127,0.209933,1178.98
128,0.2116,1178.607
129,0.21325,1180.768
130,0.214917,1180.768
131,0.216583,1181.737
132,0.21825,1181.141
133,0.219917,1181.141
134,0.221583,1181.066
135,0.22325,1178.458
136,0.224917,1173.988
137,0.226583,1173.988
138,0.22825,1173.392
139,0.229967,1176.149
140,0.231583,1176.596
141,0.23325,1176.596
142,0.234917,1179.352
143,0.236583,1181.886
144,0.23825,1181.066
145,0.239917,1181.066
146,0.241583,1183.823
147,0.24325,1183.152
148,0.244917,1181.96
149,0.246583,1181.96
150,0.248267,1182.109
151,0.249917,1179.948
152,0.251583,1179.948
153,0.25325,1182.109
154,0.254917,1181.439
155,0.256583,1177.937
156,0.25825,1177.937
157,0.259917,1176
158,0.261583,1174.435
159,0.26325,1170.486
160,0.264917,1170.486
161,0.266583,1173.392
162,0.26825,1175.329
163,0.269917,1175.478
164,0.271583,1175.478
165,0.27325,1179.725
166,0.274917,1180.693
167,0.27665,1179.799
168,0.278233,1179.799
169,0.2799,1180.172
170,0.281567,1182.929
171,0.283233,1182.929
172,0.2849,1182.854
173,0.286567,1184.642
174,0.288233,1182.929
175,0.2899,1182.929
176,0.291567,1179.725
177,0.29325,1179.054
178,0.2949,1177.564
179,0.296567,1177.564
180,0.298233,1178.98
181,0.2999,1176.968
182,0.301567,1176.968
183,0.303233,1177.564
184,0.3049,1176.894
185,0.306567,1178.16
186,0.308233,1178.16
187,0.310017,1181.737
188,0.311567,1180.396
189,0.313233,1179.352
190,0.3149,1179.352
191,0.316567,1177.937
192,0.318233,1178.533
193,0.3199,1180.097
194,0.321567,1180.097
195,0.323233,1183.003
196,0.3249,1181.662
197,0.326567,1181.29
198,0.328233,1181.29
199,0.3299,1180.246
200,0.331567,1180.768
201,0.333233,1180.768
202,0.334883,1181.588
203,0.33655,1180.545
204,0.338217,1181.96
205,0.339867,1181.96
206,0.341533,1180.396
207,0.3432,1181.215
208,0.344867,1179.278
209,0.346533,1179.278
210,0.3482,1178.756
211,0.349867,1175.776
212,0.351533,1176.149
213,0.3532,1176.149
214,0.354867,1178.458
215,0.356533,1179.65
216,0.3582,1179.65
217,0.359867,1182.407
218,0.361533,1182.109
219,0.3632,1184.046
220,0.364867,1184.046
221,0.366533,1185.611
222,0.3682,1189.038
223,0.369867,1193.807
224,0.371533,1193.807
225,0.3732,1194.403
226,0.374883,1198.724
227,0.376533,1202.151
228,0.3782,1202.151
229,0.379867,1204.982
230,0.381533,1207.739
231,0.3832,1210.123
232,0.384867,1210.123
233,0.386533,1213.923
234,0.3882,1219.884
235,0.389867,1219.884
236,0.391533,1227.26
237,0.393183,1232.773
238,0.3949,1240.969
239,0.396517,1240.969
240,0.398183,1245.365
241,0.39985,1251.027
242,0.401517,1256.019
243,0.403183,1256.019
244,0.40485,1260.638
245,0.406517,1269.877
246,0.408183,1276.135
247,0.40985,1276.135
248,0.411633,1284.108
249,0.413183,1291.111
250,0.41485,1291.111
251,0.416517,1292.229
252,0.418183,1300.424
253,0.41985,1306.161
254,0.421517,1306.161
255,0.4232,1312.494
256,0.42485,1322.478
257,0.426517,1328.513
258,0.4283,1328.513
259,0.42985,1338.124
260,0.431517,1346.916
261,0.433183,1355.112
262,0.43485,1355.112
263,0.436517,1361.892
264,0.438183,1366.064
265,0.43985,1370.013
266,0.441533,1370.013
267,0.443183,1372.471
268,0.44485,1378.879
269,0.446517,1378.879
270,0.448183,1380.071
271,0.44985,1379.922
272,0.451517,1379.624
273,0.453183,1379.624
274,0.454833,1376.271
275,0.4565,1376.197
276,0.458167,1377.687
277,0.459833,1377.687
278,0.4615,1380.816
279,0.463167,1383.796
280,0.464833,1385.734
281,0.4665,1385.734
282,0.468167,1383.647
283,0.469833,1381.04
284,0.4715,1381.04
285,0.473167,1375.973
286,0.474833,1368.672
287,0.4765,1369.119
288,0.478167,1369.119
289,0.479833,1364.648
290,0.4815,1359.88
291,0.483167,1359.209
292,0.484833,1359.209
293,0.4865,1350.269
294,0.488167,1348.555
295,0.489833,1348.555
296,0.4915,1348.555
297,0.493167,1346.841
298,0.494833,1346.692
299,0.4965,1346.692
300,0.498167,1340.21
301,0.499833,1332.462
302,0.5014999999999999,1325.756
303,0.503167,1325.756
304,0.504833,1319.796
305,0.5065,1312.792
306,0.508167,1308.247
307,0.509833,1308.247
308,0.5115,1301.095
309,0.513167,1295.432
310,0.514817,1291.633
311,0.516483,1291.633
312,0.51815,1283.661
313,0.519817,1278.445
314,0.521483,1273.379
315,0.52315,1273.379
316,0.524817,1269.653
317,0.526483,1269.877
318,0.52815,1269.877
319,0.5299,1265.928
320,0.531483,1261.532
321,0.53315,1256.913
322,0.534817,1256.913
323,0.536483,1253.039
324,0.53815,1249.909
325,0.539817,1246.557
326,0.541483,1246.557
327,0.54315,1244.545
328,0.544817,1241.267
329,0.546567,1240.894
330,0.54815,1240.894
331,0.549833,1236.126
332,0.5514829999999999,1232.624
333,0.55315,1232.624
334,0.554817,1228.154
335,0.5564829999999999,1222.864
336,0.55815,1223.013
337,0.559817,1223.013
338,0.561483,1221.076
339,0.563267,1220.256
340,0.564817,1219.66
341,0.566483,1219.66
342,0.56815,1219.511
343,0.569817,1218.99
344,0.571483,1215.339
345,0.57315,1215.339
346,0.5748,1212.135
347,0.576467,1208.186
348,0.578133,1206.1
349,0.5798,1206.1
350,0.581467,1205.28
351,0.583167,1203.865
352,0.5848,1203.865
353,0.586467,1205.653
354,0.588133,1204.908
355,0.5898,1204.461
356,0.591467,1204.461
357,0.593133,1205.951
358,0.5948,1205.206
359,0.596467,1206.323
360,0.598133,1206.323
361,0.5998,1206.174
362,0.601467,1205.727
363,0.603133,1203.939
364,0.6048,1203.939
365,0.606467,1201.63
366,0.608133,1201.257
367,0.6098,1201.257
368,0.611467,1202.375
369,0.613133,1202.151
370,0.6148,1203.12
371,0.616467,1203.12
372,0.618133,1204.088
373,0.6198,1202.3
374,0.621467,1204.759
375,0.623133,1204.759
376,0.6248,1204.833
377,0.626467,1204.461
378,0.62815,1205.876
379,0.6298,1205.876
380,0.631433,1203.269
381,0.6331,1201.928
382,0.634767,1201.928
383,0.636433,1204.759
384,0.6381,1207.814
385,0.639767,1208.037
386,0.641433,1208.037
387,0.6431,1209.155
388,0.644767,1207.069
389,0.646433,1202.971
390,0.648183,1202.971
391,0.649767,1206.026
392,0.651433,1206.473
393,0.6531,1208.186
394,0.654767,1208.186
395,0.656433,1213.104
396,0.6581,1213.327
397,0.659767,1217.201
398,0.661433,1217.201
399,0.6631,1222.342
400,0.664833,1225.77
401,0.6664330000000001,1225.77
402,0.6681,1226.291
403,0.669767,1229.569
404,0.6714329999999999,1230.985
405,0.6731,1230.985
406,0.674767,1232.624
407,0.676433,1239.181
408,0.6781,1239.851
409,0.679767,1239.851
410,0.6815330000000001,1242.235
411,0.6831,1249.686
412,0.684767,1255.944
413,0.686433,1255.944
414,0.6881,1266.152
415,0.689767,1275.39
416,0.691433,1275.39
417,0.693083,1280.978
418,0.69475,1289.77
419,0.696417,1300.946
420,0.698083,1300.946
421,0.69975,1313.686
422,0.701417,1325.756
423,0.703083,1336.932
424,0.70475,1336.932
425,0.706417,1349.002
426,0.708083,1360.551
427,0.70975,1376.048
428,0.711417,1376.048
429,0.713083,1395.717
430,0.714767,1410.917
431,0.716433,1427.531
432,0.718083,1427.531
433,0.71975,1442.283
434,0.721417,1458.377
435,0.723083,1458.377
436,0.72475,1478.866
437,0.726417,1502.931
438,0.728083,1530.051
439,0.72975,1530.051
440,0.731417,1558.736
441,0.733083,1588.166
442,0.73475,1616.85
443,0.736417,1616.85
444,0.738083,1648.217
445,0.73975,1678.616
446,0.741417,1712.665
447,0.743083,1712.665
448,0.74475,1749.396
449,0.746417,1789.182
450,0.7480830000000001,1789.182
451,0.74975,1831.055
452,0.751417,1875.013
453,0.7530829999999999,1923.069
454,0.754733,1923.069
455,0.7564,1968.741
456,0.758067,2017.319
457,0.759733,2068.281
458,0.7614,2068.281
459,0.7630670000000001,2120.882
460,0.764733,2180.189
461,0.766417,2241.88
462,0.7680670000000001,2241.88
463,0.769733,2305.955
464,0.7714,2370.849
465,0.7730669999999999,2434.626
466,0.774733,2434.626
467,0.7764,2502.501
468,0.778067,2574.101
469,0.779733,2574.101
470,0.7814,2647.564
471,0.783133,2724.975
472,0.784733,2804.175
473,0.7864,2804.175
474,0.7881,2882.332
475,0.789733,2966.747
476,0.7914,3054.142
477,0.793067,3054.142
478,0.794733,3144.219
479,0.7964,3240.332
480,0.798067,3335.178
481,0.7998499999999999,3335.178
482,0.8014,3428.906
483,0.803067,3524.423
484,0.804733,3524.423
485,0.8064,3622.323
486,0.808067,3722.608
487,0.809733,3826.618
488,0.8114,3826.618
489,0.813067,3932.417
490,0.814717,4041.567
491,0.816383,4152.06
492,0.8180500000000001,4152.06
493,0.819717,4265.681
494,0.821383,4377.961
495,0.8230499999999999,4487.485
496,0.824717,4487.485
497,0.8264,4598.871
498,0.82805,4715.919
499,0.829717,4837.587
500,0.831383,4837.587
501,0.83305,4957.989
502,0.834717,5081.892
503,0.836383,5081.892
504,0.83805,5202.368
505,0.839717,5324.483
506,0.841383,5446.896
507,0.84305,5446.896
508,0.8447170000000001,5570.427
509,0.846383,5691.573
510,0.84805,5809.516
511,0.8497169999999999,5809.516
512,0.851383,5934.238
513,0.85305,6055.161
514,0.8547169999999999,6180.853
515,0.856383,6180.853
516,0.85805,6304.83
517,0.859733,6426.945
518,0.861383,6426.945
519,0.86305,6549.507
520,0.864717,6670.729
521,0.866383,6795.749
522,0.86805,6795.749
523,0.869717,6918.758
524,0.871383,7039.606
525,0.87305,7158.592
526,0.8747,7158.592
527,0.876367,7279.813
528,0.878033,7397.011
529,0.8797,7515.401
530,0.881367,7515.401
531,0.883033,7633.939
532,0.8847,7748.38
533,0.886367,7748.38
534,0.888033,7863.492
535,0.8897,7979.274
536,0.891367,8089.989
537,0.893033,8089.989
538,0.8947000000000001,8199.588
539,0.896367,8308.290999999999
540,0.898033,8416.847
541,0.8997000000000001,8416.847
542,0.901383,8524.358
543,0.903033,8630.231
544,0.9046999999999999,8733.794
545,0.906367,8733.794
546,0.908033,8835.048000000001
547,0.9097,8934.811
548,0.911367,9031.816999999999
549,0.913033,9031.816999999999
550,0.9147,9127.781000000001
551,0.916367,9219.944
552,0.9181,9219.944
553,0.9197,9311.438
554,0.921367,9400.844999999999
555,0.923017,9490.177
556,0.924683,9490.177
557,0.92635,9575.112999999999
558,0.928017,9658.411
559,0.929683,9737.014999999999
560,0.93135,9737.014999999999
561,0.9330000000000001,9816.811
562,0.934683,9896.233
563,0.936333,9971.187
564,0.938033,9971.187
565,0.939667,10046.586
566,0.941333,10113.344
567,0.9429999999999999,10113.344
568,0.944667,10179.431
569,0.946333,10245.814
570,0.948,10309.741
571,0.949667,10309.741
572,0.951333,10370.836
573,0.953,10429.993
574,0.954667,10484.606
575,0.956333,10484.606
576,0.958,10537.952
577,0.959667,10589.287
578,0.961333,10635.48
579,0.963,10635.48
580,0.9646670000000001,10685.399
581,0.966333,10730.326
582,0.968,10772.272
583,0.9696669999999999,10772.272
584,0.971333,10813.177
585,0.973,10846.183
586,0.974667,10846.183
587,0.976333,10878.742
588,0.978,10912.27
589,0.979667,10943.338
590,0.981333,10943.338
591,0.983,10973.438
592,0.984667,11003.315
593,0.986333,11027.231
594,0.988,11027.231
595,0.989667,11047.944
596,0.991333,11066.72
597,0.993,11081.174
598,0.99465,11081.174
599,0.996317,11099.279
600,0.997983,11115.894
601,0.99965,11115.894
602,1.001333,11130.273
603,1.003067,11142.194
604,1.004667,11151.582
605,1.006317,11151.582
606,1.007983,11161.641
607,1.00965,11166.632
608,1.011317,11170.06
609,1.012983,11170.06
610,1.01465,11167.303
611,1.016317,11162.832
612,1.017983,11161.491
613,1.01965,11161.491
614,1.021317,11159.256
615,1.022983,11159.032
616,1.02465,11152.849
617,1.026317,11152.849
618,1.027983,11146.963
619,1.02965,11138.171
620,1.031317,11138.171
621,1.032983,11126.995
622,1.03465,11117.533
623,1.036417,11102.11
624,1.037983,11102.11
625,1.03965,11086.762
626,1.041317,11070.594
627,1.042983,11051.446
628,1.04465,11051.446
629,1.046317,11036.023
630,1.047983,11017.77
631,1.04965,10996.387
632,1.051317,10996.387
633,1.052967,10974.705
634,1.054633,10952.354
635,1.0563,10952.354
636,1.057967,10926.947
637,1.059633,10903.403
638,1.0613,10880.009
639,1.062967,10880.009
640,1.064633,10850.206
641,1.0663,10823.16
642,1.067967,10792.315
643,1.069633,10792.315
644,1.0713,10761.022
645,1.072967,10730.997
646,1.074633,10701.045
647,1.076317,10701.045
648,1.078033,10670.647
649,1.079633,10639.429
650,1.0813,10639.429
651,1.082967,10607.466
652,1.084633,10573.566
653,1.0863,10540.56
654,1.087967,10540.56
655,1.089633,10504.425
656,1.0913,10470.896
657,1.092967,10439.381
658,1.094633,10439.381
659,1.0963,10406.971
660,1.097967,10375.902
661,1.099633,10337.457
662,1.1013,10337.457
663,1.102967,10295.659
664,1.104633,10255.575
665,1.1063,10212.809
666,1.107967,10212.809
667,1.109633,10172.874
668,1.1113,10132.566
669,1.112967,10132.566
670,1.114617,10092.407
671,1.116283,10053.143
672,1.11795,10014.251
673,1.119617,10014.251
674,1.12135,9978.115
675,1.12295,9938.701999999999
676,1.124617,9897.724
677,1.126283,9897.724
678,1.12795,9856.671
679,1.129617,9811.370999999999
680,1.131283,9769.499
681,1.13295,9769.499
682,1.134617,9730.234
683,1.136283,9689.182000000001
684,1.137967,9689.182000000001
685,1.139617,9649.694
686,1.141283,9605.959000000001
687,1.14295,9563.789000000001
688,1.144617,9563.789000000001
689,1.146283,9522.885
690,1.14795,9481.981
691,1.14965,9441.897000000001
692,1.151283,9441.897000000001
693,1.15295,9399.727000000001
694,1.154717,9359.120999999999
695,1.156283,9318.144
696,1.15795,9318.144
697,1.159617,9275.079
698,1.161283,9232.907999999999
699,1.16295,9189.174000000001
700,1.164617,9189.174000000001
701,1.166283,9146.183999999999
702,1.16795,9106.323
703,1.169617,9106.323
704,1.171283,9066.388000000001
705,1.172933,9024.067999999999
706,1.1746,8984.432000000001
707,1.176267,8984.432000000001
708,1.177933,8943.228999999999
709,1.1796,8901.581
710,1.181267,8862.019
711,1.182933,8862.019
712,1.1846,8820.966
713,1.186267,8780.360000000001
714,1.187933,8737.146000000001
715,1.1896,8737.146000000001
716,1.191267,8696.02
717,1.192933,8653.103999999999
718,1.1946,8653.103999999999
719,1.196267,8613.84
720,1.197933,8578.523999999999
721,1.1996,8539.036
722,1.201267,8539.036
723,1.202933,8500.367
724,1.2046,8460.059999999999
725,1.206267,8417.517
726,1.207933,8417.517
727,1.2096,8375.645
728,1.211267,8335.039000000001
729,1.212933,8295.773999999999
730,1.2146,8295.773999999999
731,1.21625,8257.925999999999
732,1.217917,8224.397000000001
733,1.219583,8186.698
734,1.22125,8186.698
735,1.222917,8148.104
736,1.224583,8109.51
737,1.22625,8109.51
738,1.227917,8069.575
739,1.229583,8030.906
740,1.23125,7991.344
741,1.2329,7991.344
742,1.234567,7951.26
743,1.236233,7910.877
744,1.2379,7874.146
745,1.2396,7874.146
746,1.241233,7839.128
747,1.2429,7801.503
748,1.244567,7763.132
749,1.246233,7763.132
750,1.2479,7726.848
751,1.249567,7687.36
752,1.251233,7687.36
753,1.2529,7652.342
754,1.254567,7616.431
755,1.256333,7578.358
756,1.2579,7578.358
757,1.259567,7542.595
758,1.261233,7505.641
759,1.2629,7468.76
760,1.264567,7468.76
761,1.266233,7432.401
762,1.2679,7399.842
763,1.269567,7366.389
764,1.271233,7366.389
765,1.272967,7334.426
766,1.274567,7302.314
767,1.276233,7302.314
768,1.2779,7266.775
769,1.279567,7235.408
770,1.281233,7201.88
771,1.2829,7201.88
772,1.284567,7166.192
773,1.286233,7130.28
774,1.2879,7094.815
775,1.289567,7094.815
776,1.291233,7060.841
777,1.2929,7030.964
778,1.2946,6998.554
779,1.296217,6998.554
780,1.297883,6967.038
781,1.29955,6938.428
782,1.301217,6905.272
783,1.302883,6905.272
784,1.30455,6873.458
785,1.306217,6838.888
786,1.307883,6838.888
787,1.30955,6803.945
788,1.311217,6774.366
789,1.312883,6745.979
790,1.31455,6745.979
791,1.316217,6714.538
792,1.317883,6684.438
793,1.31955,6652.176
794,1.321217,6652.176
795,1.322883,6620.586
796,1.32455,6591.901
797,1.326217,6563.216
798,1.327883,6563.216
799,1.32955,6533.861
800,1.331217,6503.91
801,1.332883,6503.91
802,1.33455,6475.821
803,1.336217,6446.093
804,1.337883,6417.11
805,1.33955,6417.11
806,1.341217,6389.246
807,1.342883,6360.784
808,1.34455,6334.186
809,1.346217,6334.186
810,1.347883,6304.085
811,1.34955,6274.506
812,1.351217,6244.629
813,1.352883,6244.629
814,1.354533,6216.914
815,1.3562,6191.06
816,1.35795,6164.834
817,1.35955,6164.834
818,1.3612,6138.161
819,1.362867,6109.774
820,1.364533,6109.774
821,1.366217,6082.654
822,1.367867,6054.267
823,1.369533,6027.222
824,1.3712,6027.222
825,1.372867,6000.847
826,1.374633,5976.334
827,1.3762,5954.802
828,1.377867,5954.802
829,1.379533,5932.599
830,1.3812,5910.471
831,1.382867,5882.01
832,1.384533,5882.01
833,1.3862,5852.878
834,1.387867,5824.119
835,1.389533,5824.119
836,1.391283,5794.764
837,1.392867,5773.529
838,1.394533,5751.401
839,1.3962,5751.401
840,1.397867,5730.092
841,1.399533,5709.305
842,1.4012,5683.601
843,1.402867,5683.601
844,1.404533,5656.481
845,1.4062,5630.404
846,1.407983,5604.029
847,1.409533,5604.029
848,1.4112,5582.422
849,1.412867,5561.858
850,1.414517,5538.314
851,1.416183,5538.314
852,1.41785,5517.304
853,1.419517,5491.078
854,1.421183,5491.078
855,1.42285,5467.162
856,1.424517,5446.449
857,1.426183,5421.862
858,1.42785,5421.862
859,1.429517,5399.287
860,1.431183,5375.892
861,1.43285,5351.528
862,1.43455,5351.528
863,1.436183,5329.251
864,1.43785,5306.304
865,1.439517,5288.497
866,1.441183,5288.497
867,1.44285,5268.827
868,1.444517,5249.158
869,1.446183,5249.158
870,1.44785,5228.817
871,1.449517,5201.325
872,1.451183,5174.726
873,1.45285,5174.726
874,1.454517,5153.716
875,1.456183,5135.462
876,1.457867,5118.847
877,1.459517,5118.847
878,1.461183,5103.946
879,1.46285,5083.233
880,1.464517,5064.16
881,1.466183,5064.16
882,1.46785,5044.937
883,1.469517,5023.554
884,1.471183,5023.554
885,1.472833,5001.724
886,1.4745,4978.851
887,1.476183,4959.926
888,1.477833,4959.926
889,1.4795,4942.715
890,1.481167,4923.195
891,1.482833,4906.282
892,1.4845,4906.282
893,1.486167,4886.687
894,1.487833,4867.539
895,1.4895,4852.265
896,1.491167,4852.265
897,1.4929,4833.564
898,1.4945,4815.31
899,1.496167,4797.503
900,1.497833,4797.503
