"ID","sea_time","fid_signal"
1,0,37.594
2,0.00165,37.594
3,0.003317,37.6
4,0.004983,37.597
5,0.00665,37.578
6,0.008317,37.578
7,0.009983000000000001,37.443
8,0.01165,37.27
9,0.013317,37.27
10,0.014983,37.192
11,0.01665,37.184
12,0.018317,37.327
13,0.019983,37.327
14,0.02165,37.496
15,0.023317,37.594
16,0.024983,37.639
17,0.026733,37.639
18,0.028317,37.657
19,0.029983,37.681
20,0.03165,37.674
21,0.033317,37.674
22,0.034983,37.647
23,0.03665,37.602
24,0.038317,37.602
25,0.039983,37.577
26,0.041683,37.577
27,0.043317,37.616
28,0.044983,37.616
29,0.04665,37.657
30,0.048317,37.627
31,0.049983,37.634
32,0.051667,37.634
33,0.053317,37.602
34,0.054983,37.599
35,0.05665,37.647
36,0.058317,37.647
37,0.059983,37.641
38,0.061633,37.649
39,0.0633,37.602
40,0.064967,37.602
41,0.066633,37.576
42,0.0683,37.578
43,0.069967,37.578
44,0.071633,37.583
45,0.0733,37.605
46,0.07496700000000001,37.647
47,0.07663300000000001,37.647
48,0.07829999999999999,37.669
49,0.079967,37.681
50,0.081633,37.725
51,0.0833,37.725
52,0.084967,37.672
53,0.086633,37.646
54,0.0883,37.603
55,0.08996700000000001,37.603
56,0.09163300000000001,37.564
57,0.09329999999999999,37.574
58,0.094967,37.574
59,0.096633,37.578
60,0.0983,37.628
61,0.099967,37.638
62,0.101633,37.638
63,0.1033,37.659
64,0.104967,37.694
65,0.106633,37.701
66,0.1083,37.701
67,0.109967,37.704
68,0.111683,37.696
69,0.113317,37.654
70,0.114967,37.654
71,0.116633,37.622
72,0.1183,37.617
73,0.11995,37.623
74,0.12165,37.623
75,0.123283,37.619
76,0.12495,37.602
77,0.126617,37.602
78,0.128283,37.587
79,0.129967,37.552
80,0.131617,37.545
81,0.133283,37.545
82,0.13495,37.552
83,0.136617,37.548
84,0.138283,37.57
85,0.13995,37.57
86,0.141617,37.592
87,0.143283,37.618
88,0.145067,37.646
89,0.146617,37.646
90,0.148283,37.621
91,0.14995,37.623
92,0.151617,37.623
93,0.153283,37.606
94,0.15495,37.606
95,0.156617,37.65
96,0.158283,37.65
97,0.15995,37.622
98,0.161617,37.59
99,0.163283,37.572
100,0.16495,37.572
101,0.166617,37.566
102,0.168283,37.578
103,0.16995,37.585
104,0.171617,37.585
105,0.173283,37.596
106,0.17495,37.576
107,0.176617,37.576
108,0.178283,37.558
109,0.17995,37.569
110,0.1816,37.567
111,0.183267,37.567
112,0.184933,37.555
113,0.1866,37.577
114,0.188267,37.59
115,0.189933,37.59
116,0.1916,37.578
117,0.193267,37.597
118,0.194933,37.583
119,0.196683,37.583
120,0.198267,37.587
121,0.199933,37.606
122,0.2016,37.576
123,0.203267,37.576
124,0.204933,37.581
125,0.2066,37.564
126,0.208267,37.564
127,0.209933,37.553
128,0.2116,37.57
129,0.213267,37.55
130,0.214933,37.55
131,0.2166,37.56
132,0.218267,37.555
133,0.219933,37.575
134,0.2216,37.575
135,0.223267,37.612
136,0.224933,37.591
137,0.2266,37.583
138,0.228267,37.583
139,0.229983,37.581
140,0.2316,37.584
141,0.233267,37.584
142,0.234933,37.603
143,0.2366,37.616
144,0.238267,37.601
145,0.239917,37.601
146,0.241583,37.596
147,0.24325,37.615
148,0.244917,37.625
149,0.246583,37.625
150,0.24825,37.636
151,0.249917,37.603
152,0.251583,37.581
153,0.25325,37.581
154,0.254917,37.555
155,0.256583,37.514
156,0.25825,37.512
157,0.259917,37.512
158,0.261583,37.497
159,0.263267,37.521
160,0.264933,37.521
161,0.266583,37.561
162,0.26825,37.59
163,0.269917,37.622
164,0.271583,37.622
165,0.27325,37.597
166,0.274917,37.57
167,0.276583,37.576
168,0.27825,37.576
169,0.279917,37.577
170,0.281567,37.575
171,0.283233,37.597
172,0.2849,37.597
173,0.286567,37.583
174,0.288233,37.561
175,0.2899,37.561
176,0.291567,37.585
177,0.293233,37.588
178,0.2949,37.595
179,0.296567,37.595
180,0.298233,37.612
181,0.2999,37.621
182,0.30155,37.639
183,0.303217,37.639
184,0.3049,37.655
185,0.30655,37.652
186,0.308217,37.638
187,0.309883,37.638
188,0.31155,37.617
189,0.313217,37.618
190,0.314883,37.621
191,0.31655,37.621
192,0.318217,37.609
193,0.319883,37.593
194,0.32155,37.593
195,0.323217,37.588
196,0.324883,37.588
197,0.32655,37.645
198,0.328217,37.645
199,0.329883,37.671
200,0.33155,37.667
201,0.333217,37.657
202,0.334883,37.657
203,0.33655,37.619
204,0.338217,37.643
205,0.3399,37.654
206,0.34155,37.654
207,0.343217,37.687
208,0.344883,37.739
209,0.34655,37.739
210,0.34825,37.751
211,0.349883,37.793
212,0.35155,37.86
213,0.353217,37.86
214,0.354883,37.884
215,0.35655,37.909
216,0.358217,37.932
217,0.359867,37.932
218,0.361533,37.943
219,0.3632,37.991
220,0.365,38.082
221,0.366533,38.082
222,0.3682,38.201
223,0.369867,38.327
224,0.371533,38.327
225,0.3732,38.489
226,0.374867,38.684
227,0.376533,38.905
228,0.3782,38.905
229,0.379867,39.221
230,0.38165,39.588
231,0.3832,39.983
232,0.384867,39.983
233,0.386533,40.454
234,0.3882,40.931
235,0.389867,41.495
236,0.391533,41.495
237,0.3932,42.166
238,0.394867,42.939
239,0.396533,43.83
240,0.3982,43.83
241,0.399867,44.801
242,0.401533,45.839
243,0.4032,45.839
244,0.404867,46.989
245,0.406533,48.213
246,0.4082,49.515
247,0.409867,49.515
248,0.411533,50.902
249,0.4132,52.342
250,0.414867,53.819
251,0.416533,53.819
252,0.4182,55.321
253,0.41985,56.852
254,0.421517,58.345
255,0.423183,58.345
256,0.42485,59.882
257,0.426517,61.376
258,0.428183,61.376
259,0.42985,62.82
260,0.431517,64.221
261,0.4332,65.50700000000001
262,0.43485,65.50700000000001
263,0.436517,66.724
264,0.438183,67.828
265,0.43985,68.79600000000001
266,0.441517,68.79600000000001
267,0.443183,69.65000000000001
268,0.44485,70.377
269,0.446517,70.989
270,0.448183,70.989
271,0.44985,71.498
272,0.451517,71.872
273,0.453183,72.125
274,0.45485,72.125
275,0.456517,72.252
276,0.458183,72.235
277,0.45985,72.235
278,0.461517,72.04300000000001
279,0.463183,71.756
280,0.46485,71.377
281,0.466533,71.377
282,0.468183,70.904
283,0.46985,70.364
284,0.471517,69.73399999999999
285,0.473183,69.73399999999999
286,0.47485,69.017
287,0.476517,68.233
288,0.478183,67.426
289,0.479833,67.426
290,0.4815,66.55
291,0.483283,65.636
292,0.484833,65.636
293,0.4865,64.70699999999999
294,0.488167,63.756
295,0.489833,62.801
296,0.4915,62.801
297,0.493167,61.852
298,0.494833,60.9
299,0.4965,59.951
300,0.498167,59.951
301,0.4999,59
302,0.5014999999999999,58.053
303,0.503167,57.133
304,0.504833,57.133
305,0.5065,56.255
306,0.508167,55.411
307,0.509833,54.581
308,0.5115,54.581
309,0.513167,53.791
310,0.514833,52.985
311,0.5165999999999999,52.985
312,0.518167,52.215
313,0.519833,51.495
314,0.521517,50.762
315,0.523167,50.762
316,0.524833,50.1
317,0.5265,49.463
318,0.5281670000000001,48.859
319,0.529833,48.859
320,0.5315,48.309
321,0.5331669999999999,47.798
322,0.534833,47.31
323,0.5365,47.31
324,0.538167,46.815
325,0.539833,46.331
326,0.541483,46.331
327,0.54315,45.845
328,0.544817,45.386
329,0.5464830000000001,44.99
330,0.54815,44.99
331,0.549817,44.628
332,0.5514829999999999,44.311
333,0.55315,43.985
334,0.554833,43.985
335,0.5564829999999999,43.677
336,0.55815,43.377
337,0.559817,43.074
338,0.561483,43.074
339,0.56315,42.798
340,0.564817,42.535
341,0.566483,42.266
342,0.56815,42.266
343,0.569817,42.045
344,0.571483,41.871
345,0.573133,41.871
346,0.5748,41.705
347,0.576467,41.576
348,0.578133,41.432
349,0.5798,41.432
350,0.581467,41.255
351,0.583133,41.102
352,0.584817,40.932
353,0.586467,40.932
354,0.588133,40.764
355,0.5898,40.63
356,0.591467,40.486
357,0.593133,40.486
358,0.5948,40.378
359,0.596483,40.305
360,0.598133,40.305
361,0.5998,40.245
362,0.601533,40.175
363,0.603117,40.115
364,0.604783,40.115
365,0.60645,40.044
366,0.608117,39.967
367,0.609783,39.919
368,0.61145,39.919
369,0.613117,39.841
370,0.614783,39.769
371,0.6164500000000001,39.71
372,0.61815,39.71
373,0.619783,39.668
374,0.6214499999999999,39.627
375,0.623117,39.627
376,0.624783,39.56
377,0.62645,39.516
378,0.628117,39.463
379,0.629783,39.463
380,0.63145,39.421
381,0.633117,39.399
382,0.634883,39.349
383,0.63645,39.349
384,0.638117,39.27
385,0.639783,39.211
386,0.64145,39.171
387,0.643117,39.171
388,0.644783,39.162
389,0.64645,39.174
390,0.6481170000000001,39.171
391,0.649783,39.171
392,0.65145,39.161
393,0.6531169999999999,39.145
394,0.654783,39.145
395,0.65645,39.11
396,0.658117,39.097
397,0.659783,39.081
398,0.661433,39.081
399,0.6631,39.048
400,0.664767,39.032
401,0.6664330000000001,39.012
402,0.6681,39.012
403,0.669767,39
404,0.6714329999999999,38.987
405,0.6731,39.008
406,0.674767,39.008
407,0.676433,39.005
408,0.6781,39.005
409,0.679767,39.005
410,0.681433,39.003
411,0.6831,38.962
412,0.684783,38.932
413,0.686433,38.932
414,0.6881,38.9
415,0.689767,38.877
416,0.691433,38.864
417,0.6931,38.864
418,0.694767,38.864
419,0.696433,38.89
420,0.6981000000000001,38.873
421,0.699767,38.873
422,0.701433,38.879
423,0.7030999999999999,38.879
424,0.704767,38.84
425,0.706433,38.84
426,0.7081,38.844
427,0.709767,38.834
428,0.711433,38.834
429,0.7131,38.836
430,0.714767,38.873
431,0.716433,38.879
432,0.7181,38.879
433,0.719783,38.874
434,0.721417,38.891
435,0.723083,38.909
436,0.72475,38.909
437,0.726417,38.934
438,0.728083,38.988
439,0.72975,39.011
440,0.731417,39.011
441,0.733083,39.03
442,0.73475,39.049
443,0.736433,39.049
444,0.738083,39.04
445,0.73975,39.063
446,0.741417,39.032
447,0.743083,39.032
448,0.74475,39.024
449,0.746417,39.052
450,0.7480830000000001,39.057
451,0.74975,39.057
452,0.751417,39.056
453,0.7532,39.054
454,0.75475,39.064
455,0.756417,39.064
456,0.758083,39.065
457,0.75975,39.111
458,0.761433,39.168
459,0.763083,39.168
460,0.76475,39.191
461,0.766417,39.23
462,0.768083,39.23
463,0.76975,39.272
464,0.771417,39.298
465,0.7731,39.321
466,0.77475,39.321
467,0.776417,39.351
468,0.778083,39.356
469,0.7797500000000001,39.399
470,0.7814,39.399
471,0.783067,39.443
472,0.784733,39.48
473,0.7864,39.556
474,0.788067,39.556
475,0.789733,39.614
476,0.7914,39.664
477,0.793067,39.664
478,0.794733,39.705
479,0.7964,39.762
480,0.798067,39.8
481,0.799733,39.8
482,0.8014,39.862
483,0.803067,39.896
484,0.804733,39.937
485,0.8064,39.937
486,0.808067,39.965
487,0.809733,39.987
488,0.8114,40.056
489,0.813067,40.056
490,0.814733,40.086
491,0.8164,40.126
492,0.818067,40.126
493,0.819733,40.188
494,0.8214,40.247
495,0.823067,40.304
496,0.824733,40.304
497,0.8264,40.406
498,0.828067,40.513
499,0.8297330000000001,40.581
500,0.8314,40.581
501,0.833067,40.668
502,0.8347329999999999,40.759
503,0.8364,40.809
504,0.838133,40.809
505,0.839733,40.914
506,0.841383,41.009
507,0.84305,41.094
508,0.8447170000000001,41.094
509,0.846383,41.196
510,0.84805,41.308
511,0.8497169999999999,41.308
512,0.851383,41.454
513,0.85305,41.569
514,0.8547169999999999,41.677
515,0.856383,41.677
516,0.85805,41.815
517,0.859717,41.937
518,0.861383,42.051
519,0.86305,42.051
520,0.8647,42.187
521,0.866367,42.263
522,0.8680330000000001,42.339
523,0.8697,42.339
524,0.871483,42.485
525,0.8730329999999999,42.645
526,0.8747,42.645
527,0.876367,42.811
528,0.878033,42.97
529,0.8797,43.102
530,0.881367,43.102
531,0.883033,43.225
532,0.8847,43.359
533,0.886367,43.536
534,0.888033,43.536
535,0.8897,43.722
536,0.891367,43.917
537,0.893033,44.128
538,0.8947000000000001,44.128
539,0.896367,44.31
540,0.898033,44.532
541,0.899683,44.762
542,0.90135,44.762
543,0.903017,44.973
544,0.904683,45.196
545,0.90635,45.196
546,0.908017,45.384
547,0.909683,45.601
548,0.91135,45.837
549,0.913017,45.837
550,0.914683,46.059
551,0.91635,46.284
552,0.918017,46.521
553,0.919683,46.521
554,0.92135,46.773
555,0.923017,47.036
556,0.924683,47.337
557,0.92635,47.337
558,0.928017,47.601
559,0.929683,47.867
560,0.93135,47.867
561,0.933017,48.13
562,0.934683,48.382
563,0.9363669999999999,48.65
564,0.938017,48.65
565,0.939683,48.933
566,0.94135,49.254
567,0.943017,49.563
568,0.9446830000000001,49.563
569,0.94635,49.886
570,0.948017,50.235
571,0.9496830000000001,50.587
572,0.95135,50.587
573,0.953017,50.945
574,0.9546829999999999,51.331
575,0.956417,51.676
576,0.958017,51.676
577,0.959683,52.022
578,0.961333,52.386
579,0.963,52.386
580,0.9646670000000001,52.741
581,0.966333,53.147
582,0.968,53.573
583,0.9696669999999999,53.573
584,0.971333,53.987
585,0.973017,54.426
586,0.974667,54.847
587,0.976333,54.847
588,0.978,55.235
589,0.979667,55.658
590,0.981333,56.075
591,0.983,56.075
592,0.984667,56.536
593,0.986333,57.028
594,0.988,57.028
595,0.989783,57.542
596,0.991333,58.056
597,0.993,58.546
598,0.994667,58.546
599,0.996333,59.044
600,0.998,59.561
601,0.999667,60.052
602,1.001333,60.052
603,1.003,60.569
604,1.004667,61.109
605,1.006333,61.622
606,1.008,61.622
607,1.009667,62.203
608,1.011333,62.8
609,1.013,62.8
610,1.014667,63.385
611,1.016333,64.011
612,1.018,64.59399999999999
613,1.01965,64.59399999999999
614,1.021317,65.164
615,1.022983,65.782
616,1.02465,66.40000000000001
617,1.026317,66.40000000000001
618,1.027983,67.032
619,1.02965,67.7
620,1.031317,68.339
621,1.032983,68.339
622,1.03465,68.994
623,1.036317,69.66800000000001
624,1.037983,70.324
625,1.03965,70.324
626,1.041317,71.035
627,1.042983,71.739
628,1.04465,71.739
629,1.046317,72.48999999999999
630,1.047983,73.248
631,1.04965,74.001
632,1.051317,74.001
633,1.052983,74.73399999999999
634,1.054667,75.452
635,1.056317,76.20699999999999
636,1.057983,76.20699999999999
637,1.05965,76.95
638,1.061333,77.73999999999999
639,1.062983,78.569
640,1.06465,78.569
641,1.066317,79.37
642,1.067983,80.214
643,1.06965,80.214
644,1.071317,81.069
645,1.072983,81.919
646,1.074717,82.79000000000001
647,1.076317,82.79000000000001
648,1.077983,83.66500000000001
649,1.07965,84.518
650,1.0813,85.373
651,1.082967,85.373
652,1.084633,86.264
653,1.0863,87.146
654,1.087967,88.089
655,1.089633,88.089
656,1.0913,89.03
657,1.092967,89.96299999999999
658,1.094633,90.89400000000001
659,1.0963,90.89400000000001
660,1.097967,91.81100000000001
661,1.099633,92.768
662,1.1013,92.768
663,1.102967,93.726
664,1.104633,94.739
665,1.1063,95.75
666,1.10805,95.75
667,1.109633,96.75
668,1.1113,97.79900000000001
669,1.112967,98.818
670,1.114633,98.818
671,1.1163,99.861
672,1.117967,100.914
673,1.119633,101.985
674,1.1213,101.985
675,1.122967,103.092
676,1.124633,104.208
677,1.1263,104.208
678,1.127967,105.332
679,1.129633,106.443
680,1.1313,107.523
681,1.132967,107.523
682,1.134633,108.619
683,1.1363,109.721
684,1.137967,110.831
685,1.139633,110.831
686,1.141283,112.013
687,1.14295,113.171
688,1.144617,114.333
689,1.146283,114.333
690,1.14795,115.515
691,1.149617,116.695
692,1.1513,117.922
693,1.15295,117.922
694,1.154617,119.155
695,1.156267,120.41
696,1.157933,120.41
697,1.1596,121.645
698,1.161267,122.871
699,1.162933,124.166
700,1.1646,124.166
701,1.166267,125.446
702,1.167933,126.737
703,1.1696,128.054
704,1.171267,128.054
705,1.172933,129.367
706,1.1746,130.662
707,1.176267,131.98
708,1.177933,131.98
709,1.1796,133.308
710,1.181267,134.603
711,1.182933,134.603
712,1.1846,135.932
713,1.186267,137.249
714,1.187933,138.609
715,1.1896,138.609
716,1.191267,140.003
717,1.192983,141.349
718,1.1946,142.746
719,1.196267,142.746
720,1.197933,144.119
721,1.199583,145.484
722,1.20125,146.899
723,1.20295,146.899
724,1.204583,148.299
725,1.20625,149.697
726,1.207917,149.697
727,1.2097,151.115
728,1.21125,152.539
729,1.212917,153.96
730,1.214583,153.96
731,1.21625,155.39
732,1.217917,156.833
733,1.219583,158.299
734,1.22125,158.299
735,1.222917,159.77
736,1.224583,161.26
737,1.226267,162.72
738,1.227917,162.72
739,1.229583,164.22
740,1.23125,165.748
741,1.232917,167.254
742,1.234583,167.254
743,1.23625,168.774
744,1.237917,170.269
745,1.239583,170.269
746,1.24125,171.757
747,1.242917,173.286
748,1.244583,174.843
749,1.24625,174.843
750,1.247917,176.398
751,1.249583,177.947
752,1.25125,179.479
753,1.252917,179.479
754,1.254583,181.027
755,1.25625,182.563
756,1.2579,184.116
757,1.259583,184.116
758,1.261233,185.677
759,1.2629,187.247
760,1.264567,187.247
761,1.266233,188.829
762,1.2679,190.408
763,1.269567,191.975
764,1.271233,191.975
765,1.2729,193.546
766,1.274567,195.158
767,1.276233,196.774
768,1.277933,196.774
769,1.279567,198.372
770,1.281233,200.003
771,1.2829,201.588
772,1.284567,201.588
773,1.286233,203.179
774,1.2879,204.801
775,1.289567,206.409
776,1.291233,206.409
777,1.2929,208.015
778,1.294567,209.628
779,1.296233,209.628
780,1.2979,211.247
781,1.299567,212.834
782,1.301233,214.461
783,1.3029,214.461
784,1.304567,216.089
785,1.306233,217.737
786,1.3079,219.399
787,1.309567,219.399
788,1.311233,221.046
789,1.3129,222.716
790,1.314567,224.364
791,1.316233,224.364
792,1.3179,226.014
793,1.319567,227.647
794,1.321217,227.647
795,1.322883,229.245
796,1.32455,230.852
797,1.326217,232.451
798,1.327983,232.451
799,1.32955,234.105
800,1.331217,235.777
801,1.332883,237.398
802,1.33455,237.398
803,1.336217,239.016
804,1.337883,240.602
805,1.339567,242.177
806,1.341217,242.177
807,1.342883,243.8
808,1.344617,245.428
809,1.346217,247.081
810,1.347883,247.081
811,1.34955,248.75
812,1.351217,250.398
813,1.352883,250.398
814,1.35455,252.052
815,1.356217,253.647
816,1.357883,255.255
817,1.35955,255.255
818,1.361333,256.861
819,1.362883,258.457
820,1.36455,260.065
821,1.366217,260.065
822,1.367883,261.649
823,1.36955,263.261
824,1.371217,264.879
825,1.372883,264.879
826,1.37455,266.507
827,1.376217,268.143
828,1.377883,268.143
829,1.37955,269.783
830,1.3812,271.398
831,1.382867,272.997
832,1.384533,272.997
833,1.3862,274.613
834,1.387867,276.186
835,1.389533,277.76
836,1.3912,277.76
837,1.392867,279.34
838,1.394533,280.9
839,1.3962,282.46
840,1.397867,282.46
841,1.399533,284.025
842,1.4012,285.601
843,1.402883,287.142
844,1.404533,287.142
845,1.4062,288.661
846,1.407867,290.239
847,1.409533,290.239
848,1.4112,291.796
849,1.412867,293.36
850,1.414533,294.957
851,1.4162,294.957
852,1.417867,296.441
853,1.419533,297.974
854,1.4212,299.475
855,1.422883,299.475
856,1.424533,300.96
857,1.4262,302.45
858,1.427867,303.918
859,1.429533,303.918
860,1.4312,305.406
861,1.432867,306.896
862,1.434533,306.896
863,1.4362,308.437
864,1.437867,309.924
865,1.439533,311.42
866,1.441183,311.42
867,1.44285,312.888
868,1.444517,314.333
869,1.446267,315.782
870,1.447833,315.782
871,1.4495,317.2
872,1.451167,318.656
873,1.452833,320.105
874,1.4545,320.105
875,1.456167,321.562
876,1.457833,323
877,1.4595,323
878,1.461167,324.431
879,1.462883,325.827
880,1.4645,327.209
881,1.466167,327.209
882,1.467833,328.642
883,1.4695,330.026
884,1.471167,331.385
885,1.472833,331.385
886,1.4745,332.757
887,1.476167,334.087
888,1.477833,335.404
889,1.479617,335.404
890,1.481167,336.778
891,1.482833,338.105
892,1.4845,339.401
893,1.486167,339.401
894,1.487833,340.723
895,1.4895,342.013
896,1.491183,342.013
897,1.492833,343.286
898,1.4945,344.57
899,1.496167,345.863
900,1.497833,345.863
901,1.4995,347.151
902,1.50115,348.429
903,1.502817,349.698
904,1.504483,349.698
905,1.50615,350.935
906,1.507817,352.138
907,1.509483,353.369
908,1.51115,353.369
909,1.512817,354.613
910,1.5145,355.837
911,1.51615,355.837
912,1.517817,357.087
913,1.519483,358.288
914,1.52115,359.488
915,1.522817,359.488
916,1.524483,360.651
917,1.52615,361.775
918,1.527817,362.904
919,1.529483,362.904
920,1.53115,364.01
921,1.532817,365.14
922,1.534483,366.253
923,1.53615,366.253
924,1.537817,367.38
925,1.539483,368.493
926,1.54115,369.62
927,1.542817,369.62
928,1.544483,370.748
929,1.54615,371.853
930,1.547817,371.853
931,1.549483,372.936
932,1.55115,373.971
933,1.552817,374.993
934,1.554483,374.993
935,1.55615,376.005
936,1.557817,377.026
937,1.559483,378.017
938,1.561133,378.017
939,1.5628,378.987
940,1.564533,379.969
941,1.566133,380.903
942,1.5678,380.903
943,1.569467,381.859
944,1.571133,382.815
945,1.5728,382.815
946,1.574467,383.744
947,1.576133,384.684
948,1.5778,385.641
949,1.579467,385.641
950,1.58115,386.556
951,1.5828,387.45
952,1.584467,388.32
953,1.586133,388.32
954,1.5878,389.128
955,1.589467,389.999
956,1.591133,390.876
957,1.5928,390.876
958,1.594467,391.769
959,1.596133,392.686
960,1.597917,393.542
961,1.599467,393.542
962,1.601133,394.37
963,1.6028,395.2
964,1.604467,395.2
965,1.606133,395.977
966,1.6078,396.788
967,1.609467,397.596
968,1.611133,397.596
969,1.6128,398.384
970,1.614467,399.16
971,1.616133,399.899
972,1.6178,399.899
973,1.619467,400.624
974,1.621117,401.319
975,1.622783,402.021
976,1.62445,402.021
977,1.626117,402.698
978,1.627783,403.381
979,1.62945,403.381
980,1.631117,404.042
981,1.632783,404.705
982,1.63445,405.371
983,1.636117,405.371
984,1.6378,406.039
985,1.63945,406.683
