"ID","sea_time","fid_signal"
1,0,1173.466
2,0.001667,1173.466
3,0.003333,1172.423
4,0.005017,1173.541
5,0.006667,1173.392
6,0.008333,1173.392
7,0.01,1176.447
8,0.01165,1179.054
9,0.013317,1178.235
10,0.014983,1178.235
11,0.01665,1177.043
12,0.018317,1175.031
13,0.019983,1174.584
14,0.02175,1174.584
15,0.023317,1174.063
16,0.024983,1173.69
17,0.02665,1173.69
18,0.028317,1175.106
19,0.029983,1174.882
20,0.03165,1176.372
21,0.033317,1176.372
22,0.035,1176.074
23,0.03665,1172.051
24,0.038317,1170.784
25,0.039983,1170.784
26,0.04165,1167.953
27,0.043317,1166.09
28,0.044983,1170.933
29,0.04665,1170.933
30,0.048317,1170.561
31,0.049967,1172.87
32,0.051633,1172.87
33,0.0533,1177.266
34,0.054967,1176.67
35,0.056633,1179.576
36,0.0583,1179.576
37,0.059967,1177.192
38,0.061633,1175.553
39,0.0633,1172.572
40,0.064967,1172.572
41,0.066633,1169.071
42,0.0683,1168.996
43,0.069967,1169.89
44,0.071633,1169.89
45,0.0733,1171.157
46,0.07496700000000001,1173.466
47,0.07663300000000001,1173.615
48,0.07829999999999999,1173.615
49,0.079967,1174.286
50,0.081633,1173.69
51,0.0833,1173.69
52,0.084967,1171.008
53,0.086633,1171.455
54,0.0883,1170.039
55,0.08996700000000001,1170.039
56,0.09163300000000001,1171.008
57,0.09329999999999999,1171.38
58,0.094967,1172.796
59,0.096633,1172.796
60,0.0983,1169.294
61,0.099967,1168.177
62,0.101633,1170.114
63,0.1033,1170.114
64,0.104967,1170.263
65,0.1067,1177.341
66,0.1083,1177.341
67,0.10995,1180.023
68,0.111617,1180.321
69,0.113283,1177.639
70,0.11495,1177.639
71,0.116617,1172.945
72,0.118283,1173.019
73,0.11995,1171.678
74,0.121617,1171.678
75,0.1233,1174.957
76,0.12495,1173.988
77,0.126617,1171.455
78,0.128283,1171.455
79,0.12995,1173.839
80,0.131617,1170.784
81,0.133283,1170.859
82,0.13495,1170.859
83,0.136617,1170.412
84,0.138283,1168.326
85,0.14005,1168.326
86,0.141617,1171.827
87,0.143283,1171.827
88,0.14495,1170.933
89,0.146617,1170.933
90,0.148283,1170.114
91,0.14995,1169.816
92,0.151617,1171.753
93,0.153283,1171.753
94,0.15495,1172.125
95,0.156617,1174.36
96,0.158283,1172.721
97,0.15995,1172.721
98,0.161617,1170.039
99,0.163283,1169.667
100,0.16495,1169.667
101,0.166617,1170.188
102,0.168283,1172.051
103,0.16995,1173.913
104,0.1716,1173.913
105,0.173267,1175.627
106,0.174933,1172.2
107,0.176617,1171.008
108,0.178317,1171.008
109,0.17995,1170.188
110,0.1816,1169.518
111,0.183267,1171.753
112,0.184933,1171.753
113,0.1866,1173.765
114,0.188267,1176.447
115,0.189933,1177.49
116,0.1916,1177.49
117,0.193267,1178.235
118,0.194933,1176.968
119,0.1966,1176.968
120,0.198267,1173.541
121,0.199933,1171.306
122,0.2016,1170.933
123,0.203267,1170.933
124,0.204933,1171.231
125,0.2066,1171.008
126,0.208267,1173.243
127,0.209933,1173.243
128,0.2116,1174.286
129,0.213267,1174.733
130,0.214933,1180.545
131,0.2166,1180.545
132,0.218267,1178.905
133,0.219933,1177.564
134,0.2216,1177.564
135,0.223267,1177.415
136,0.224983,1174.36
137,0.2266,1176.819
138,0.22825,1176.819
139,0.229933,1175.627
140,0.231583,1172.051
141,0.23325,1172.423
142,0.234917,1172.423
143,0.236583,1169.667
144,0.23825,1172.125
145,0.239917,1174.286
146,0.2416,1174.286
147,0.24325,1174.51
148,0.244917,1173.913
149,0.2466,1173.168
150,0.24825,1173.168
151,0.249917,1171.976
152,0.251583,1173.168
153,0.25325,1173.168
154,0.254917,1177.49
155,0.256583,1175.031
156,0.258367,1174.286
157,0.259917,1174.286
158,0.261583,1171.976
159,0.26325,1171.231
160,0.264917,1171.529
161,0.266583,1171.529
162,0.26825,1174.063
163,0.269917,1174.286
164,0.271583,1173.839
165,0.27325,1173.839
166,0.274917,1175.925
167,0.276583,1176.074
168,0.27825,1176.074
169,0.279933,1176.149
170,0.281583,1177.639
171,0.28325,1177.415
172,0.284917,1177.415
173,0.286583,1177.49
174,0.28825,1177.266
175,0.2899,1173.019
176,0.291567,1173.019
177,0.293233,1170.188
178,0.2949,1170.114
179,0.296567,1170.486
180,0.298233,1170.486
181,0.2999,1170.263
182,0.301567,1172.87
183,0.303217,1172.87
184,0.304883,1169.443
185,0.30655,1168.326
186,0.308217,1172.498
187,0.309883,1172.498
188,0.31155,1173.019
189,0.313217,1176.298
190,0.314883,1177.564
191,0.31655,1177.564
192,0.318217,1174.137
193,0.319883,1171.008
194,0.32155,1169.22
195,0.323217,1169.22
196,0.324883,1168.996
197,0.32655,1170.635
198,0.328217,1175.776
199,0.329883,1175.776
200,0.33155,1180.246
201,0.333217,1184.642
202,0.334883,1184.642
203,0.33655,1193.062
204,0.338217,1200.959
205,0.339883,1209.527
206,0.34155,1209.527
207,0.343283,1219.213
208,0.344883,1230.985
209,0.34655,1243.055
210,0.348217,1243.055
211,0.349867,1259.223
212,0.351533,1280.829
213,0.3532,1303.703
214,0.354883,1303.703
215,0.356533,1332.089
216,0.3582,1363.754
217,0.359867,1363.754
218,0.361533,1399.89
219,0.363217,1442.581
220,0.364867,1490.712
221,0.366533,1490.712
222,0.3682,1545.548
223,0.369867,1605.302
224,0.371533,1669.75
225,0.3732,1669.75
226,0.374867,1743.436
227,0.37665,1825.094
228,0.3782,1917.928
229,0.379867,1917.928
230,0.381533,2016.649
231,0.3832,2122.372
232,0.384867,2235.398
233,0.386533,2235.398
234,0.3882,2353.49
235,0.389867,2486.259
236,0.391533,2486.259
237,0.393217,2626.255
238,0.394867,2777.278
239,0.396533,2938.956
240,0.3982,2938.956
241,0.399867,3108.084
242,0.401533,3292.188
243,0.4032,3492.758
244,0.404867,3492.758
245,0.406533,3712.699
246,0.4082,3958.866
247,0.409867,4238.188
248,0.411517,4238.188
249,0.413183,4559.234
250,0.41485,4935.041
251,0.416517,4935.041
252,0.418183,5383.044
253,0.41985,5922.094
254,0.421517,6574.392
255,0.423183,6574.392
256,0.42485,7373.84
257,0.426517,8349.120999999999
258,0.428183,9537.190000000001
259,0.42985,9537.190000000001
260,0.431517,10980.219
261,0.433183,12721.271
262,0.43485,14805.049
263,0.436517,14805.049
264,0.438183,17277.523
265,0.43985,20180.791
266,0.441517,20180.791
267,0.443183,23548.453
268,0.44485,27407.705
269,0.446517,31763.018
270,0.448183,31763.018
271,0.44985,36603.586
272,0.451517,41880.234
273,0.453183,47520.027
274,0.45485,47520.027
275,0.456517,53429.828
276,0.458183,59490.055
277,0.45985,65578.891
278,0.461583,65578.891
279,0.463183,71568.344
280,0.46485,77327.19500000001
281,0.466517,82729.016
282,0.468183,82729.016
283,0.46985,87664.875
284,0.4715,92052.07000000001
285,0.473167,92052.07000000001
286,0.474833,95818.492
287,0.4765,98915.773
288,0.478167,101309.344
289,0.479833,101309.344
290,0.4815,102974.773
291,0.483167,103922.266
292,0.484833,104173.047
293,0.4865,104173.047
294,0.488167,103767.813
295,0.489833,102758.031
296,0.4915,101196.32
297,0.493167,101196.32
298,0.494933,99148.30499999999
299,0.4965,96681.641
300,0.498167,96681.641
301,0.499833,93865.023
302,0.5014999999999999,90763.641
303,0.503167,87443.07000000001
304,0.504833,87443.07000000001
305,0.5065,83959.031
306,0.508167,80363.227
307,0.509833,76708.79700000001
308,0.5115,76708.79700000001
309,0.513167,73041.17200000001
310,0.514833,69397.31299999999
311,0.5165,65809.18799999999
312,0.518167,65809.18799999999
313,0.519833,62305.184
314,0.5215,58903.32
315,0.523167,55620.371
316,0.524833,55620.371
317,0.5265,52472.277
318,0.5281670000000001,49464.48
319,0.529833,49464.48
320,0.531483,46602.039
321,0.533183,43894.129
322,0.534817,41338.949
323,0.536483,41338.949
324,0.53815,38934.125
325,0.539817,36681.52
326,0.541483,34567.863
327,0.54315,34567.863
328,0.544817,32592.043
329,0.5464830000000001,30748.918
330,0.54815,29027.387
331,0.549817,29027.387
332,0.5514829999999999,27427.523
333,0.55315,25937.334
334,0.554817,25937.334
335,0.5564829999999999,24547.354
336,0.55815,23252.889
337,0.559817,22045.895
338,0.561483,22045.895
339,0.56315,20921.604
340,0.564817,19876.734
341,0.566483,18904.508
342,0.56815,18904.508
343,0.569817,18000.826
344,0.571483,17155.633
345,0.57315,16364.679
346,0.574817,16364.679
347,0.576483,15621.707
348,0.5781500000000001,14921.501
349,0.579883,14268.756
350,0.581483,14268.756
351,0.5831499999999999,13653.562
352,0.584817,13076.737
353,0.586483,13076.737
354,0.58815,12536.347
355,0.589817,12027.845
356,0.591467,11551.753
357,0.593133,11551.753
358,0.594783,11102.259
359,0.596517,10677.725
360,0.598117,10275.096
361,0.59985,10275.096
362,0.60145,9891.391
363,0.603117,9528.771000000001
364,0.604783,9185.522000000001
365,0.60645,9185.522000000001
366,0.608117,8858.069
367,0.609783,8550.436
368,0.61145,8550.436
369,0.613217,8257.628000000001
370,0.614783,7980.913
371,0.6164500000000001,7717.684
372,0.618117,7717.684
373,0.619783,7469.58
374,0.6214499999999999,7231.906
375,0.623117,7003.248
376,0.624783,7003.248
377,0.62645,6786.585
378,0.628117,6575.287
379,0.629783,6375.611
380,0.63145,6375.611
381,0.633117,6184.727
382,0.634783,6001.815
383,0.63645,6001.815
384,0.638117,5825.087
385,0.639783,5657.971
386,0.64145,5498.082
387,0.643117,5498.082
388,0.644783,5342.215
389,0.64645,5195.588
390,0.6481170000000001,5052.462
391,0.649767,5052.462
392,0.651433,4915.669
393,0.6531,4785.434
394,0.654767,4661.083
395,0.656433,4661.083
396,0.6581,4543.438
397,0.659767,4427.209
398,0.661433,4318.356
399,0.6631,4318.356
400,0.664767,4213.602
401,0.6664330000000001,4107.356
402,0.6681,4107.356
403,0.669783,4005.805
404,0.6714830000000001,3908.426
405,0.6731,3812.537
406,0.674767,3812.537
407,0.676433,3726.333
408,0.6781,3641.844
409,0.679767,3558.025
410,0.681433,3558.025
411,0.6831,3479.719
412,0.684767,3401.115
413,0.686433,3326.833
414,0.6881,3326.833
415,0.689767,3256.574
416,0.691433,3189.445
417,0.6931,3189.445
418,0.694767,3123.507
419,0.696433,3060.177
420,0.6981000000000001,3000.2
421,0.699767,3000.2
422,0.701433,2938.882
423,0.7030999999999999,2883.971
424,0.704767,2827.719
425,0.706433,2827.719
426,0.7081,2772.51
427,0.709767,2721.324
428,0.711417,2668.723
429,0.713083,2668.723
430,0.714867,2625.883
431,0.716417,2580.881
432,0.718083,2536.178
433,0.71975,2536.178
434,0.721417,2495.945
435,0.723083,2451.465
436,0.72475,2451.465
437,0.726417,2410.486
438,0.728083,2370.03
439,0.72975,2329.2
440,0.7315,2329.2
441,0.733083,2291.426
442,0.73475,2255.514
443,0.736417,2224.594
444,0.738083,2224.594
445,0.73975,2190.992
446,0.741417,2157.241
447,0.743083,2124.757
448,0.74475,2124.757
449,0.746417,2091.527
450,0.748183,2061.352
451,0.74975,2061.352
452,0.751417,2035.201
453,0.7530829999999999,2008.453
454,0.75475,1983.941
455,0.756417,1983.941
456,0.758083,1959.577
457,0.75975,1933.277
458,0.761417,1912.266
459,0.763083,1912.266
460,0.76475,1889.616
461,0.766417,1869.5
462,0.768083,1851.767
463,0.76975,1851.767
464,0.7714,1831.502
465,0.7730669999999999,1812.205
466,0.774733,1793.206
467,0.7764,1793.206
468,0.778067,1777.56
469,0.779733,1757.145
470,0.7814,1757.145
471,0.783067,1740.307
472,0.784733,1723.99
473,0.7864,1704.544
474,0.788067,1704.544
475,0.789733,1687.482
476,0.7914,1669.675
477,0.793067,1652.986
478,0.794733,1652.986
479,0.7964,1638.01
480,0.798067,1628.175
481,0.799733,1616.403
482,0.8014,1616.403
483,0.803067,1604.557
484,0.804733,1592.636
485,0.8064,1592.636
486,0.808067,1577.735
487,0.809733,1564.026
488,0.81145,1552.03
489,0.813067,1552.03
490,0.814733,1538.321
491,0.81645,1529.008
492,0.818067,1520.515
493,0.819733,1520.515
494,0.8214,1514.852
495,0.823067,1507.029
496,0.824733,1496.896
497,0.8264,1496.896
498,0.828067,1489.669
499,0.829717,1479.685
500,0.831383,1479.685
501,0.833117,1473.352
502,0.834717,1466.721
503,0.836383,1459.047
504,0.83805,1459.047
505,0.839717,1452.044
506,0.841383,1444.891
507,0.84305,1437.217
508,0.8447170000000001,1437.217
509,0.846383,1427.159
510,0.84805,1418.069
511,0.8497670000000001,1410.544
512,0.851383,1410.544
513,0.85305,1405.254
514,0.8547169999999999,1403.242
515,0.856383,1399.815
516,0.85805,1399.815
517,0.859717,1395.568
518,0.861383,1391.545
519,0.86305,1391.545
520,0.864717,1383.647
521,0.866483,1376.122
522,0.86805,1368.076
523,0.869717,1368.076
524,0.871383,1362.264
525,0.87305,1357.049
526,0.874717,1353.621
527,0.876383,1353.621
528,0.87805,1351.163
529,0.879717,1347.959
530,0.881383,1344.01
531,0.88305,1344.01
532,0.8847,1339.391
533,0.886383,1332.909
534,0.888033,1332.909
535,0.889683,1326.427
536,0.89135,1321.658
537,0.8930169999999999,1318.082
538,0.894683,1318.082
539,0.89635,1316.518
540,0.898017,1315.4
541,0.899683,1317.561
542,0.90135,1317.561
543,0.903017,1316.145
544,0.904683,1311.6
545,0.90635,1305.416
546,0.908017,1305.416
547,0.909683,1297.966
548,0.91135,1293.421
549,0.913017,1292.601
550,0.914683,1292.601
551,0.91635,1294.091
552,0.918017,1293.123
553,0.919683,1293.123
554,0.92135,1289.696
555,0.923017,1285.3
556,0.924683,1279.563
557,0.92635,1279.563
558,0.928017,1277.104
559,0.929683,1276.359
560,0.93135,1273.751
561,0.933017,1273.751
562,0.934683,1273.453
563,0.93635,1268.312
564,0.938017,1267.94
565,0.939683,1267.94
566,0.94135,1268.461
567,0.943017,1265.034
568,0.9446830000000001,1265.034
569,0.94635,1265.332
570,0.948017,1260.266
571,0.9496830000000001,1258.776
572,0.951417,1258.776
573,0.953,1259.595
574,0.954667,1256.689
575,0.956333,1256.615
576,0.958,1256.615
577,0.959667,1257.36
578,0.961333,1256.615
579,0.963,1257.286
580,0.9646670000000001,1257.286
581,0.966333,1257.136
582,0.968017,1250.654
583,0.9696669999999999,1246.929
584,0.971333,1246.929
585,0.973,1243.949
586,0.974667,1240.671
587,0.976333,1240.671
588,0.978,1240.745
589,0.979667,1235.977
590,0.981333,1233.667
591,0.983,1233.667
592,0.984783,1231.804
593,0.9863499999999999,1232.997
594,0.988,1233.071
595,0.989667,1233.071
596,0.991333,1231.656
597,0.993,1231.506
598,0.994667,1230.91
599,0.996333,1230.91
600,0.998,1235.008
601,0.999667,1237.094
602,1.001333,1237.094
603,1.003,1234.114
604,1.004667,1232.475
605,1.006333,1229.495
606,1.008,1229.495
607,1.009667,1229.867
608,1.011317,1231.879
609,1.012983,1231.804
610,1.01465,1231.804
611,1.016317,1229.718
612,1.017983,1225.844
613,1.01965,1223.832
614,1.021317,1223.832
615,1.022983,1220.331
616,1.02465,1220.107
617,1.026317,1220.107
618,1.027983,1220.48
619,1.02965,1219.734
620,1.031317,1220.405
621,1.032983,1220.405
622,1.03465,1220.554
623,1.036317,1221.299
624,1.037983,1220.629
625,1.03965,1220.629
626,1.041317,1219.66
627,1.042983,1216.009
628,1.04465,1215.339
629,1.046317,1215.339
630,1.047983,1218.095
631,1.04965,1218.244
632,1.051317,1218.17
633,1.052983,1218.17
634,1.05465,1217.797
635,1.056317,1214.147
636,1.057983,1214.147
637,1.05965,1213.923
638,1.061317,1214.892
639,1.062983,1211.464
640,1.06465,1211.464
641,1.066317,1212.433
642,1.067983,1212.731
643,1.06965,1210.719
644,1.0713,1210.719
645,1.072967,1212.209
646,1.074633,1211.613
647,1.0763,1210.57
648,1.077967,1210.57
649,1.079633,1211.613
650,1.0813,1211.837
651,1.082967,1211.837
652,1.084633,1209.9
653,1.086367,1208.112
654,1.087967,1206.249
655,1.089633,1206.249
656,1.0913,1204.759
657,1.092967,1204.461
658,1.094633,1202.971
659,1.0963,1202.971
660,1.097983,1203.492
661,1.099633,1201.555
662,1.1013,1203.716
663,1.103083,1203.716
664,1.104633,1207.814
665,1.1063,1207.665
666,1.107967,1208.559
667,1.109633,1208.559
668,1.1113,1207.814
669,1.112967,1206.1
670,1.114633,1206.1
671,1.1163,1208.931
672,1.117967,1209.378
673,1.119633,1207.665
674,1.1213,1207.665
675,1.122967,1205.504
676,1.124633,1203.194
677,1.1263,1202.3
678,1.127967,1202.3
679,1.129633,1202.151
680,1.131283,1202.673
681,1.13295,1202.077
682,1.134617,1202.077
683,1.136283,1202.002
684,1.13795,1199.469
685,1.139617,1199.469
686,1.141283,1200.512
687,1.14295,1199.096
688,1.144617,1195.371
689,1.146283,1195.371
690,1.14795,1198.202
691,1.149617,1194.254
692,1.151283,1196.787
693,1.15295,1196.787
694,1.154617,1202.971
695,1.156283,1204.312
696,1.15795,1206.026
697,1.159617,1206.026
698,1.161333,1204.908
699,1.16295,1198.351
700,1.164617,1193.136
701,1.166283,1193.136
702,1.16795,1195.297
703,1.169617,1195.595
704,1.171283,1195.595
705,1.17295,1197.83
706,1.174617,1199.842
707,1.176267,1200.81
708,1.177933,1200.81
709,1.1796,1198.053
710,1.181267,1198.575
711,1.18295,1200.363
712,1.1846,1200.363
713,1.186267,1199.171
714,1.187983,1198.128
715,1.189583,1196.638
716,1.19125,1196.638
717,1.192917,1193.359
718,1.194583,1192.093
719,1.19625,1192.093
720,1.197917,1193.583
721,1.199583,1195.818
722,1.20125,1196.936
723,1.202917,1196.936
724,1.204617,1195.297
725,1.20625,1193.509
726,1.207917,1190.752
727,1.209583,1190.752
728,1.21125,1191.72
729,1.212917,1191.199
730,1.214583,1193.732
731,1.21625,1193.732
732,1.217917,1194.701
733,1.219583,1192.614
734,1.221367,1191.422
735,1.222917,1191.422
736,1.224583,1188.442
737,1.22625,1188.591
738,1.227917,1188.591
739,1.229583,1189.858
740,1.23125,1188.442
741,1.232917,1190.677
742,1.234583,1190.677
743,1.236283,1191.124
744,1.237917,1191.05
745,1.239583,1193.062
746,1.24125,1193.062
747,1.242917,1193.657
748,1.244583,1194.701
749,1.24625,1192.614
750,1.247917,1192.614
751,1.249583,1190.454
752,1.251233,1187.772
753,1.2529,1187.772
754,1.254567,1185.834
755,1.256233,1187.846
756,1.2579,1188.74
757,1.259567,1188.74
758,1.261233,1189.187
759,1.2629,1188.815
760,1.264567,1189.336
761,1.266233,1189.336
762,1.2679,1190.007
763,1.269567,1191.348
764,1.271233,1191.124
765,1.2729,1191.124
766,1.274567,1188.889
767,1.276233,1188.889
768,1.2779,1188.889
769,1.279567,1186.654
770,1.281233,1186.579
771,1.2829,1186.356
772,1.284567,1186.356
773,1.286233,1185.313
774,1.2879,1185.387
775,1.289567,1184.94
776,1.291233,1184.94
777,1.2929,1184.568
778,1.294567,1187.548
779,1.296233,1187.846
780,1.2979,1187.846
781,1.299567,1187.921
782,1.30125,1188.591
783,1.3029,1186.952
784,1.304583,1186.952
785,1.30635,1186.803
786,1.3079,1188.964
787,1.309567,1188.964
788,1.311217,1189.336
789,1.312883,1187.921
790,1.31455,1190.379
791,1.316217,1190.379
792,1.317883,1188.666
793,1.31955,1186.43
794,1.321217,1186.132
795,1.322967,1186.132
796,1.32455,1185.909
797,1.326217,1185.015
798,1.327883,1185.462
799,1.32955,1185.462
800,1.331217,1187.25
801,1.332883,1187.995
802,1.33455,1187.995
803,1.336217,1187.846
804,1.337883,1186.356
805,1.339667,1185.089
806,1.341217,1185.089
807,1.342883,1184.791
808,1.34455,1187.399
809,1.346217,1188.666
810,1.347883,1188.666
811,1.34955,1188.815
812,1.351217,1188.666
813,1.352883,1188.74
814,1.35455,1188.74
815,1.356217,1191.646
816,1.357883,1191.795
817,1.35955,1188.74
818,1.361217,1188.74
819,1.362883,1186.356
820,1.36455,1182.631
821,1.366217,1182.631
822,1.367883,1181.96
823,1.36955,1183.897
824,1.3712,1184.121
825,1.372867,1184.121
826,1.374533,1185.387
827,1.376217,1185.685
828,1.377867,1186.132
829,1.379533,1186.132
830,1.3812,1187.101
831,1.382867,1186.952
832,1.384533,1185.462
833,1.3862,1185.462
834,1.387867,1182.854
835,1.38955,1179.948
836,1.391217,1179.948
837,1.392867,1182.556
838,1.394533,1186.803
839,1.3962,1187.548
840,1.397867,1187.548
841,1.399533,1188.07
842,1.4012,1186.281
843,1.402867,1183.45
844,1.404533,1183.45
845,1.4062,1182.705
846,1.407867,1183.152
847,1.409533,1182.482
848,1.4112,1182.482
849,1.412867,1180.992
850,1.414533,1179.129
851,1.4162,1177.192
852,1.417867,1177.192
853,1.419533,1175.553
854,1.4212,1178.533
855,1.422867,1178.533
856,1.4246,1180.321
857,1.4262,1183.748
858,1.427867,1187.995
859,1.429533,1187.995
860,1.431183,1187.548
861,1.43285,1188.74
862,1.434517,1188.517
863,1.436183,1188.517
864,1.43785,1186.877
865,1.439517,1185.089
866,1.441267,1181.439
867,1.44285,1181.439
868,1.444533,1180.097
869,1.446183,1179.278
870,1.44785,1179.278
871,1.449517,1180.172
872,1.451183,1183.152
873,1.45285,1183.078
874,1.454517,1183.078
875,1.456183,1183.003
876,1.45795,1181.662
877,1.459517,1178.384
878,1.461183,1178.384
879,1.46285,1178.086
880,1.464517,1180.172
881,1.466183,1182.854
882,1.467833,1182.854
883,1.4695,1189.187
884,1.471167,1192.316
885,1.472833,1192.316
886,1.4745,1190.23
887,1.476167,1188.591
888,1.47785,1182.035
889,1.4795,1182.035
890,1.481167,1181.066
891,1.482833,1183.003
892,1.4845,1182.556
893,1.486167,1182.556
894,1.487833,1185.834
895,1.489483,1184.866
896,1.49115,1184.94
897,1.492817,1184.94
898,1.494483,1187.921
899,1.49615,1189.56
900,1.497817,1188.889
901,1.499483,1188.889
902,1.50115,1185.983
903,1.502817,1180.097
904,1.504483,1180.097
905,1.50615,1178.682
906,1.507817,1180.023
907,1.509483,1180.396
908,1.51115,1180.396
909,1.512833,1184.121
910,1.514483,1184.419
