"ID","sea_time","fid_signal"
1,0,142.552
2,0.001633,142.671
3,0.0033,142.969
4,0.004967,142.969
5,0.006633,142.977
6,0.0083,142.887
7,0.009967,142.887
8,0.011633,142.44
9,0.0133,141.919
10,0.014967,141.442
11,0.016717,141.442
12,0.0183,141.293
13,0.019967,141.501
14,0.021633,141.613
15,0.0233,141.613
16,0.024967,141.941
17,0.026633,142.172
18,0.0283,142.358
19,0.029967,142.358
20,0.031633,142.545
21,0.0334,142.276
22,0.03495,141.919
23,0.036617,141.919
24,0.038283,141.636
25,0.03995,141.568
26,0.041617,141.568
27,0.043283,141.703
28,0.04495,142.075
29,0.046617,142.455
30,0.048283,142.455
31,0.04995,142.388
32,0.051617,142.373
33,0.053283,142.105
34,0.05495,142.105
35,0.056617,141.904
36,0.058283,141.919
37,0.05995,141.77
38,0.061617,141.77
39,0.06328300000000001,142.001
40,0.06494999999999999,141.941
41,0.066617,141.941
42,0.068283,141.934
43,0.06995,142.224
44,0.071617,142.254
45,0.073283,142.254
46,0.07495,142.351
47,0.076617,142.299
48,0.07829999999999999,141.986
49,0.07994999999999999,141.986
50,0.081617,141.896
51,0.083283,141.844
52,0.08495,141.926
53,0.086617,141.926
54,0.088283,141.874
55,0.08995,142.038
56,0.091617,142.187
57,0.093267,142.187
58,0.094933,142.06
59,0.09660000000000001,142.135
60,0.098283,142.135
61,0.09993299999999999,141.755
62,0.1016,141.74
63,0.103267,141.785
64,0.104933,141.785
65,0.1066,141.732
66,0.108267,141.859
67,0.109933,141.68
68,0.1116,141.68
69,0.113267,141.561
70,0.114933,141.688
71,0.1166,141.725
72,0.118283,141.725
73,0.119933,142.008
74,0.1216,142.172
75,0.123267,142.172
76,0.124933,142.403
77,0.1266,142.522
78,0.128267,142.41
79,0.129933,142.41
80,0.1316,142.395
81,0.133267,142.448
82,0.135,142.187
83,0.1366,142.187
84,0.138267,142.038
85,0.139933,141.941
86,0.1416,141.755
87,0.143267,141.755
88,0.144933,142.03
89,0.1466,142.179
90,0.148267,142.179
91,0.149933,142.068
92,0.1517,142.008
93,0.15325,142.097
94,0.154917,142.097
95,0.156583,142.15
96,0.15825,142.261
97,0.159917,142.515
98,0.161583,142.515
99,0.16325,142.515
100,0.164917,142.41
101,0.166583,142.612
102,0.168367,142.612
103,0.169917,142.41
104,0.171583,142.336
105,0.17325,142.343
106,0.174917,142.343
107,0.176583,142.276
108,0.17825,142.276
109,0.179917,142.276
110,0.181583,142.187
111,0.18325,142.194
112,0.184933,142.224
113,0.186583,142.224
114,0.18825,142.314
115,0.189917,142.597
116,0.191583,142.783
117,0.19325,142.783
118,0.194917,142.641
119,0.196583,142.373
120,0.19825,142.045
121,0.1999,142.045
122,0.201567,141.732
123,0.203233,141.628
124,0.2049,141.628
125,0.206567,141.583
126,0.208233,141.561
127,0.2099,141.732
128,0.211567,141.732
129,0.213217,141.867
130,0.214883,142.135
131,0.21655,142.269
132,0.218217,142.269
133,0.219883,141.978
134,0.22155,142.09
135,0.223217,141.919
136,0.224883,141.919
137,0.22655,141.673
138,0.228217,141.948
139,0.229883,141.799
140,0.23155,141.799
141,0.233217,141.837
142,0.234883,141.919
143,0.236617,141.919
144,0.238217,142.016
145,0.239883,142.261
146,0.24155,142.455
147,0.243217,142.455
148,0.244883,142.835
149,0.24655,142.589
150,0.248217,142.485
151,0.249883,142.485
152,0.25155,142.254
153,0.253267,142.12
154,0.254883,142.053
155,0.25655,142.053
156,0.258217,142.112
157,0.259883,142.15
158,0.26155,142.15
159,0.263217,142.15
160,0.264883,142.142
161,0.26655,142.023
162,0.268217,142.023
163,0.269933,141.963
164,0.27155,141.755
165,0.273217,141.881
166,0.274867,141.881
167,0.276533,141.986
168,0.2782,142.038
169,0.279867,142.165
170,0.281533,142.165
171,0.2832,142.358
172,0.284867,142.373
173,0.28665,142.336
174,0.2882,142.336
175,0.289867,142.522
176,0.291533,142.388
177,0.2932,142.388
178,0.294867,142.112
179,0.296533,142.202
180,0.2982,142.03
181,0.299867,142.03
182,0.301533,141.956
183,0.3032,142.09
184,0.304867,141.993
185,0.306533,141.993
186,0.3082,141.971
187,0.309867,141.799
188,0.311533,142.09
189,0.3132,142.09
190,0.314867,142.5
191,0.316533,142.828
192,0.3182,142.828
193,0.319867,143.543
194,0.321533,143.878
195,0.3232,144.325
196,0.324883,144.325
197,0.326583,145.197
198,0.3282,146.508
199,0.329867,148.132
200,0.331533,148.132
201,0.333183,150.345
202,0.33485,153.244
203,0.336517,157.014
204,0.338183,157.014
205,0.33985,161.976
206,0.341517,168.242
207,0.343183,168.242
208,0.34485,175.536
209,0.346517,184.029
210,0.348183,194.445
211,0.34985,194.445
212,0.351517,206.858
213,0.353183,221.685
214,0.35485,239.424
215,0.356517,239.424
216,0.358183,259.75
217,0.35985,283.13
218,0.361517,310.063
219,0.363183,310.063
220,0.36485,340.283
221,0.366517,374.392
222,0.368183,412.852
223,0.36985,412.852
224,0.371533,455.26
225,0.373183,502.348
226,0.37485,502.348
227,0.376517,554.085
228,0.378183,610.657
229,0.37985,672.191
230,0.381517,672.191
231,0.383183,738.509
232,0.38485,810.102
233,0.386517,886.664
234,0.388217,886.664
235,0.38985,968.754
236,0.3915,1056.544
237,0.393167,1150.072
238,0.394833,1150.072
239,0.3965,1249.723
240,0.398167,1355.544
241,0.399833,1355.544
242,0.4015,1467.504
243,0.403167,1585.901
244,0.4049,1711.354
245,0.4065,1711.354
246,0.408167,1843.907
247,0.409833,1984.663
248,0.4115,2133.675
249,0.413167,2133.675
250,0.414833,2291.448
251,0.4165,2459.28
252,0.418167,2638.094
253,0.419833,2638.094
254,0.4215,2828.74
255,0.423167,3032.543
256,0.424833,3250.532
257,0.4265,3250.532
258,0.428167,3484.13
259,0.429833,3735.095
260,0.4315,3735.095
261,0.433167,4004.314
262,0.434833,4292.995
263,0.4365,4601.672
264,0.438167,4601.672
265,0.439833,4931.815
266,0.4415,5283.46
267,0.443167,5656.6
268,0.444833,5656.6
269,0.4465,6050.49
270,0.448167,6463.17
271,0.449833,6892.51
272,0.4515,6892.51
273,0.45315,7336.043
274,0.454817,7790.074
275,0.456483,7790.074
276,0.45815,8250.93
277,0.459817,8714.132
278,0.461483,9174.450999999999
279,0.46315,9174.450999999999
280,0.464817,9627.044
281,0.466483,10065.966
282,0.46815,10485.947
283,0.469817,10485.947
284,0.471483,10881.633
285,0.47315,11247.255
286,0.474817,11578.173
287,0.476483,11578.173
288,0.47815,11870.079
289,0.479817,12119.092
290,0.481483,12323.097
291,0.48315,12323.097
292,0.484817,12479.7
293,0.486483,12587.682
294,0.48815,12587.682
295,0.489817,12646.854
296,0.491467,12656.92
297,0.493133,12619.316
298,0.4948,12619.316
299,0.496467,12536.19
300,0.498133,12410.074
301,0.4998,12244.597
302,0.501483,12244.597
303,0.5031330000000001,12042.999
304,0.5048,11808.537
305,0.506467,11545.293
306,0.5081329999999999,11545.293
307,0.5098,11256.866
308,0.511467,10947.324
309,0.513117,10947.324
310,0.514783,10620.885
311,0.51645,10280.482
312,0.518117,9930.290000000001
313,0.519783,9930.290000000001
314,0.52145,9573.021000000001
315,0.5232329999999999,9211.332
316,0.524783,8848.593000000001
317,0.52645,8848.593000000001
318,0.5281169999999999,8486.852000000001
319,0.529783,8128.345
320,0.53145,7775.128
321,0.533117,7775.128
322,0.534783,7428.564
323,0.53645,7089.973
324,0.538117,7089.973
325,0.539783,6760.739
326,0.541467,6441.66
327,0.543117,6133.236
328,0.544783,6133.236
329,0.54645,5836.025
330,0.548117,5550.422
331,0.549783,5276.978
332,0.55145,5276.978
333,0.553117,5015.619
334,0.554783,4766.36
335,0.55645,4529
336,0.558117,4529
337,0.559783,4303.284
338,0.56145,4089.147
339,0.563133,3886.066
340,0.564783,3886.066
341,0.56645,3694.11
342,0.568117,3512.502
343,0.569783,3512.502
344,0.57145,3341.004
345,0.5731000000000001,3178.969
346,0.574767,3026.12
347,0.576433,3026.12
348,0.5780999999999999,2881.646
349,0.579767,2745.487
350,0.581433,2617.56
351,0.5831,2617.56
352,0.584767,2497.084
353,0.586433,2384.119
354,0.5881,2277.613
355,0.589767,2277.613
356,0.591433,2176.814
357,0.5931,2081.901
358,0.594767,2081.901
359,0.596433,1992.598
360,0.5981,1908.347
361,0.5997670000000001,1829.095
362,0.601433,1829.095
363,0.6031,1754.098
364,0.6047670000000001,1683.064
365,0.606433,1615.904
366,0.608183,1615.904
367,0.6097669999999999,1552.917
368,0.611433,1493.216
369,0.6131,1436.688
370,0.614767,1436.688
371,0.616433,1383.439
372,0.6181,1332.417
373,0.619767,1284.204
374,0.621433,1284.204
375,0.6231,1238.674
376,0.624767,1195.334
377,0.626433,1195.334
378,0.6281,1154.281
379,0.629767,1115.27
380,0.631433,1077.943
381,0.633083,1077.943
382,0.63475,1042.195
383,0.636417,1008.391
384,0.638083,976.1900000000001
385,0.63975,976.1900000000001
386,0.641533,944.927
387,0.643083,915.624
388,0.64475,887.275
389,0.646417,887.275
390,0.648083,859.998
391,0.64975,834.592
392,0.651417,834.592
393,0.653083,809.804
394,0.654767,786.155
395,0.656417,763.915
396,0.658083,763.915
397,0.6597499999999999,742.167
398,0.661417,721.373
399,0.663083,701.569
400,0.66475,701.569
401,0.666417,682.227
402,0.668083,663.854
403,0.66975,646.032
404,0.671417,646.032
405,0.673083,628.859
406,0.67475,612.535
407,0.676417,596.717
408,0.678083,596.717
409,0.67975,581.607
410,0.6814170000000001,567.071
411,0.683083,567.071
412,0.68475,553.0119999999999
413,0.6864170000000001,539.616
414,0.688083,526.7859999999999
415,0.68975,526.7859999999999
416,0.6914169999999999,514.053
417,0.693083,501.975
418,0.694733,490.159
419,0.6964,490.159
420,0.698067,478.879
421,0.699733,468.135
422,0.7014,457.466
423,0.703067,457.466
424,0.7047330000000001,447.355
425,0.7064,437.781
426,0.708067,437.781
427,0.7097329999999999,428.662
428,0.7114,419.579
429,0.713067,410.721
430,0.714733,410.721
431,0.7164,402.242
432,0.718067,394.277
433,0.719733,386.626
434,0.7214,386.626
435,0.723067,379.57
436,0.724733,372.32
437,0.726467,364.922
438,0.728067,364.922
439,0.72975,357.881
440,0.7314000000000001,351.138
441,0.733067,344.82
442,0.734733,344.82
443,0.7364000000000001,338.979
444,0.738067,333.13
445,0.739733,333.13
446,0.7413999999999999,327.185
447,0.743067,321.597
448,0.744733,316.158
449,0.7464,316.158
450,0.748067,310.95
451,0.749733,305.891
452,0.751383,300.862
453,0.75305,300.862
454,0.754717,296.153
455,0.756383,291.996
456,0.75805,287.913
457,0.7598,287.913
458,0.761383,283.986
459,0.76305,280.142
460,0.764717,280.142
461,0.766383,276.193
462,0.76805,272.408
463,0.769717,268.623
464,0.771383,268.623
465,0.77305,264.913
466,0.774717,261.262
467,0.776383,257.939
468,0.77805,257.939
469,0.779717,254.713
470,0.781383,251.487
471,0.783033,248.44
472,0.7847,248.44
473,0.786367,245.407
474,0.788033,242.464
475,0.7897,242.464
476,0.791367,239.611
477,0.793033,237.241
478,0.7947,234.649
479,0.796367,234.649
480,0.798033,232.071
481,0.7997,229.739
482,0.8013670000000001,227.183
483,0.803033,227.183
484,0.8047,224.829
485,0.8063669999999999,222.944
486,0.808033,220.969
487,0.8097,220.969
488,0.8113669999999999,219.248
489,0.813017,217.453
490,0.8147,215.65
491,0.81635,215.65
492,0.818017,213.839
493,0.8196830000000001,211.611
494,0.82135,211.611
495,0.823017,209.905
496,0.8246830000000001,207.916
497,0.82635,206.001
498,0.82805,206.001
499,0.8296829999999999,204.556
500,0.83135,202.782
501,0.833017,201.337
502,0.834683,201.337
503,0.83635,199.869
504,0.838017,198.334
505,0.839683,196.844
506,0.84135,196.844
507,0.843017,195.481
508,0.8447170000000001,194.333
509,0.84635,194.333
510,0.848017,193.305
511,0.849683,192.374
512,0.8513500000000001,191.346
513,0.853017,191.346
514,0.854683,190.526
515,0.8563499999999999,189.424
516,0.858017,188.462
517,0.859683,188.462
518,0.861433,187.419
519,0.863017,186.078
520,0.864683,185.013
521,0.86635,185.013
522,0.868017,183.754
523,0.869683,182.465
524,0.87135,181.317
525,0.873,181.317
526,0.874667,180.565
527,0.876333,179.805
528,0.8781330000000001,179.164
529,0.879667,179.164
530,0.881333,178.836
531,0.883,178.076
532,0.884667,178.076
533,0.886333,177.369
534,0.888,176.556
535,0.889667,175.551
536,0.891333,175.551
537,0.893,174.582
538,0.894667,173.897
539,0.896333,173.584
540,0.898,173.584
541,0.899683,173.278
542,0.901383,172.928
543,0.903,172.928
544,0.904683,172.392
545,0.9063330000000001,171.579
546,0.908,170.879
547,0.909667,170.879
548,0.9113329999999999,170.097
549,0.913,169.68
550,0.914667,169.411
551,0.916333,169.411
552,0.918,168.912
553,0.919667,168.413
554,0.921333,167.556
555,0.923,167.556
556,0.924667,166.982
557,0.926333,166.357
558,0.928,166.357
559,0.929667,165.753
560,0.931333,165.373
561,0.932983,164.725
562,0.93465,164.725
563,0.936317,164.39
564,0.937983,164.568
565,0.93965,164.494
566,0.941317,164.494
567,0.942983,164.099
568,0.94465,163.995
569,0.946317,163.361
570,0.947983,163.361
571,0.94965,162.892
572,0.951317,162.795
573,0.952983,161.946
574,0.95465,161.946
575,0.956317,161.387
576,0.957983,160.873
577,0.95965,160.873
578,0.961317,160.359
579,0.963033,160.366
580,0.96465,160.143
581,0.966333,160.143
582,0.968033,159.882
583,0.96965,159.636
584,0.971317,159.465
585,0.972983,159.465
586,0.97465,159.077
587,0.976317,158.861
588,0.977983,158.563
589,0.9797169999999999,158.563
590,0.981317,157.937
591,0.9829830000000001,157.654
592,0.98465,157.654
593,0.986317,157.736
594,0.9879829999999999,157.699
595,0.98965,157.699
596,0.991317,157.699
597,0.992967,157.557
598,0.994633,157.245
599,0.996417,156.842
600,0.997967,156.842
601,0.999633,156.574
602,1.0013,156.768
603,1.002967,156.559
604,1.004633,156.559
605,1.0063,156.76
606,1.007967,156.552
607,1.009633,156.254
608,1.0113,156.254
609,1.013083,156.224
610,1.014633,155.807
611,1.0163,155.807
612,1.017967,155.948
613,1.019633,155.546
614,1.0213,154.987
615,1.022967,154.987
616,1.024633,154.994
617,1.0263,154.629
618,1.027967,154.525
619,1.029633,154.525
620,1.0313,154.525
621,1.032967,154.264
622,1.034633,154.182
623,1.0363,154.182
624,1.037967,154.145
625,1.039633,153.966
626,1.0413,153.966
627,1.042983,153.594
628,1.04465,153.393
629,1.0463,153.206
630,1.047967,153.206
631,1.049633,153.057
632,1.051283,153.042
633,1.052967,152.908
634,1.054617,152.908
635,1.056283,152.647
636,1.05795,152.841
637,1.059617,152.685
638,1.061283,152.685
639,1.06295,152.573
640,1.064617,152.737
641,1.066283,152.603
642,1.06795,152.603
643,1.069617,152.722
644,1.071283,152.349
645,1.07295,152.349
646,1.0746,152.178
647,1.076267,151.865
648,1.077933,151.835
649,1.079617,151.835
650,1.081267,152.126
651,1.082933,151.932
652,1.0846,151.716
653,1.086267,151.716
654,1.087933,151.522
655,1.0896,151.493
656,1.091267,151.463
657,1.092933,151.463
658,1.0946,151.508
659,1.096267,151.56
660,1.097983,151.56
661,1.0996,151.351
662,1.101267,151.411
663,1.102933,151.314
664,1.1046,151.314
665,1.106267,150.904
666,1.107933,150.681
667,1.1096,150.561
668,1.11125,150.561
669,1.112917,150.539
670,1.11465,150.554
671,1.116283,150.383
672,1.117917,150.383
673,1.119583,150.36
674,1.12125,150.45
675,1.122917,150.45
676,1.124583,150.681
677,1.12625,150.837
678,1.127917,150.606
679,1.129583,150.606
680,1.131383,150.479
681,1.132917,150.122
682,1.134583,150.152
683,1.13625,150.152
684,1.137917,150.286
685,1.139583,150.263
686,1.14125,150.397
687,1.142917,150.397
688,1.144583,150.375
689,1.14625,150.293
690,1.147917,150.196
691,1.149583,150.196
692,1.15125,149.831
693,1.152917,149.444
694,1.154583,149.444
695,1.15625,149.131
696,1.157917,148.87
697,1.159583,149.19
698,1.16125,149.19
699,1.162917,149.295
700,1.164583,149.235
701,1.16625,149.161
702,1.167917,149.161
703,1.169583,148.87
704,1.17125,149.019
705,1.1729,148.781
706,1.174583,148.781
707,1.176233,148.796
708,1.1779,148.766
709,1.179567,148.766
710,1.181233,148.483
711,1.1829,148.699
712,1.184567,148.721
713,1.18625,148.721
714,1.187967,148.639
715,1.189567,148.639
716,1.191233,148.818
717,1.1929,148.818
718,1.194567,149.079
719,1.196233,148.967
720,1.1979,148.967
721,1.199567,148.967
722,1.201233,148.93
723,1.2029,148.535
724,1.204567,148.796
725,1.206233,148.796
726,1.2079,148.587
727,1.209567,148.237
728,1.211233,148.237
729,1.2129,147.983
730,1.214567,147.425
731,1.21625,147.648
732,1.2179,147.648
733,1.219567,147.767
734,1.221233,147.991
735,1.2229,148.296
736,1.224567,148.296
737,1.226233,148.147
738,1.2279,148.155
739,1.229567,147.924
740,1.231233,147.924
741,1.232917,147.671
742,1.23455,147.499
743,1.236217,147.499
744,1.237883,147.536
745,1.23955,147.79
746,1.241217,148.006
747,1.242883,148.006
748,1.24455,148.013
749,1.246217,147.596
750,1.247883,147.223
751,1.249633,147.223
752,1.251217,147.253
753,1.252883,147.179
754,1.25455,147.313
755,1.256217,147.313
756,1.257883,147.648
757,1.25955,147.253
758,1.26125,147.231
759,1.262917,147.231
760,1.26455,147.305
761,1.266217,147.074
762,1.267883,147.074
763,1.26955,147.156
764,1.271217,147.015
765,1.272883,147.06
766,1.27455,147.06
767,1.276217,146.993
768,1.277883,146.933
769,1.27955,147.38
770,1.281217,147.38
771,1.282883,147.127
772,1.28455,147.142
773,1.286217,147.216
774,1.287883,147.216
775,1.28955,146.896
776,1.291217,146.925
777,1.292867,146.925
778,1.294533,146.903
779,1.2962,147
780,1.297867,147.134
781,1.299533,147.134
782,1.3012,147.119
783,1.302867,147.037
784,1.304533,146.821
785,1.3062,146.821
786,1.307883,146.575
787,1.309533,146.65
788,1.3112,146.56
789,1.312867,146.56
790,1.314533,146.62
791,1.3162,146.806
792,1.317867,146.657
793,1.319533,146.657
794,1.3212,146.747
795,1.322867,146.672
796,1.324533,146.672
797,1.3262,146.605
798,1.327867,146.449
799,1.329533,146.389
800,1.3312,146.389
801,1.332867,146.449
802,1.334567,146.233
803,1.3362,146.501
804,1.337867,146.501
805,1.339533,146.635
806,1.3412,146.791
807,1.342867,146.873
808,1.344533,146.873
809,1.3462,146.806
810,1.347867,146.702
811,1.349533,146.702
812,1.351183,146.471
813,1.35285,146.396
814,1.354517,146.344
815,1.356183,146.344
816,1.35785,146.203
817,1.359517,146.255
818,1.361183,146.098
819,1.36285,146.098
820,1.3645,145.972
821,1.366167,146.061
822,1.36795,146.061
823,1.3695,146.061
824,1.371167,146.3
825,1.372833,146.151
826,1.3745,146.151
827,1.376167,146.396
828,1.377833,146.3
829,1.3795,145.972
830,1.381167,145.972
831,1.382833,145.987
832,1.3845,145.502
833,1.386167,145.607
834,1.387833,145.607
835,1.3895,145.689
836,1.391167,145.905
837,1.392833,146.106
838,1.3945,146.106
839,1.396167,145.964
840,1.397833,146.255
841,1.399517,146.173
842,1.401167,146.173
843,1.402833,146.3
844,1.4045,146.277
845,1.406167,146.277
846,1.407833,146.128
847,1.4095,146.292
848,1.411167,145.897
849,1.412817,145.897
850,1.414483,145.972
851,1.41615,145.845
852,1.417817,145.8
853,1.419483,145.8
854,1.42115,146.084
855,1.422817,145.845
856,1.424483,145.748
857,1.42615,145.748
858,1.427817,145.607
859,1.429483,145.383
860,1.43115,145.383
861,1.432817,145.681
862,1.434483,145.733
863,1.43615,145.532
864,1.437817,145.532
865,1.439483,145.562
866,1.44115,145.301
867,1.442817,145.487
868,1.444483,145.487
869,1.44615,145.584
870,1.447817,145.517
871,1.449483,145.338
872,1.45115,145.338
873,1.452867,145.048
874,1.454483,145.16
875,1.45615,145.137
876,1.457817,145.137
877,1.459483,145.145
878,1.46115,145.152
879,1.462817,145.152
880,1.464483,144.757
881,1.46615,144.765
882,1.467817,144.787
883,1.4695,144.787
884,1.47115,144.772
885,1.4728,144.981
886,1.474467,145.033
887,1.476133,145.033
888,1.4778,145.368
889,1.479467,145.495
890,1.481133,145.696
891,1.482817,145.696
892,1.484467,145.547
893,1.486133,145.316
894,1.4878,145.316
895,1.489467,145.42
896,1.491133,145.286
897,1.4928,145.465
898,1.494467,145.465
899,1.496133,145.316
900,1.4978,145.338
901,1.499467,145.219
902,1.501133,145.219
903,1.5028,144.906
904,1.504467,144.854
905,1.506133,144.541
906,1.5078,144.541
907,1.509467,144.489
908,1.511133,144.631
909,1.512817,144.713
910,1.514467,144.713
911,1.516133,144.407
912,1.5178,144.534
913,1.519467,144.534
914,1.521133,144.459
915,1.5228,144.593
916,1.524467,144.936
917,1.526133,144.936
918,1.5278,144.891
919,1.529467,145.078
920,1.531117,145.257
921,1.532783,145.257
922,1.53445,145.495
923,1.536117,145.517
924,1.537783,145.383
925,1.53945,145.383
926,1.541117,144.929
927,1.542783,144.869
928,1.544483,144.869
929,1.546117,145.003
930,1.547783,145.286
931,1.54945,145.435
932,1.551117,145.435
933,1.552783,145.13
934,1.55445,144.891
935,1.556117,144.839
936,1.557783,144.839
937,1.55945,144.795
938,1.561117,144.839
939,1.562783,144.69
940,1.56445,144.69
941,1.566117,144.4
942,1.567783,144.459
943,1.56945,144.459
944,1.571183,144.593
945,1.572783,145.018
946,1.57445,145.13
947,1.576117,145.13
948,1.577783,145.122
949,1.57945,144.944
950,1.581117,144.698
