"ID","sea_time","fid_signal"
1,0,1168.475
2,0.001667,1172.423
3,0.003333,1172.721
4,0.005,1172.721
5,0.006667,1176.298
6,0.008333,1178.384
7,0.01,1174.957
8,0.011667,1174.957
9,0.013333,1172.498
10,0.015017,1169.592
11,0.016667,1169.592
12,0.018333,1167.58
13,0.02,1167.357
14,0.021667,1167.729
15,0.023333,1167.729
16,0.025,1168.624
17,0.026667,1171.753
18,0.028333,1175.031
19,0.03,1175.031
20,0.031667,1175.925
21,0.0334,1175.776
22,0.035,1173.466
23,0.036667,1173.466
24,0.038333,1173.094
25,0.04,1172.423
26,0.04165,1171.082
27,0.04335,1171.082
28,0.044983,1171.827
29,0.04665,1168.624
30,0.048317,1168.624
31,0.050033,1170.188
32,0.05165,1172.87
33,0.053317,1173.839
34,0.054983,1173.839
35,0.05665,1177.043
36,0.058317,1176.149
37,0.059983,1173.765
38,0.06165,1173.765
39,0.063317,1171.753
40,0.064983,1170.412
41,0.06676700000000001,1170.561
42,0.068317,1170.561
43,0.069983,1173.839
44,0.07165000000000001,1172.721
45,0.07331699999999999,1172.721
46,0.07498299999999999,1175.106
47,0.07665,1175.553
48,0.078317,1174.584
49,0.079983,1174.584
50,0.08165,1174.882
51,0.083317,1170.486
52,0.084983,1171.753
53,0.08665,1171.753
54,0.08831700000000001,1170.188
55,0.08998299999999999,1171.306
56,0.091667,1170.561
57,0.093317,1170.561
58,0.094983,1167.804
59,0.09665,1169.965
60,0.098317,1169.294
61,0.099983,1169.294
62,0.101633,1172.721
63,0.1033,1174.957
64,0.104967,1174.957
65,0.106633,1173.988
66,0.1083,1173.243
67,0.109967,1174.882
68,0.111633,1174.882
69,0.1133,1171.976
70,0.114967,1169.965
71,0.116633,1169.443
72,0.1183,1169.443
73,0.119967,1167.133
74,0.121633,1171.753
75,0.1233,1174.957
76,0.124967,1174.957
77,0.126633,1177.49
78,0.1283,1177.415
79,0.129983,1177.415
80,0.131633,1176
81,0.1333,1174.957
82,0.134967,1175.404
83,0.136633,1175.404
84,0.138283,1173.168
85,0.13995,1171.976
86,0.141617,1169.22
87,0.143283,1169.22
88,0.14495,1168.475
89,0.146617,1171.827
90,0.148283,1174.882
91,0.14995,1174.882
92,0.15165,1179.278
93,0.153283,1178.384
94,0.15495,1178.384
95,0.156617,1175.255
96,0.158283,1173.765
97,0.159967,1170.859
98,0.161617,1170.859
99,0.163267,1171.306
100,0.164933,1172.572
101,0.1666,1172.572
102,0.168333,1172.572
103,0.169933,1176
104,0.1716,1177.415
105,0.173267,1178.682
106,0.174933,1178.682
107,0.1766,1179.576
108,0.178267,1175.255
109,0.179933,1171.455
110,0.1816,1171.455
111,0.183267,1172.945
112,0.185033,1169.443
113,0.1866,1169.443
114,0.188267,1172.87
115,0.189933,1175.404
116,0.1916,1171.678
117,0.193267,1171.678
118,0.194933,1173.094
119,0.1966,1170.188
120,0.198267,1170.039
121,0.199933,1170.039
122,0.2016,1171.604
123,0.203267,1168.624
124,0.204933,1168.102
125,0.2066,1168.102
126,0.208267,1168.475
127,0.209933,1168.698
128,0.2116,1168.698
129,0.213267,1170.486
130,0.214933,1170.859
131,0.2166,1168.475
132,0.218283,1168.475
133,0.219933,1167.357
134,0.221583,1167.879
135,0.22325,1167.953
136,0.224917,1167.953
137,0.226583,1170.337
138,0.22825,1171.008
139,0.229917,1171.008
140,0.231583,1171.008
141,0.233283,1175.18
142,0.234917,1177.415
143,0.236583,1179.352
144,0.23825,1179.352
145,0.239917,1177.117
146,0.241583,1174.733
147,0.24325,1174.733
148,0.244917,1173.094
149,0.246583,1172.125
150,0.24825,1175.404
151,0.249917,1175.404
152,0.251583,1175.329
153,0.25325,1173.317
154,0.254917,1171.157
155,0.256583,1171.157
156,0.25825,1168.773
157,0.259917,1167.804
158,0.261583,1167.506
159,0.26325,1167.506
160,0.264917,1170.486
161,0.266583,1170.933
162,0.26825,1170.933
163,0.269917,1169.667
164,0.271583,1171.306
165,0.27325,1168.326
166,0.274917,1168.326
167,0.276583,1171.157
168,0.27825,1174.137
169,0.279917,1172.423
170,0.281583,1172.423
171,0.283233,1173.466
172,0.2849,1173.615
173,0.286583,1170.561
174,0.288233,1170.561
175,0.2899,1171.827
176,0.291567,1172.647
177,0.293233,1170.486
178,0.2949,1170.486
179,0.296567,1172.945
180,0.298233,1171.678
181,0.2999,1171.678
182,0.301567,1170.039
183,0.303333,1171.38
184,0.3049,1170.263
185,0.306567,1170.263
186,0.308233,1172.125
187,0.3099,1173.765
188,0.311567,1172.125
189,0.313233,1172.125
190,0.3149,1173.094
191,0.316567,1173.243
192,0.318233,1173.839
193,0.3199,1173.839
194,0.321567,1176.372
195,0.323233,1176.149
196,0.3249,1176.149
197,0.326567,1174.807
198,0.328233,1173.392
199,0.3299,1171.678
200,0.331567,1171.678
201,0.333233,1171.38
202,0.3349,1171.976
203,0.336567,1173.094
204,0.338233,1173.094
205,0.3399,1171.529
206,0.34155,1168.177
207,0.343217,1168.475
208,0.344883,1168.475
209,0.34655,1168.027
210,0.348217,1167.655
211,0.349883,1168.326
212,0.35155,1168.326
213,0.353217,1169.592
214,0.354883,1166.984
215,0.35655,1166.984
216,0.358217,1166.91
217,0.359883,1168.773
218,0.36155,1168.475
219,0.363217,1168.475
220,0.364883,1171.157
221,0.36655,1174.51
222,0.368217,1175.404
223,0.369883,1175.404
224,0.37155,1173.839
225,0.373217,1174.807
226,0.3749,1171.976
227,0.37655,1171.976
228,0.378217,1174.212
229,0.379883,1175.851
230,0.38155,1175.851
231,0.383217,1176.298
232,0.384883,1178.086
233,0.38655,1176.67
234,0.388217,1176.67
235,0.3899,1174.733
236,0.39155,1176.819
237,0.393217,1178.682
238,0.394883,1178.682
239,0.39655,1178.905
240,0.398217,1181.364
241,0.399883,1180.246
242,0.401533,1180.246
243,0.4032,1182.929
244,0.404867,1189.038
245,0.406533,1189.038
246,0.4082,1193.807
247,0.409867,1195.446
248,0.411533,1197.681
249,0.4132,1197.681
250,0.414867,1196.563
251,0.416533,1197.681
252,0.4182,1203.418
253,0.419867,1203.418
254,0.421633,1208.261
255,0.4232,1215.413
256,0.424867,1225.62
257,0.426533,1225.62
258,0.4282,1237.616
259,0.42985,1251.549
260,0.431517,1268.014
261,0.433183,1268.014
262,0.43485,1286.641
263,0.436517,1310.334
264,0.438183,1310.334
265,0.43985,1345.649
266,0.441517,1397.207
267,0.443183,1469.255
268,0.44485,1469.255
269,0.446517,1570.359
270,0.448183,1705.363
271,0.44985,1889.467
272,0.451517,1889.467
273,0.4532,2139.658
274,0.45485,2466.366
275,0.456517,2892.539
276,0.458183,2892.539
277,0.45985,3439.635
278,0.4615,4126.355
279,0.463167,4126.355
280,0.464833,4980.639
281,0.4665,6028.563
282,0.468167,7283.166
283,0.469833,7283.166
284,0.4715,8762.554
285,0.473167,10491.088
286,0.474833,12476.966
287,0.4765,12476.966
288,0.478167,14739.036
289,0.479833,17294.361
290,0.4815,20139.068
291,0.483167,20139.068
292,0.484833,23274.422
293,0.4865,26686.34
294,0.488167,30348.748
295,0.489833,30348.748
296,0.4915,34228.191
297,0.493167,38276.91
298,0.494833,38276.91
299,0.4965,42436.199
300,0.498167,46641.828
301,0.499833,50826.742
302,0.5014999999999999,50826.742
303,0.503167,54920.316
304,0.504833,58862.641
305,0.5065,62594.711
306,0.508167,62594.711
307,0.509833,66066.016
308,0.5115,69233.32799999999
309,0.513167,72059.633
310,0.514833,72059.633
311,0.5165,74521.523
312,0.518167,76599.492
313,0.519833,76599.492
314,0.521517,78282.95299999999
315,0.52315,79572.125
316,0.52485,80474.016
317,0.526483,80474.016
318,0.52815,80998.016
319,0.529817,81167.148
320,0.531483,81004.05499999999
321,0.53315,81004.05499999999
322,0.534817,80530.94500000001
323,0.536483,79780.742
324,0.53815,78781.69500000001
325,0.53995,78781.69500000001
326,0.541483,77565.906
327,0.54315,76162.742
328,0.544817,74596.32799999999
329,0.5464830000000001,74596.32799999999
330,0.54815,72900.727
331,0.549817,71103.05499999999
332,0.5514829999999999,71103.05499999999
333,0.55315,69223.273
334,0.554817,67290.07000000001
335,0.5564829999999999,65319.91
336,0.558217,65319.91
337,0.559817,63324.867
338,0.561483,61326.996
339,0.56315,59338.359
340,0.564833,59338.359
341,0.566483,57364.328
342,0.56815,55419.727
343,0.569817,53510.742
344,0.571483,53510.742
345,0.57315,51642.656
346,0.574817,49824.715
347,0.576483,49824.715
348,0.5781500000000001,48059
349,0.579817,46345.145
350,0.581467,44689.699
351,0.583133,44689.699
352,0.5848,43092.742
353,0.586467,41552.113
354,0.588133,40070.563
355,0.5898,40070.563
356,0.591467,38648.172
357,0.593133,37279.652
358,0.5948,35969.613
359,0.596483,35969.613
360,0.598167,34712.254
361,0.5998,33506.305
362,0.601467,33506.305
363,0.603133,32353.029
364,0.6048,31244.68
365,0.606467,30186.102
366,0.608133,30186.102
367,0.6098,29170.885
368,0.611467,28199.852
369,0.613133,27273.297
370,0.6148,27273.297
371,0.616467,26387.498
372,0.618133,25539.025
373,0.6198,24723.561
374,0.621467,24723.561
375,0.623133,23943.26
376,0.62485,23194.625
377,0.626467,22477.73
378,0.6281330000000001,22477.73
379,0.6298,21794.811
380,0.631467,21139.457
381,0.6331329999999999,21139.457
382,0.6348,20509.734
383,0.636467,19906.76
384,0.638133,19323.156
385,0.6398,19323.156
386,0.64155,18760.264
387,0.643117,18222.184
388,0.644783,17705.635
389,0.64645,17705.635
390,0.6481170000000001,17208.979
391,0.649783,16730.279
392,0.65145,16269.907
393,0.6531169999999999,16269.907
394,0.654783,15822.574
395,0.65645,15394.985
396,0.658233,14981.479
397,0.659783,14981.479
398,0.66145,14581.382
399,0.663117,14196.188
400,0.664783,14196.188
401,0.66645,13821.498
402,0.668117,13464.242
403,0.6698,13115.854
404,0.671467,13115.854
405,0.673117,12780.056
406,0.674783,12457.371
407,0.67645,12144.968
408,0.678117,12144.968
409,0.679783,11844.337
410,0.68145,11552.498
411,0.683117,11267.96
412,0.684783,11267.96
413,0.68645,10995.716
414,0.688117,10732.338
415,0.689783,10732.338
416,0.69145,10477.081
417,0.693117,10227.114
418,0.694783,9980.871999999999
419,0.69645,9980.871999999999
420,0.698117,9741.933000000001
421,0.699783,9511.635
422,0.70145,9291.469999999999
423,0.7030999999999999,9291.469999999999
424,0.704767,9078.16
425,0.706433,8871.108
426,0.7081,8669.049000000001
427,0.709767,8669.049000000001
428,0.711433,8472.949000000001
429,0.7131,8279.159
430,0.714767,8279.159
431,0.716433,8092.895
432,0.7181,7911.175
433,0.719767,7736.981
434,0.721417,7736.981
435,0.723083,7573.068
436,0.72475,7411.242
437,0.726417,7251.501
438,0.728083,7251.501
439,0.72975,7094.592
440,0.731417,6937.608
441,0.733083,6786.287
442,0.73475,6786.287
443,0.736417,6641.373
444,0.738083,6503.463
445,0.739767,6367.639
446,0.741417,6367.639
447,0.74315,6237.552
448,0.74475,6113.5
449,0.746417,6113.5
450,0.7480830000000001,5990.267
451,0.74975,5869.642
452,0.751417,5748.123
453,0.7530829999999999,5748.123
454,0.75475,5627.498
455,0.756417,5511.939
456,0.758083,5404.055
457,0.759867,5404.055
458,0.7614,5301.535
459,0.7630670000000001,5200.58
460,0.764733,5099.997
461,0.7664,5099.997
462,0.7680670000000001,5000.383
463,0.769733,4903.6
464,0.7714,4903.6
465,0.7730669999999999,4810.616
466,0.774733,4721.284
467,0.7764,4636.646
468,0.778067,4636.646
469,0.779733,4550.666
470,0.7814,4468.858
471,0.783067,4384.071
472,0.784733,4384.071
473,0.7864,4299.656
474,0.788067,4223.362
475,0.789733,4146.77
476,0.7914,4146.77
477,0.793067,4073.978
478,0.794733,4003.048
479,0.7964,4003.048
480,0.798067,3932.491
481,0.799733,3863.275
482,0.8014,3797.486
483,0.803067,3797.486
484,0.804733,3735.498
485,0.8064,3670.454
486,0.808067,3608.987
487,0.809733,3608.987
488,0.8114,3551.096
489,0.813067,3489.628
490,0.814733,3431.141
491,0.8164169999999999,3431.141
492,0.818067,3376.827
493,0.819717,3321.171
494,0.821383,3268.495
495,0.8230499999999999,3268.495
496,0.824717,3221.557
497,0.826383,3172.01
498,0.82805,3172.01
499,0.829717,3122.24
500,0.831383,3077.611
501,0.83305,3030.226
502,0.834717,3030.226
503,0.836383,2983.436
504,0.83805,2941.936
505,0.839717,2896.041
506,0.841383,2896.041
507,0.84305,2851.635
508,0.8447170000000001,2812.445
509,0.846383,2772.436
510,0.84805,2772.436
511,0.8497169999999999,2734.81
512,0.851383,2701.655
513,0.85305,2701.655
514,0.8547169999999999,2666.935
515,0.856383,2630.8
516,0.85805,2598.315
517,0.859717,2598.315
518,0.8614000000000001,2561.063
519,0.86305,2525.374
520,0.864717,2495.572
521,0.866383,2495.572
522,0.86805,2464.727
523,0.869717,2436.563
524,0.871383,2406.985
525,0.87305,2406.985
526,0.874717,2376.288
527,0.876383,2348.274
528,0.8781,2318.323
529,0.879717,2318.323
530,0.881367,2290.458
531,0.883033,2262.89
532,0.8847,2262.89
533,0.886367,2234.876
534,0.888033,2213.27
535,0.88975,2194.569
536,0.891417,2194.569
537,0.893033,2170.876
538,0.8947000000000001,2149.195
539,0.896367,2125.725
540,0.898033,2125.725
541,0.8997000000000001,2100.021
542,0.901367,2077.222
543,0.903033,2056.509
544,0.9046999999999999,2056.509
545,0.906367,2035.946
546,0.908033,2015.904
547,0.9097,2015.904
548,0.911467,1998.618
549,0.913033,1981.929
550,0.9147,1965.389
551,0.916367,1965.389
552,0.918033,1948.401
553,0.9197,1933.128
554,0.921367,1915.246
555,0.923033,1915.246
556,0.9247,1896.62
557,0.9263670000000001,1880.601
558,0.928033,1866.296
559,0.9297,1866.296
560,0.9313669999999999,1851.246
561,0.933033,1835.004
562,0.9347,1819.357
563,0.9363669999999999,1819.357
564,0.938033,1800.88
565,0.9397,1788.065
566,0.941367,1788.065
567,0.943017,1776.218
568,0.9446830000000001,1766.16
569,0.94635,1756.251
570,0.948017,1756.251
571,0.9496830000000001,1742.095
572,0.95135,1728.386
573,0.953017,1712.441
574,0.9546829999999999,1712.441
575,0.95635,1698.285
576,0.958017,1685.098
577,0.959717,1673.624
578,0.96135,1673.624
579,0.963017,1664.013
580,0.964683,1655.146
581,0.96635,1655.146
582,0.968033,1643.226
583,0.969683,1630.858
584,0.97135,1617.67
585,0.973033,1617.67
586,0.974683,1607.463
587,0.9763500000000001,1601.204
588,0.978017,1596.138
589,0.979683,1596.138
590,0.9813499999999999,1588.687
591,0.983017,1579.523
592,0.984683,1569.688
593,0.9863499999999999,1569.688
594,0.988017,1559.258
595,0.989683,1554.117
596,0.99135,1547.188
597,0.993017,1547.188
598,0.994683,1540.333
599,0.996367,1534.671
600,0.998017,1534.671
601,0.999683,1526.326
602,1.001333,1518.95
603,1.003,1510.829
604,1.004667,1510.829
605,1.006333,1505.166
606,1.008,1498.759
607,1.009667,1492.128
608,1.011317,1492.128
609,1.013033,1484.752
610,1.01465,1476.705
611,1.016317,1470.745
612,1.017983,1470.745
613,1.01965,1463.592
614,1.021317,1456.886
615,1.022983,1456.886
616,1.02465,1452.565
617,1.026317,1445.636
618,1.027983,1443.848
619,1.029767,1443.848
620,1.031317,1441.464
621,1.032983,1438.037
622,1.03465,1434.386
623,1.036333,1434.386
624,1.037983,1426.563
625,1.03965,1421.943
626,1.041317,1414.269
627,1.042983,1414.269
628,1.04465,1409.65
629,1.046317,1405.179
630,1.047983,1405.179
631,1.04965,1401.454
632,1.051317,1396.388
633,1.052983,1391.396
634,1.05465,1391.396
635,1.056317,1385.808
636,1.057983,1382.083
637,1.05965,1382.828
638,1.061333,1382.828
639,1.062967,1381.636
640,1.064633,1379.177
641,1.0663,1376.197
642,1.067967,1376.197
643,1.069633,1371.577
644,1.0713,1367.256
645,1.072967,1366.511
646,1.074633,1366.511
647,1.0763,1363.829
648,1.077967,1362.637
649,1.079633,1362.637
650,1.0813,1361.966
651,1.082967,1358.092
652,1.084633,1354.367
653,1.0863,1354.367
654,1.087967,1346.171
655,1.089633,1338.199
656,1.0913,1334.771
657,1.092967,1334.771
658,1.094633,1331.94
659,1.0963,1333.43
660,1.098017,1334.175
661,1.099633,1334.175
662,1.1013,1332.834
663,1.102967,1332.313
664,1.104633,1332.313
665,1.1063,1327.246
666,1.107967,1323.521
667,1.109633,1322.553
668,1.1113,1322.553
669,1.112967,1319.2
670,1.114633,1316.592
671,1.1163,1315.177
672,1.117967,1315.177
673,1.119633,1309.216
674,1.121283,1305.193
675,1.12295,1305.342
676,1.124617,1305.342
677,1.126283,1304.82
678,1.12795,1307.651
679,1.129617,1306.161
680,1.131283,1306.161
681,1.13295,1304.001
682,1.134617,1297.146
683,1.136283,1297.146
684,1.13795,1289.174
685,1.139617,1286.79
686,1.141283,1285.97
687,1.142967,1285.97
688,1.144617,1287.833
689,1.146283,1289.77
690,1.14805,1289.844
691,1.149617,1289.844
692,1.151283,1285.225
693,1.15295,1284.853
694,1.154617,1285.225
695,1.156283,1285.225
696,1.15795,1285.374
697,1.159617,1284.406
698,1.161283,1284.406
699,1.16295,1282.916
700,1.164617,1282.841
701,1.166283,1279.935
702,1.16795,1279.935
703,1.169617,1280.01
704,1.171283,1275.688
705,1.17295,1270.697
706,1.174617,1270.697
707,1.1763,1269.579
708,1.17795,1266.003
709,1.1796,1263.991
710,1.181267,1263.991
711,1.182933,1261.458
712,1.1846,1258.105
713,1.186267,1258.105
714,1.187933,1259.67
715,1.1896,1261.085
716,1.191267,1260.862
717,1.192933,1260.862
718,1.1946,1260.638
719,1.196267,1258.627
720,1.197933,1259.521
721,1.1996,1259.521
722,1.201267,1259.074
723,1.202933,1258.552
724,1.2046,1256.615
725,1.206267,1256.615
726,1.207933,1254.007
727,1.2096,1251.101
728,1.211267,1251.101
729,1.212933,1251.101
730,1.2146,1252.219
731,1.216267,1250.953
732,1.217933,1250.953
733,1.2196,1250.953
734,1.221267,1250.654
735,1.222933,1248.494
736,1.2246,1248.494
737,1.226267,1248.717
738,1.227933,1247.823
739,1.2296,1247.004
740,1.231267,1247.004
741,1.23305,1249.984
742,1.2346,1247.227
743,1.236267,1247.451
744,1.237933,1247.451
745,1.239583,1242.98
746,1.24125,1237.765
747,1.242917,1237.765
748,1.244617,1238.883
749,1.24625,1235.604
750,1.247917,1235.828
751,1.249583,1235.828
752,1.25125,1236.349
753,1.252917,1233.965
754,1.254583,1236.945
755,1.25625,1236.945
756,1.257917,1239.479
757,1.259583,1239.404
758,1.26125,1238.957
759,1.262917,1238.957
760,1.264583,1237.169
761,1.26635,1235.977
762,1.267917,1235.53
763,1.269583,1235.53
764,1.27125,1236.126
765,1.272917,1237.467
766,1.274583,1237.467
767,1.27625,1235.604
768,1.277917,1232.475
769,1.279583,1233.965
770,1.28125,1233.965
771,1.282917,1233.444
772,1.284583,1233.369
773,1.28625,1235.306
774,1.287917,1235.306
775,1.289583,1232.699
776,1.29125,1229.793
777,1.292917,1226.515
778,1.294583,1226.515
779,1.29625,1223.236
780,1.297917,1221.672
781,1.299583,1221.672
782,1.301233,1223.46
783,1.302883,1227.111
784,1.30455,1231.879
785,1.306217,1231.879
786,1.307883,1235.083
787,1.30955,1233.444
788,1.311217,1232.699
789,1.312883,1232.699
790,1.31455,1228.824
791,1.316283,1227.111
792,1.3179,1229.048
793,1.31955,1229.048
794,1.321217,1227.632
795,1.322883,1226.366
796,1.32455,1225.471
797,1.326217,1225.471
798,1.327883,1221.15
799,1.32955,1220.927
800,1.331217,1220.927
801,1.332883,1221.821
802,1.33455,1222.342
803,1.336217,1221.374
804,1.337883,1221.374
805,1.33955,1219.287
806,1.341217,1219.958
807,1.342883,1217.872
808,1.34455,1217.872
809,1.346217,1219.362
810,1.347883,1221.374
811,1.34955,1219.958
812,1.351267,1219.958
813,1.352883,1217.946
814,1.35455,1217.425
815,1.356217,1217.425
816,1.357883,1217.425
817,1.35955,1220.182
818,1.3612,1222.342
819,1.362867,1222.342
820,1.364533,1222.566
821,1.3662,1220.48
822,1.367867,1216.456
823,1.369533,1216.456
824,1.3712,1213.178
825,1.372867,1213.178
826,1.374533,1214.072
827,1.3762,1214.072
828,1.377867,1212.06
829,1.379533,1213.178
830,1.3812,1213.178
831,1.382867,1212.507
832,1.384583,1211.613
833,1.3862,1213.402
834,1.387867,1213.402
835,1.389533,1213.104
836,1.391217,1212.88
837,1.392867,1213.923
838,1.394533,1213.923
839,1.3962,1215.339
840,1.397867,1213.625
841,1.399533,1210.57
842,1.4012,1210.57
843,1.402867,1207.516
844,1.404533,1204.982
845,1.4062,1205.653
846,1.407867,1205.653
847,1.409533,1207.739
848,1.4112,1209.825
849,1.412867,1209.825
850,1.414533,1211.017
851,1.4162,1209.9
852,1.417867,1210.123
853,1.419533,1210.123
854,1.4212,1209.229
855,1.42285,1206.547
856,1.424517,1206.696
857,1.426183,1206.696
858,1.42785,1206.473
859,1.429517,1203.492
860,1.431183,1205.131
861,1.43285,1205.131
862,1.434517,1207.665
863,1.436183,1209.006
864,1.43785,1209.006
865,1.439517,1210.719
866,1.441183,1211.39
867,1.44285,1210.794
868,1.444517,1210.794
869,1.446183,1208.037
870,1.44785,1209.825
871,1.449517,1211.688
872,1.451183,1211.688
873,1.45285,1212.284
874,1.454517,1214.519
875,1.456183,1213.402
876,1.457883,1213.402
877,1.459517,1211.315
878,1.461183,1207.814
879,1.46285,1204.163
880,1.464517,1204.163
881,1.466183,1201.257
882,1.46785,1197.904
883,1.469583,1197.904
884,1.471183,1199.842
885,1.47285,1202.077
886,1.474517,1204.386
887,1.476183,1204.386
888,1.47785,1207.963
889,1.479517,1206.398
890,1.481167,1205.951
891,1.482833,1205.951
892,1.4845,1206.994
893,1.486233,1207.069
894,1.487833,1205.429
895,1.4895,1205.429
896,1.491167,1204.312
897,1.492833,1202.226
898,1.4945,1202.226
899,1.496167,1202.375
900,1.497833,1205.206
901,1.4995,1205.578
902,1.501167,1205.578
903,1.50295,1204.386
904,1.5045,1203.12
905,1.506167,1202.002
