"ID","sea_time","fid_signal"
1,0,39.921
2,0.001667,39.921
3,0.003333,39.923
4,0.005,39.952
5,0.00665,39.891
6,0.008317,39.891
7,0.009983000000000001,39.733
8,0.01165,39.468
9,0.013317,39.218
10,0.014983,39.218
11,0.016683,39.111
12,0.018317,39.166
13,0.019983,39.166
14,0.02165,39.364
15,0.023317,39.528
16,0.024983,39.609
17,0.02665,39.609
18,0.028317,39.611
19,0.029983,39.599
20,0.03165,39.574
21,0.033333,39.574
22,0.034983,39.586
23,0.03665,39.627
24,0.038317,39.653
25,0.039983,39.653
26,0.04165,39.714
27,0.043317,39.714
28,0.044983,39.714
29,0.04665,39.698
30,0.0483,39.703
31,0.050033,39.686
32,0.051633,39.686
33,0.0533,39.673
34,0.054967,39.669
35,0.056633,39.627
36,0.0583,39.627
37,0.059967,39.615
38,0.061633,39.63
39,0.0633,39.633
40,0.064967,39.633
41,0.06675,39.671
42,0.0683,39.684
43,0.069967,39.684
44,0.071633,39.666
45,0.0733,39.676
46,0.07496700000000001,39.675
47,0.07663300000000001,39.675
48,0.07829999999999999,39.668
49,0.079967,39.669
50,0.081633,39.642
51,0.0833,39.642
52,0.084967,39.627
53,0.086633,39.61
54,0.0883,39.618
55,0.08996700000000001,39.618
56,0.09163300000000001,39.618
57,0.09329999999999999,39.6
58,0.094967,39.631
59,0.096633,39.631
60,0.0983,39.619
61,0.099967,39.622
62,0.101633,39.622
63,0.1033,39.622
64,0.104967,39.626
65,0.106633,39.652
66,0.108283,39.652
67,0.10995,39.665
68,0.111617,39.686
69,0.113283,39.668
70,0.11495,39.668
71,0.116617,39.64
72,0.118283,39.652
73,0.11995,39.662
74,0.121617,39.662
75,0.123283,39.703
76,0.12495,39.733
77,0.126617,39.733
78,0.128283,39.724
79,0.12995,39.697
80,0.131617,39.671
81,0.133283,39.671
82,0.13495,39.63
83,0.136617,39.62
84,0.138283,39.621
85,0.13995,39.621
86,0.141617,39.629
87,0.143283,39.673
88,0.14495,39.659
89,0.146617,39.659
90,0.148283,39.659
91,0.14995,39.645
92,0.151683,39.614
93,0.153283,39.614
94,0.15495,39.642
95,0.156617,39.639
96,0.158283,39.639
97,0.15995,39.652
98,0.161617,39.687
99,0.163283,39.683
100,0.16495,39.683
101,0.166617,39.709
102,0.168267,39.706
103,0.169933,39.705
104,0.1716,39.705
105,0.173267,39.691
106,0.174933,39.675
107,0.1766,39.647
108,0.178267,39.647
109,0.179933,39.645
110,0.1816,39.665
111,0.183267,39.665
112,0.185067,39.696
113,0.1866,39.709
114,0.188267,39.691
115,0.189933,39.691
116,0.191617,39.688
117,0.193267,39.658
118,0.194933,39.648
119,0.1966,39.648
120,0.198267,39.63
121,0.199933,39.611
122,0.201617,39.606
123,0.203267,39.606
124,0.204933,39.595
125,0.2066,39.598
126,0.208267,39.598
127,0.209933,39.598
128,0.2116,39.599
129,0.213267,39.623
130,0.214933,39.623
131,0.2166,39.641
132,0.218267,39.638
133,0.219933,39.661
134,0.2216,39.661
135,0.223267,39.647
136,0.224933,39.643
137,0.2266,39.677
138,0.22825,39.677
139,0.229917,39.677
140,0.231583,39.694
141,0.23325,39.671
142,0.234917,39.671
143,0.236583,39.644
144,0.23825,39.643
145,0.239917,39.643
146,0.241583,39.643
147,0.24325,39.677
148,0.244917,39.699
149,0.246583,39.699
150,0.24825,39.703
151,0.249917,39.701
152,0.251583,39.661
153,0.25325,39.661
154,0.254917,39.624
155,0.256583,39.604
156,0.25825,39.588
157,0.259917,39.588
158,0.261583,39.621
159,0.26325,39.621
160,0.26495,39.645
161,0.266583,39.645
162,0.26825,39.675
163,0.269983,39.686
164,0.271583,39.686
165,0.27325,39.727
166,0.274917,39.732
167,0.276583,39.705
168,0.278267,39.705
169,0.279917,39.688
170,0.281583,39.665
171,0.28325,39.655
172,0.284917,39.655
173,0.286567,39.683
174,0.28825,39.709
175,0.2899,39.709
176,0.291567,39.709
177,0.293233,39.707
178,0.2949,39.706
179,0.296567,39.706
180,0.298217,39.686
181,0.299883,39.709
182,0.30155,39.709
183,0.303283,39.709
184,0.304883,39.688
185,0.30655,39.659
186,0.308217,39.609
187,0.309883,39.609
188,0.31155,39.602
189,0.313217,39.582
190,0.314883,39.592
191,0.31655,39.592
192,0.318217,39.627
193,0.319883,39.602
194,0.32155,39.602
195,0.323217,39.61
196,0.324883,39.642
197,0.32655,39.646
198,0.328217,39.646
199,0.329883,39.662
200,0.33155,39.68
201,0.333217,39.662
202,0.334883,39.662
203,0.33655,39.673
204,0.338217,39.69
205,0.339883,39.7
206,0.34155,39.7
207,0.34325,39.677
208,0.3449,39.639
209,0.34655,39.625
210,0.3482,39.625
211,0.349867,39.621
212,0.351533,39.657
213,0.3532,39.657
214,0.354867,39.695
215,0.356533,39.726
216,0.3582,39.731
217,0.359867,39.731
218,0.361533,39.745
219,0.3632,39.764
220,0.364867,39.816
221,0.366533,39.816
222,0.3682,39.891
223,0.369867,39.978
224,0.371533,40.047
225,0.3732,40.047
226,0.374867,40.151
227,0.376533,40.27
228,0.3782,40.27
229,0.379867,40.447
230,0.381533,40.678
231,0.3832,40.919
232,0.384867,40.919
233,0.386533,41.275
234,0.388267,41.665
235,0.389867,42.139
236,0.391533,42.139
237,0.3932,42.737
238,0.394867,43.371
239,0.396533,44.144
240,0.3982,44.144
241,0.399867,45.089
242,0.401533,46.159
243,0.4032,47.477
244,0.404867,47.477
245,0.406533,48.995
246,0.408183,50.761
247,0.40985,50.761
248,0.411517,52.825
249,0.413183,55.219
250,0.414867,57.976
251,0.416583,57.976
252,0.418183,61.091
253,0.41985,64.652
254,0.42165,68.628
255,0.423183,68.628
256,0.42485,73.14
257,0.426517,78.251
258,0.428183,84.012
259,0.42985,84.012
260,0.431517,90.492
261,0.433183,97.761
262,0.43485,97.761
263,0.436517,105.927
264,0.438183,115.094
265,0.43985,125.382
266,0.441517,125.382
267,0.443183,136.927
268,0.44485,149.941
269,0.446517,164.567
270,0.448183,164.567
271,0.44985,181.172
272,0.451517,200.002
273,0.4532,221.399
274,0.45485,221.399
275,0.456517,245.837
276,0.458183,273.735
277,0.45985,273.735
278,0.461517,305.753
279,0.463183,342.575
280,0.46485,384.892
281,0.466517,384.892
282,0.468167,433.587
283,0.469833,489.552
284,0.4715,553.8049999999999
285,0.473167,553.8049999999999
286,0.474833,627.4640000000001
287,0.4765,711.5700000000001
288,0.478167,807.326
289,0.479833,807.326
290,0.4815,915.825
291,0.483167,1038.224
292,0.484833,1175.689
293,0.4865,1175.689
294,0.488167,1329.149
295,0.489833,1499.528
296,0.4915,1499.528
297,0.493167,1687.612
298,0.494833,1893.753
299,0.4965,2118.364
300,0.498167,2118.364
301,0.499833,2361.502
302,0.5014999999999999,2622.862
303,0.503167,2902.104
304,0.504833,2902.104
305,0.5065,3198.376
306,0.508167,3510.616
307,0.509833,3837.281
308,0.5115,3837.281
309,0.513167,4176.744
310,0.514833,4527.152
311,0.5165,4527.152
312,0.518167,4886.375
313,0.519833,5252.359
314,0.5215,5622.491
315,0.52325,5622.491
316,0.524833,5994.204
317,0.5265,6365.068
318,0.52815,6732.15
319,0.529817,6732.15
320,0.531483,7093.156
321,0.53315,7445.61
322,0.534817,7787.072
323,0.536483,7787.072
324,0.53815,8115.635
325,0.539917,8429.203
326,0.541483,8726.063
327,0.54315,8726.063
328,0.544817,9004.427
329,0.5464830000000001,9263.014999999999
330,0.54815,9263.014999999999
331,0.549817,9500.715
332,0.5514829999999999,9716.537
333,0.55315,9910.017
334,0.554817,9910.017
335,0.5564829999999999,10080.549
336,0.5582,10227.926
337,0.559817,10352.231
338,0.561483,10352.231
339,0.56315,10453.846
340,0.564817,10533.332
341,0.566483,10591.327
342,0.56815,10591.327
343,0.569817,10628.601
344,0.571483,10645.701
345,0.57315,10645.701
346,0.574817,10643.585
347,0.576483,10623.167
348,0.5781500000000001,10585.494
349,0.579817,10585.494
350,0.581483,10531.719
351,0.5831499999999999,10463.104
352,0.584817,10380.978
353,0.586483,10380.978
354,0.588117,10286.499
355,0.5897829999999999,10180.972
356,0.59145,10065.346
357,0.593117,10065.346
358,0.594783,9940.678
359,0.59645,9807.999
360,0.598117,9668.129000000001
361,0.599783,9668.129000000001
362,0.60145,9521.940000000001
363,0.603117,9370.299999999999
364,0.604783,9370.299999999999
365,0.60645,9213.966
366,0.608117,9053.718999999999
367,0.609783,8890.334000000001
368,0.61145,8890.334000000001
369,0.613117,8724.397999999999
370,0.614783,8556.477000000001
371,0.6164500000000001,8387.129000000001
372,0.618117,8387.129000000001
373,0.619783,8216.895
374,0.6214499999999999,8046.192
375,0.623117,7875.392
376,0.624867,7875.392
377,0.62645,7704.925
378,0.6281330000000001,7535.054
379,0.629783,7535.054
380,0.63145,7366.06
381,0.633117,7198.195
382,0.634783,7031.742
383,0.63645,7031.742
384,0.638117,6867
385,0.639783,6704.198
386,0.641517,6543.573
387,0.643117,6543.573
388,0.644783,6385.174
389,0.64645,6229.111
390,0.6481,6075.461
391,0.649767,6075.461
392,0.651433,5924.284
393,0.6531,5775.679
394,0.654767,5775.679
395,0.656433,5629.643
396,0.6582,5486.353
397,0.659767,5345.863
398,0.661433,5345.863
399,0.6631,5208.159
400,0.664767,5073.33
401,0.6664330000000001,4941.192
402,0.6681,4941.192
403,0.669767,4811.764
404,0.6714329999999999,4685.094
405,0.6731,4561.041
406,0.674883,4561.041
407,0.676433,4439.805
408,0.6781,4321.326
409,0.679767,4205.646
410,0.681433,4205.646
411,0.6831,4092.795
412,0.684767,3982.557
413,0.686433,3982.557
414,0.6881,3874.947
415,0.689767,3769.935
416,0.691433,3667.502
417,0.6931,3667.502
418,0.694767,3567.591
419,0.696433,3470.233
420,0.6981000000000001,3375.309
421,0.699767,3375.309
422,0.701433,3282.716
423,0.7030999999999999,3192.535
424,0.704767,3104.649
425,0.706433,3104.649
426,0.708083,3019.03
427,0.70975,2935.728
428,0.711417,2935.728
429,0.713083,2854.599
430,0.71475,2775.642
431,0.716433,2698.795
432,0.718133,2698.795
433,0.71975,2623.996
434,0.721417,2551.223
435,0.723083,2480.42
436,0.72475,2480.42
437,0.726417,2411.584
438,0.728083,2344.669
439,0.72975,2279.603
440,0.731417,2279.603
441,0.733083,2216.361
442,0.73475,2154.805
443,0.736417,2094.911
444,0.738083,2094.911
445,0.73975,2036.698
446,0.741417,1980.061
447,0.7431,1980.061
448,0.74475,1925.043
449,0.746417,1871.565
450,0.7480830000000001,1819.611
451,0.74975,1819.611
452,0.751417,1769.143
453,0.7530829999999999,1720.095
454,0.75475,1672.442
455,0.756417,1672.442
456,0.758083,1626.118
457,0.7598,1581.162
458,0.761417,1537.499
459,0.763083,1537.499
460,0.76475,1495.108
461,0.766433,1453.953
462,0.7680670000000001,1453.953
463,0.769733,1413.944
464,0.7714,1375.09
465,0.7730669999999999,1337.317
466,0.774733,1337.317
467,0.776483,1300.654
468,0.778067,1265.043
469,0.779733,1230.444
470,0.7814,1230.444
471,0.783067,1196.878
472,0.784733,1164.289
473,0.7864,1132.662
474,0.788067,1132.662
475,0.789733,1102.001
476,0.7914,1072.232
477,0.793167,1043.331
478,0.794733,1043.331
479,0.7964,1015.279
480,0.798067,988.052
481,0.799733,988.052
482,0.8014,961.644
483,0.803067,936.018
484,0.804733,911.133
485,0.8064,911.133
486,0.808067,886.963
487,0.809733,863.504
488,0.8114,840.701
489,0.813067,840.701
490,0.814733,818.558
491,0.8164,797.081
492,0.818067,776.21
493,0.819733,776.21
494,0.8214,755.966
495,0.823067,736.343
496,0.824733,736.343
497,0.8264,717.282
498,0.82805,698.7859999999999
499,0.829717,680.85
500,0.831383,680.85
501,0.83305,663.441
502,0.834717,646.552
503,0.836383,630.149
504,0.83805,630.149
505,0.839733,614.204
506,0.841383,598.729
507,0.84305,583.692
508,0.8447170000000001,583.692
509,0.846383,569.1079999999999
510,0.84805,554.973
511,0.8497169999999999,541.24
512,0.851383,541.24
513,0.85305,527.9
514,0.8547169999999999,514.971
515,0.8564000000000001,514.971
516,0.85805,502.416
517,0.859717,490.218
518,0.861383,478.373
519,0.86305,478.373
520,0.864717,466.881
521,0.866383,455.714
522,0.86805,444.897
523,0.869717,444.897
524,0.871383,434.407
525,0.87305,424.185
526,0.874717,414.276
527,0.876383,414.276
528,0.8781,404.628
529,0.8797,395.266
530,0.881367,395.266
531,0.883033,386.192
532,0.8847,377.332
533,0.886367,368.778
534,0.8880169999999999,368.778
535,0.889683,360.455
536,0.89135,352.364
537,0.8930169999999999,344.54
538,0.894733,344.54
539,0.89635,336.901
540,0.898017,329.485
541,0.899683,322.308
542,0.90135,322.308
543,0.903017,315.323
544,0.904683,308.526
545,0.90635,308.526
546,0.908017,301.968
547,0.909683,295.551
548,0.911367,289.323
549,0.913017,289.323
550,0.914683,283.272
551,0.91635,277.352
552,0.918017,271.619
553,0.919683,271.619
554,0.92135,266.076
555,0.923017,260.706
556,0.924683,255.457
557,0.92635,255.457
558,0.928017,250.337
559,0.929683,245.362
560,0.93135,240.524
561,0.933017,240.524
562,0.934683,235.826
563,0.93635,231.279
564,0.938017,231.279
565,0.939683,226.855
566,0.94135,222.55
567,0.943017,218.384
568,0.9446830000000001,218.384
569,0.94635,214.309
570,0.948,210.339
571,0.949667,206.485
572,0.951333,206.485
573,0.953,202.745
574,0.954667,199.132
575,0.956333,195.608
576,0.958,195.608
577,0.959667,192.12
578,0.961333,188.743
579,0.963,188.743
580,0.9646670000000001,185.453
581,0.966333,182.229
582,0.968,179.159
583,0.9696669999999999,179.159
584,0.971333,176.137
585,0.973,173.178
586,0.974667,170.32
587,0.976333,170.32
588,0.978033,167.512
589,0.979667,164.795
590,0.981333,162.15
591,0.983,162.15
592,0.984667,159.601
593,0.986333,157.11
594,0.988,154.676
595,0.989667,154.676
596,0.991333,152.337
597,0.993,150.059
598,0.994667,150.059
599,0.996333,147.819
600,0.998,145.627
601,0.999667,143.5
602,1.001333,143.5
603,1.003,141.393
604,1.004667,139.383
605,1.006333,137.437
606,1.007983,137.437
607,1.00965,135.518
608,1.011317,133.668
609,1.013,131.848
610,1.01465,131.848
611,1.016317,130.097
612,1.017983,128.366
613,1.01965,128.366
614,1.021317,126.647
615,1.022983,124.985
616,1.02465,123.335
617,1.026317,123.335
618,1.027983,121.757
619,1.02965,120.264
620,1.031333,118.788
621,1.032983,118.788
622,1.03465,117.348
623,1.036317,115.915
624,1.037983,114.489
625,1.03965,114.489
626,1.041317,113.125
627,1.042983,111.792
628,1.04465,110.532
629,1.046317,110.532
630,1.047983,109.293
631,1.04965,108.058
632,1.051317,108.058
633,1.052983,106.864
634,1.05465,105.686
635,1.056333,104.561
636,1.057983,104.561
637,1.05965,103.465
638,1.061317,102.406
639,1.062983,101.332
640,1.06465,101.332
641,1.066317,100.263
642,1.067967,99.261
643,1.069633,98.244
644,1.0713,98.244
645,1.072967,97.264
646,1.074633,96.31399999999999
647,1.0763,96.31399999999999
648,1.077967,95.39400000000001
649,1.079633,94.536
650,1.0813,93.699
651,1.082967,93.699
652,1.084633,92.84699999999999
653,1.0863,91.965
654,1.087967,91.102
655,1.089633,91.102
656,1.0913,90.273
657,1.092967,89.476
658,1.094633,88.746
659,1.0963,88.746
660,1.097967,88.017
661,1.099633,87.29000000000001
662,1.1013,87.29000000000001
663,1.102967,86.60299999999999
664,1.104633,85.895
665,1.1063,85.19
666,1.107967,85.19
667,1.109633,84.51600000000001
668,1.1113,83.864
669,1.112967,83.23099999999999
670,1.114683,83.23099999999999
671,1.1163,82.60299999999999
672,1.117967,81.96899999999999
673,1.119633,81.357
674,1.1213,81.357
675,1.122967,80.756
676,1.124633,80.197
677,1.126283,79.655
678,1.127983,79.655
679,1.129617,79.122
680,1.131283,78.581
681,1.13295,78.581
682,1.134617,78.056
683,1.136283,77.569
684,1.13795,77.03
685,1.139617,77.03
686,1.141283,76.505
687,1.14295,75.991
688,1.144617,75.518
689,1.146283,75.518
690,1.14795,75.053
691,1.149617,74.63500000000001
692,1.151283,74.22499999999999
693,1.15295,74.22499999999999
694,1.154617,73.753
695,1.156283,73.342
696,1.15795,73.342
697,1.159617,72.907
698,1.161283,72.483
699,1.16295,72.08199999999999
700,1.164617,72.08199999999999
701,1.166283,71.675
702,1.16795,71.297
703,1.169617,70.922
704,1.171267,70.922
705,1.172933,70.56699999999999
706,1.1746,70.20999999999999
707,1.176267,69.813
708,1.177933,69.813
709,1.1796,69.425
710,1.181267,69.045
711,1.182933,68.711
712,1.1846,68.711
713,1.186267,68.426
714,1.187933,68.11499999999999
715,1.189583,68.11499999999999
716,1.19125,67.79300000000001
717,1.192917,67.44499999999999
718,1.194583,67.098
719,1.196267,67.098
720,1.197917,66.77200000000001
721,1.199583,66.47199999999999
722,1.20125,66.181
723,1.202917,66.181
724,1.204583,65.863
725,1.206267,65.592
726,1.207917,65.318
727,1.209583,65.318
728,1.21125,65.06100000000001
729,1.212933,64.848
730,1.214583,64.848
731,1.21625,64.589
732,1.217917,64.306
733,1.219583,64.015
734,1.22125,64.015
735,1.222917,63.736
736,1.224583,63.467
737,1.22625,63.235
738,1.227917,63.235
739,1.229583,63.022
740,1.23125,62.773
741,1.232983,62.557
742,1.234583,62.557
743,1.23625,62.324
744,1.237917,62.076
745,1.239583,62.076
746,1.24125,61.878
747,1.242917,61.662
748,1.244583,61.461
749,1.24625,61.461
750,1.2479,61.252
751,1.249567,61.028
752,1.251233,60.799
753,1.2529,60.799
754,1.254567,60.577
755,1.256233,60.402
756,1.2579,60.236
757,1.259567,60.236
758,1.261233,60.085
759,1.2629,59.929
760,1.264567,59.73
761,1.266283,59.73
762,1.2679,59.536
763,1.269567,59.345
764,1.271233,59.345
765,1.2729,59.17
766,1.274567,59.003
767,1.276233,58.824
768,1.2779,58.824
769,1.279567,58.65
770,1.281233,58.474
771,1.2829,58.319
772,1.284567,58.319
773,1.286233,58.157
774,1.2879,57.977
775,1.289567,57.839
776,1.291233,57.839
777,1.2929,57.685
778,1.294567,57.535
779,1.296233,57.535
780,1.2979,57.414
781,1.299567,57.236
782,1.30125,57.089
783,1.3029,57.089
784,1.304567,56.963
785,1.306233,56.817
786,1.307883,56.712
787,1.30955,56.712
788,1.311217,56.592
789,1.312883,56.435
790,1.31455,56.303
791,1.316217,56.303
792,1.317883,56.167
793,1.31955,56.008
794,1.321217,55.882
795,1.322883,55.882
796,1.32455,55.778
797,1.326217,55.641
798,1.327883,55.641
799,1.32955,55.528
800,1.331217,55.398
801,1.332883,55.25
802,1.33455,55.25
803,1.336217,55.132
804,1.337883,55.021
805,1.33955,54.914
806,1.341217,54.914
807,1.342883,54.795
808,1.34455,54.681
809,1.346217,54.567
810,1.347883,54.567
811,1.34955,54.479
812,1.351233,54.389
813,1.352883,54.389
814,1.35455,54.304
815,1.356217,54.204
816,1.357883,54.085
817,1.35955,54.085
818,1.361217,53.962
819,1.362883,53.831
820,1.36455,53.741
821,1.366217,53.741
822,1.367867,53.649
823,1.369533,53.564
824,1.3712,53.48
825,1.372867,53.48
826,1.374533,53.374
827,1.3762,53.301
828,1.377867,53.204
829,1.379533,53.204
830,1.3812,53.083
831,1.382867,52.978
832,1.384583,52.978
833,1.3862,52.846
834,1.387883,52.729
835,1.389533,52.661
836,1.3912,52.661
837,1.392867,52.602
838,1.394533,52.515
839,1.3962,52.439
840,1.397867,52.439
841,1.399533,52.366
842,1.4012,52.274
843,1.402867,52.2
844,1.404533,52.2
845,1.4062,52.138
846,1.407867,52.04
847,1.409533,52.04
848,1.4112,51.924
849,1.412867,51.85
850,1.414533,51.767
851,1.4162,51.767
852,1.417867,51.727
853,1.419533,51.686
854,1.4212,51.609
855,1.422867,51.609
856,1.424533,51.549
857,1.4262,51.446
858,1.42785,51.353
859,1.429517,51.353
860,1.431183,51.252
861,1.43285,51.176
862,1.434533,51.091
863,1.436183,51.091
864,1.43785,51.01
865,1.439517,50.983
866,1.441183,50.983
867,1.44285,50.898
868,1.444517,50.822
869,1.446183,50.77
870,1.44785,50.77
871,1.449517,50.683
872,1.451183,50.656
873,1.45285,50.621
874,1.454517,50.621
875,1.456183,50.551
876,1.45785,50.461
877,1.459517,50.346
878,1.461183,50.346
879,1.462833,50.268
880,1.4645,50.212
881,1.466167,50.212
882,1.467833,50.171
883,1.469517,50.131
884,1.471167,50.072
885,1.472833,50.072
886,1.4745,49.995
887,1.476167,49.969
888,1.477833,49.9
889,1.4795,49.9
890,1.481167,49.844
891,1.482833,49.812
892,1.4845,49.751
893,1.48615,49.751
894,1.487817,49.728
895,1.489483,49.67
896,1.49115,49.67
897,1.492817,49.596
898,1.494483,49.525
899,1.49615,49.444
900,1.497817,49.444
901,1.499483,49.385
902,1.50115,49.342
903,1.502867,49.292
904,1.504483,49.292
905,1.50615,49.251
906,1.507817,49.216
907,1.509483,49.143
908,1.51115,49.143
909,1.512817,49.09
910,1.514483,49.037
911,1.51615,48.96
912,1.517817,48.96
913,1.519483,48.931
914,1.52115,48.854
915,1.522817,48.854
916,1.524483,48.802
917,1.52615,48.753
918,1.527817,48.706
919,1.529483,48.706
920,1.53115,48.695
921,1.532817,48.656
922,1.534483,48.631
923,1.53615,48.631
924,1.537817,48.586
925,1.539483,48.541
926,1.54115,48.462
927,1.542817,48.462
928,1.544483,48.4
929,1.54615,48.365
930,1.5478,48.365
931,1.549467,48.292
932,1.551133,48.25
933,1.5528,48.198
934,1.554467,48.198
935,1.556133,48.137
936,1.5578,48.114
937,1.559467,48.097
938,1.56115,48.097
939,1.562867,48.064
940,1.564467,48.019
941,1.566133,47.975
942,1.5678,47.975
943,1.569467,47.909
944,1.571133,47.882
945,1.5728,47.842
946,1.574467,47.842
947,1.576133,47.785
948,1.5778,47.76
949,1.579467,47.76
950,1.581133,47.718
951,1.5828,47.677
952,1.584467,47.633
953,1.586133,47.633
954,1.5878,47.591
955,1.589467,47.551
956,1.591133,47.518
957,1.5928,47.518
958,1.594467,47.483
959,1.596133,47.449
960,1.5978,47.436
961,1.599467,47.436
