"ID","sea_time","fid_signal"
1,0,1175.925
2,0.001667,1174.212
3,0.003333,1175.478
4,0.005,1175.478
5,0.006667,1172.945
6,0.008333,1171.678
7,0.010083,1170.859
8,0.01165,1170.859
9,0.013317,1167.208
10,0.014983,1166.91
11,0.01665,1169.145
12,0.018317,1169.145
13,0.019983,1169.518
14,0.02165,1169.145
15,0.023317,1167.655
16,0.024983,1167.655
17,0.026733,1167.208
18,0.028317,1164.749
19,0.03,1164.749
20,0.03165,1166.314
21,0.033317,1169.965
22,0.034983,1170.784
23,0.03665,1170.784
24,0.038317,1172.498
25,0.039983,1172.721
26,0.04165,1172.647
27,0.043417,1172.647
28,0.044983,1172.945
29,0.046667,1176.819
30,0.048317,1178.011
31,0.049983,1178.011
32,0.05165,1177.043
33,0.053317,1177.564
34,0.054983,1177.564
35,0.05665,1171.753
36,0.058317,1168.773
37,0.059983,1167.879
38,0.06165,1167.879
39,0.063317,1165.271
40,0.065,1166.314
41,0.066667,1166.835
42,0.068317,1166.835
43,0.069983,1166.463
44,0.07165000000000001,1166.463
45,0.07331699999999999,1167.133
46,0.07496700000000001,1167.133
47,0.07663300000000001,1166.463
48,0.07829999999999999,1167.58
49,0.079967,1167.58
50,0.081633,1166.388
51,0.0833,1167.879
52,0.084967,1169.816
53,0.086633,1169.816
54,0.0883,1170.188
55,0.08996700000000001,1171.604
56,0.09163300000000001,1171.082
57,0.09329999999999999,1171.082
58,0.094967,1170.114
59,0.096633,1169.965
60,0.0983,1168.027
61,0.099967,1168.027
62,0.101633,1165.345
63,0.1033,1165.494
64,0.104967,1166.835
65,0.106633,1166.835
66,0.1083,1165.867
67,0.109967,1166.984
68,0.111633,1166.984
69,0.1133,1168.251
70,0.114967,1168.549
71,0.116633,1173.168
72,0.1183,1173.168
73,0.119967,1173.392
74,0.12165,1174.957
75,0.1233,1172.125
76,0.124967,1172.125
77,0.126633,1167.879
78,0.128333,1170.263
79,0.129967,1166.612
80,0.131617,1166.612
81,0.133283,1165.122
82,0.134967,1167.059
83,0.136617,1167.059
84,0.138283,1164.451
85,0.13995,1167.357
86,0.141617,1170.635
87,0.143283,1170.635
88,0.144983,1171.231
89,0.146617,1170.188
90,0.148283,1168.996
91,0.14995,1168.996
92,0.151617,1168.549
93,0.153283,1166.537
94,0.15495,1169.071
95,0.156617,1169.071
96,0.158283,1169.965
97,0.15995,1170.263
98,0.161733,1174.807
99,0.163283,1174.807
100,0.16495,1176.149
101,0.166617,1176
102,0.168283,1176
103,0.16995,1173.392
104,0.171617,1169.592
105,0.173283,1167.432
106,0.17495,1167.432
107,0.176617,1164.6
108,0.178283,1164.079
109,0.17995,1165.42
110,0.181617,1165.42
111,0.183283,1164.377
112,0.18495,1166.686
113,0.186617,1170.114
114,0.188283,1170.114
115,0.18995,1169.518
116,0.1916,1171.976
117,0.193267,1171.976
118,0.194933,1171.157
119,0.1966,1170.412
120,0.198267,1171.231
121,0.199933,1171.231
122,0.2016,1169.741
123,0.203267,1170.71
124,0.204933,1172.87
125,0.2066,1172.87
126,0.208267,1172.2
127,0.209933,1171.157
128,0.2116,1168.996
129,0.213267,1168.996
130,0.214933,1165.792
131,0.2166,1166.91
132,0.218267,1167.432
133,0.219933,1167.432
134,0.2216,1168.177
135,0.223267,1168.4
136,0.224933,1168.4
137,0.2266,1166.239
138,0.228267,1166.612
139,0.229933,1170.337
140,0.2316,1170.337
141,0.233283,1169.443
142,0.234933,1168.027
143,0.2366,1169.592
144,0.238267,1169.592
145,0.239917,1168.027
146,0.241583,1167.208
147,0.24325,1168.027
148,0.244917,1168.027
149,0.2466,1164.451
150,0.24825,1161.396
151,0.249917,1161.396
152,0.251583,1160.055
153,0.253233,1160.577
154,0.2549,1163.855
155,0.256567,1163.855
156,0.258233,1164.973
157,0.2599,1167.208
158,0.261567,1169.667
159,0.263233,1169.667
160,0.2649,1170.039
161,0.266567,1171.753
162,0.268233,1173.988
163,0.2699,1173.988
164,0.271567,1171.902
165,0.273233,1170.114
166,0.2749,1170.114
167,0.276567,1168.027
168,0.278233,1165.569
169,0.28,1166.239
170,0.281567,1166.239
171,0.283233,1165.643
172,0.2849,1161.844
173,0.286567,1160.577
174,0.288233,1160.577
175,0.2899,1159.757
176,0.291567,1160.204
177,0.293233,1165.941
178,0.2949,1165.941
179,0.296567,1167.506
180,0.298233,1170.412
181,0.2999,1170.784
182,0.301567,1170.784
183,0.303233,1170.486
184,0.3049,1174.063
185,0.306567,1174.063
186,0.308233,1173.988
187,0.3099,1176.447
188,0.311567,1176.819
189,0.313217,1176.819
190,0.314883,1174.882
191,0.31655,1172.572
192,0.318217,1170.71
193,0.319883,1170.71
194,0.32155,1168.251
195,0.323217,1164.153
196,0.324883,1165.494
197,0.32655,1165.494
198,0.328217,1168.027
199,0.329883,1169.518
200,0.33155,1169.518
201,0.333217,1172.274
202,0.334883,1170.263
203,0.33655,1167.879
204,0.338217,1167.879
205,0.339883,1167.282
206,0.341567,1169.369
207,0.343217,1170.114
208,0.344883,1170.114
209,0.34655,1169.89
210,0.348217,1172.498
211,0.349883,1172.274
212,0.35155,1172.274
213,0.353217,1173.168
214,0.354883,1177.192
215,0.35655,1176.372
216,0.358217,1176.372
217,0.359883,1174.957
218,0.36155,1173.019
219,0.363217,1173.019
220,0.364967,1168.102
221,0.36655,1165.792
222,0.368217,1164.451
223,0.369883,1164.451
224,0.37155,1167.208
225,0.3732,1169.071
226,0.374867,1169.518
227,0.376533,1169.518
228,0.3782,1172.796
229,0.379867,1173.988
230,0.381533,1173.094
231,0.3832,1173.094
232,0.384867,1173.317
233,0.386533,1172.721
234,0.3882,1172.721
235,0.389867,1171.678
236,0.391533,1173.541
237,0.3932,1175.329
238,0.394867,1175.329
239,0.396533,1175.776
240,0.398317,1180.097
241,0.399867,1184.195
242,0.401533,1184.195
243,0.4032,1186.505
244,0.404867,1186.505
245,0.406533,1183.897
246,0.4082,1183.897
247,0.409867,1180.917
248,0.411533,1179.948
249,0.4132,1184.866
250,0.414867,1184.866
251,0.416533,1188.144
252,0.418217,1189.709
253,0.4199,1189.709
254,0.421533,1192.093
255,0.4232,1191.795
256,0.424867,1193.732
257,0.426533,1193.732
258,0.4282,1195.595
259,0.429867,1197.01
260,0.431533,1199.543
261,0.4332,1199.543
262,0.43485,1198.873
263,0.436517,1200.065
264,0.438183,1199.99
265,0.43985,1199.99
266,0.441517,1198.128
267,0.443183,1199.245
268,0.44485,1199.245
269,0.446517,1202.002
270,0.448183,1207.963
271,0.44985,1209.602
272,0.451517,1209.602
273,0.453183,1206.174
274,0.45485,1205.206
275,0.456517,1201.183
276,0.458183,1201.183
277,0.45985,1200.289
278,0.461517,1202.673
279,0.463183,1202.002
280,0.46485,1202.002
281,0.466517,1202.524
282,0.468183,1205.951
283,0.46985,1207.367
284,0.471517,1207.367
285,0.473183,1208.931
286,0.47485,1210.794
287,0.476517,1210.794
288,0.478183,1207.963
289,0.47985,1206.174
290,0.481517,1203.939
291,0.4832,1203.939
292,0.48485,1200.363
293,0.486533,1202.3
294,0.4882,1205.504
295,0.48985,1205.504
296,0.491517,1204.833
297,0.493167,1204.386
298,0.494833,1203.343
299,0.4965,1203.343
300,0.498167,1203.939
301,0.499833,1204.908
302,0.5014999999999999,1204.908
303,0.503167,1206.92
304,0.504833,1207.739
305,0.5065,1208.484
306,0.508167,1208.484
307,0.509833,1213.402
308,0.5115,1219.064
309,0.513167,1230.538
310,0.514833,1230.538
311,0.516633,1242.831
312,0.518167,1256.466
313,0.519833,1271.516
314,0.5215,1271.516
315,0.523167,1286.194
316,0.524833,1309.141
317,0.5265,1309.141
318,0.5281670000000001,1340.732
319,0.529833,1377.463
320,0.531483,1420.826
321,0.53315,1420.826
322,0.534817,1472.607
323,0.536483,1530.424
324,0.53815,1602.024
325,0.539817,1602.024
326,0.541483,1683.906
327,0.54315,1777.708
328,0.544817,1883.954
329,0.5464830000000001,1883.954
330,0.54815,2005.92
331,0.549817,2142.787
332,0.5514829999999999,2293.885
333,0.553133,2293.885
334,0.5548,2468.079
335,0.556467,2659.187
336,0.558167,2659.187
337,0.559833,2874.657
338,0.5615329999999999,3110.692
339,0.563133,3365.129
340,0.5648,3365.129
341,0.5664670000000001,3645.793
342,0.568133,3948.137
343,0.5698,4276.559
344,0.5714669999999999,4276.559
345,0.573133,4629.046
346,0.5748,5003.139
347,0.576467,5400.404
348,0.578133,5400.404
349,0.5798,5817.935
350,0.581467,6255.061
351,0.583133,6255.061
352,0.5848,6713.867
353,0.586467,7185.936
354,0.588133,7673.949
355,0.5898,7673.949
356,0.591467,8179.024
357,0.593133,8698.181
358,0.5948,9231.939
359,0.596467,9231.939
360,0.598133,9778.290999999999
361,0.5998,10328.889
362,0.601517,10880.679
363,0.603133,10880.679
364,0.6048,11438.578
365,0.606467,11996.254
366,0.608133,12553.26
367,0.6098,12553.26
368,0.611467,13110.638
369,0.613117,13663.545
370,0.614783,13663.545
371,0.6164500000000001,14207.438
372,0.618117,14741.868
373,0.619783,15266.389
374,0.6214499999999999,15266.389
375,0.623117,15773.4
376,0.624783,16263.276
377,0.62645,16744.957
378,0.628117,16744.957
379,0.629783,17204.955
380,0.63145,17645.881
381,0.633117,18071.979
382,0.634933,18071.979
383,0.63645,18472.15
384,0.638117,18849.225
385,0.639783,18849.225
386,0.64145,19205.287
387,0.643117,19532.74
388,0.644783,19839.48
389,0.64645,19839.48
390,0.6481170000000001,20120.889
391,0.649783,20381.063
392,0.65145,20617.992
393,0.6531169999999999,20617.992
394,0.654783,20825.268
395,0.65645,21012.723
396,0.658117,21172.762
397,0.659783,21172.762
398,0.661467,21311.342
399,0.663117,21425.857
400,0.664783,21425.857
401,0.66645,21518.916
402,0.668117,21590.143
403,0.669783,21641.627
404,0.6714329999999999,21641.627
405,0.6731,21673.963
406,0.674767,21683.275
407,0.676433,21675.08
408,0.6781,21675.08
409,0.679767,21650.047
410,0.681433,21608.025
411,0.6831,21552.145
412,0.684767,21552.145
413,0.686433,21482.557
414,0.6881,21396.279
415,0.689767,21299.943
416,0.691433,21299.943
417,0.6931,21191.91
418,0.694767,21073.818
419,0.696433,21073.818
420,0.6981000000000001,20944.998
421,0.699767,20805.076
422,0.70145,20660.832
423,0.7030999999999999,20660.832
424,0.704767,20503.699
425,0.706433,20343.215
426,0.7081,20180.791
427,0.709767,20180.791
428,0.711433,20004.139
429,0.7131,19828.006
430,0.714767,19646.287
431,0.716433,19646.287
432,0.7181,19459.5
433,0.7198,19275.547
434,0.721433,19275.547
435,0.7231,19089.133
436,0.7247670000000001,18897.727
437,0.726433,18701.33
438,0.7281,18701.33
439,0.7297670000000001,18504.262
440,0.731417,18304.363
441,0.733083,18104.613
442,0.73475,18104.613
443,0.736533,17907.992
444,0.738083,17707.273
445,0.73975,17510.652
446,0.741417,17510.652
447,0.743083,17314.105
448,0.74475,17117.262
449,0.746417,16921.834
450,0.7480830000000001,16921.834
451,0.74975,16720.965
452,0.751417,16526.355
453,0.7530829999999999,16526.355
454,0.75475,16332.566
455,0.756417,16141.683
456,0.758083,15957.579
457,0.75975,15957.579
458,0.761417,15767.291
459,0.763083,15578.121
460,0.76475,15390.664
461,0.766417,15390.664
462,0.768083,15204.102
463,0.76975,15023.127
464,0.771417,14843.345
465,0.773083,14843.345
466,0.77475,14667.362
467,0.776417,14489.666
468,0.7781,14489.666
469,0.779817,14314.056
470,0.781417,14141.649
471,0.783083,13971.254
472,0.7847499999999999,13971.254
473,0.786417,13803.914
474,0.788083,13639.629
475,0.78975,13477.504
476,0.791417,13477.504
477,0.793067,13313.592
478,0.794733,13153.181
479,0.7964,12991.801
480,0.798067,12991.801
481,0.799733,12835.935
482,0.8014,12681.111
483,0.803067,12525.99
484,0.804733,12525.99
485,0.8064,12379.438
486,0.808067,12229.532
487,0.809733,12229.532
488,0.8114,12087.002
489,0.813067,11946.037
490,0.814733,11803.284
491,0.8164,11803.284
492,0.818067,11665.523
493,0.819733,11524.111
494,0.821383,11389.181
495,0.8230499999999999,11389.181
496,0.824717,11256.263
497,0.826383,11124.462
498,0.82805,10995.716
499,0.829717,10995.716
500,0.831383,10866.746
501,0.83305,10742.098
502,0.834717,10742.098
503,0.8364,10617.375
504,0.838117,10494.813
505,0.839717,10377.02
506,0.841383,10377.02
507,0.84305,10259.301
508,0.8447170000000001,10143.593
509,0.846383,10029.822
510,0.848067,10029.822
511,0.8497169999999999,9916.127
512,0.851383,9804.964
513,0.853033,9693.578
514,0.85475,9693.578
515,0.856367,9582.861999999999
516,0.858033,9472.966
517,0.8597,9472.966
518,0.861367,9365.379999999999
519,0.8630330000000001,9261.593000000001
520,0.8647,9163.022000000001
521,0.866367,9163.022000000001
522,0.8680330000000001,9063.557000000001
523,0.8697,8964.017
524,0.871433,8863.583000000001
525,0.8730329999999999,8863.583000000001
526,0.8747,8762.031999999999
527,0.876367,8666.962
528,0.878033,8572.638000000001
529,0.8797,8572.638000000001
530,0.881367,8484.572
531,0.883033,8398.442999999999
532,0.8847,8311.123
533,0.886367,8311.123
534,0.888133,8223.206
535,0.8897,8131.415
536,0.891367,8131.415
537,0.893033,8044.914
538,0.8947000000000001,7956.922
539,0.896367,7868.931
540,0.898033,7868.931
541,0.8997000000000001,7786.453
542,0.901367,7702.41
543,0.903033,7619.709
544,0.9046999999999999,7619.709
545,0.906367,7544.234
546,0.908033,7466.376
547,0.9097,7388.592
548,0.91135,7388.592
549,0.913017,7313.937
550,0.914683,7237.643
551,0.91635,7237.643
552,0.918017,7167.161
553,0.9197,7093.698
554,0.9214,7021.8
555,0.923017,7021.8
556,0.924683,6949.678
557,0.92635,6877.035
558,0.928017,6807.446
559,0.929683,6807.446
560,0.93135,6738.23
561,0.933017,6671.175
562,0.934683,6605.461
563,0.93635,6605.461
564,0.938017,6543.472
565,0.939683,6478.876
566,0.94135,6417.855
567,0.943017,6417.855
568,0.9446830000000001,6354.302
569,0.94635,6292.09
570,0.948017,6292.09
571,0.9496830000000001,6230.101
572,0.95135,6169.677
573,0.953017,6113.127
574,0.9546829999999999,6113.127
575,0.95635,6054.938
576,0.958017,5999.878
577,0.959683,5939.305
578,0.96135,5939.305
579,0.963017,5878.806
580,0.964683,5822.331
581,0.96635,5767.42
582,0.968017,5767.42
583,0.969683,5718.321
584,0.971333,5668.327
585,0.973067,5615.205
586,0.974667,5615.205
587,0.976333,5562.156
588,0.978,5506.128
589,0.979667,5506.128
590,0.981333,5451.59
591,0.983,5401.075
592,0.984667,5352.199
593,0.986333,5352.199
594,0.988,5308.092
595,0.989683,5265.996
596,0.991367,5218.685
597,0.993,5218.685
598,0.994667,5170.032
599,0.996333,5119.219
600,0.998,5069.077
601,0.999667,5069.077
602,1.001333,5025.044
603,1.003,4982.352
604,1.004667,4982.352
605,1.0064,4939.586
606,1.008,4897.043
607,1.009667,4850.104
608,1.011333,4850.104
609,1.013,4808.381
610,1.014667,4768.446
611,1.016333,4726.425
612,1.018,4726.425
613,1.019667,4686.341
614,1.021333,4645.139
615,1.023,4603.118
616,1.024667,4603.118
617,1.026333,4561.916
618,1.028,4525.259
619,1.029667,4525.259
620,1.031333,4489.422
621,1.032983,4453.138
622,1.03465,4418.716
623,1.036317,4418.716
624,1.037983,4381.761
625,1.03965,4342.497
626,1.041317,4305.839
627,1.042983,4305.839
628,1.04465,4270.598
629,1.046317,4233.495
630,1.047983,4198.104
631,1.04965,4198.104
632,1.051317,4165.471
633,1.052983,4130.229
634,1.05465,4097.596
635,1.056317,4097.596
636,1.057983,4064.59
637,1.059667,4030.243
638,1.061367,4030.243
639,1.062983,3997.981
640,1.064667,3968.328
641,1.066317,3936.812
642,1.067983,3936.812
643,1.06965,3903.955
644,1.071317,3873.557
645,1.072983,3843.233
646,1.07465,3843.233
647,1.076317,3814.399
648,1.077983,3785.268
649,1.07965,3756.434
650,1.081317,3756.434
651,1.082983,3729.016
652,1.08465,3699.958
653,1.086317,3699.958
654,1.087983,3671.497
655,1.08965,3640.95
656,1.091317,3610.626
657,1.092967,3610.626
658,1.094633,3586.411
659,1.0963,3562.048
660,1.097967,3539.845
661,1.099633,3539.845
662,1.1013,3515.109
663,1.102967,3487.542
664,1.104633,3461.242
665,1.1063,3461.242
666,1.107967,3434.047
667,1.109633,3407.001
668,1.1113,3407.001
669,1.11295,3380.403
670,1.114617,3352.389
671,1.116283,3326.61
672,1.11795,3326.61
673,1.119617,3302.693
674,1.121283,3280.118
675,1.12295,3256.798
676,1.124733,3256.798
677,1.126283,3235.787
678,1.12795,3214.851
679,1.129617,3194.138
680,1.131283,3194.138
681,1.13295,3173.202
682,1.134617,3149.882
683,1.136283,3126.04
684,1.13795,3126.04
685,1.139633,3102.943
686,1.141283,3083.721
687,1.14295,3083.721
688,1.144617,3064.424
689,1.146283,3043.413
690,1.14795,3022.328
691,1.149617,3022.328
692,1.151283,3000.87
693,1.152933,2978.37
694,1.1546,2958.253
695,1.156267,2958.253
696,1.157933,2939.478
697,1.1596,2922.118
698,1.161267,2906.024
699,1.162933,2906.024
700,1.1646,2888.516
701,1.166267,2867.952
702,1.167933,2867.952
703,1.1696,2847.687
704,1.171267,2829.283
705,1.172933,2812.818
706,1.1746,2812.818
707,1.176267,2797.469
708,1.177933,2779.886
709,1.1796,2763.644
710,1.181267,2763.644
711,1.182933,2747.104
712,1.1846,2729.744
713,1.186267,2712.756
714,1.187933,2712.756
715,1.1896,2693.906
716,1.191267,2677.366
717,1.192933,2661.273
718,1.1946,2661.273
719,1.196267,2647.713
720,1.197933,2631.47
721,1.1996,2631.47
722,1.201267,2611.727
723,1.202933,2594.963
724,1.2046,2577.379
725,1.206267,2577.379
726,1.20795,2560.02
727,1.209683,2546.161
728,1.21125,2533.57
729,1.212917,2533.57
730,1.214583,2520.979
731,1.21625,2507.344
732,1.217917,2496.466
733,1.219583,2496.466
734,1.22125,2480.522
735,1.222917,2462.491
736,1.224583,2462.491
737,1.22625,2450.049
738,1.227917,2431.72
739,1.229583,2416.745
740,1.23125,2416.745
741,1.232917,2404.004
742,1.234583,2388.805
743,1.23625,2377.853
744,1.237917,2377.853
745,1.2396,2368.093
746,1.24125,2356.47
747,1.243017,2345.443
748,1.244583,2345.443
749,1.24625,2331.659
750,1.247917,2319.142
751,1.249583,2304.763
752,1.25125,2304.763
753,1.252917,2292.395
754,1.254583,2283.677
755,1.25625,2283.677
756,1.257917,2272.502
757,1.259583,2259.687
758,1.26125,2247.915
759,1.262917,2247.915
760,1.264583,2234.429
761,1.26625,2216.846
762,1.267917,2208.874
763,1.269583,2208.874
764,1.27125,2194.569
765,1.2729,2180.562
766,1.274567,2171.919
767,1.276233,2171.919
768,1.2779,2161.19
769,1.279567,2152.249
770,1.281233,2152.249
771,1.2829,2142.638
772,1.284567,2130.493
773,1.2863,2116.784
774,1.2879,2116.784
775,1.289567,2106.503
776,1.291233,2097.189
777,1.2929,2088.472
778,1.294567,2088.472
779,1.296233,2079.606
780,1.2979,2069.25
781,1.299567,2058.446
782,1.301233,2058.446
783,1.3029,2048.835
784,1.304567,2038.479
785,1.306233,2038.479
786,1.3079,2030.209
787,1.309567,2019.033
788,1.311233,2007.186
789,1.3129,2007.186
790,1.314567,1998.395
791,1.316233,1986.697
792,1.3179,1981.482
793,1.319567,1981.482
794,1.321233,1977.906
795,1.3229,1970.232
796,1.324567,1960.471
797,1.326233,1960.471
798,1.32795,1950.562
799,1.329567,1940.876
800,1.331217,1932.383
801,1.332883,1932.383
802,1.334567,1927.763
803,1.336217,1922.101
804,1.337883,1922.101
805,1.33955,1915.023
806,1.341217,1909.658
807,1.342883,1899.302
808,1.34455,1899.302
809,1.346217,1888.722
810,1.347883,1877.919
811,1.34955,1866.519
812,1.351217,1866.519
813,1.352883,1860.41
814,1.35455,1852.512
815,1.356217,1845.881
816,1.3579,1845.881
817,1.35955,1842.38
818,1.36135,1835.376
819,1.362883,1835.376
820,1.36455,1829.416
821,1.366217,1822.263
822,1.367883,1809.672
823,1.36955,1809.672
824,1.371217,1801.401
825,1.372883,1793.951
826,1.37455,1786.873
827,1.376217,1786.873
828,1.377883,1784.861
829,1.37955,1781.806
830,1.381217,1776.218
831,1.382883,1776.218
832,1.38455,1770.78
833,1.386217,1764.894
834,1.387883,1755.804
835,1.38955,1755.804
836,1.391217,1746.491
837,1.392867,1736.656
838,1.394533,1736.656
839,1.3962,1727.492
840,1.397867,1722.5
841,1.399533,1720.712
842,1.4012,1720.712
843,1.402867,1720.563
844,1.404517,1717.657
845,1.406183,1711.92
846,1.40785,1711.92
847,1.409517,1702.607
848,1.411183,1693.89
849,1.41285,1688.674
850,1.414533,1688.674
851,1.416183,1682.788
852,1.41785,1679.659
853,1.419517,1679.659
854,1.421183,1674.369
855,1.42285,1666.695
856,1.424533,1659.17
857,1.426183,1659.17
858,1.42785,1650.676
859,1.429517,1644.045
860,1.431183,1635.924
861,1.43285,1635.924
862,1.434517,1633.465
863,1.436183,1631.826
864,1.43785,1628.399
865,1.439517,1628.399
866,1.441183,1625.866
867,1.44285,1621.544
868,1.444517,1621.544
869,1.44625,1616.329
870,1.44785,1612.753
871,1.449517,1607.314
872,1.451183,1607.314
873,1.452833,1602.024
874,1.4545,1595.765
875,1.456167,1591.444
876,1.457833,1591.444
877,1.4595,1590.55
878,1.461167,1587.719
879,1.462833,1586.303
880,1.4645,1586.303
881,1.466167,1582.354
882,1.467833,1575.872
883,1.4695,1569.763
884,1.471167,1569.763
885,1.472833,1563.057
886,1.4745,1556.203
887,1.476167,1556.203
888,1.477833,1551.509
889,1.479617,1547.858
890,1.481167,1543.313
891,1.482833,1543.313
892,1.4845,1541.749
893,1.486167,1539.439
894,1.487833,1537.427
895,1.4895,1537.427
896,1.491167,1536.086
897,1.492833,1530.498
898,1.4945,1525.879
899,1.496167,1525.879
900,1.497833,1518.056
901,1.4995,1510.158
902,1.501167,1510.158
903,1.502833,1507.625
904,1.5045,1503.9
905,1.506167,1503.378
906,1.507833,1503.378
907,1.5095,1502.782
