"ID","sea_time","fid_signal"
1,0,141.658
2,0.001667,141.546
3,0.003333,141.226
4,0.005,140.943
5,0.006667,140.943
6,0.00835,140.831
7,0.01,140.57
8,0.011667,140.451
9,0.013333,140.451
10,0.015,140.361
11,0.016667,140.347
12,0.01835,140.682
13,0.02,140.682
14,0.021667,140.876
15,0.023333,140.786
16,0.025,140.786
17,0.026667,140.667
18,0.028333,140.645
19,0.03,140.63
20,0.031667,140.63
21,0.033333,141.114
22,0.035,141.203
23,0.036667,141.218
24,0.038333,141.218
25,0.04,140.89
26,0.041667,140.63
27,0.043333,140.466
28,0.04505,140.466
29,0.04665,140.451
30,0.048317,140.794
31,0.049983,140.794
32,0.05165,141.107
33,0.053317,141.442
34,0.054983,141.412
35,0.05665,141.412
36,0.05835,141.412
37,0.059983,141.121
38,0.061683,140.563
39,0.063317,140.563
40,0.064983,140.488
41,0.06665,140.443
42,0.068317,140.466
43,0.069983,140.466
44,0.07165000000000001,140.913
45,0.07331699999999999,141.002
46,0.07498299999999999,141.002
47,0.07665,141.27
48,0.078417,141.665
49,0.079983,141.598
50,0.08165,141.598
51,0.083317,141.419
52,0.084983,141.479
53,0.08665,141.107
54,0.08831700000000001,141.107
55,0.08998299999999999,141.129
56,0.09165,141.248
57,0.093317,141.017
58,0.094983,141.017
59,0.09665,140.727
60,0.098317,140.548
61,0.099983,140.786
62,0.10165,140.786
63,0.103317,140.786
64,0.104967,141.382
65,0.106633,141.382
66,0.1083,141.852
67,0.109967,142.016
68,0.111633,141.881
69,0.1133,141.881
70,0.114967,141.442
71,0.116633,141.181
72,0.1183,140.965
73,0.119967,140.965
74,0.121633,141.323
75,0.1233,141.539
76,0.124967,141.39
77,0.126633,141.39
78,0.1283,141.323
79,0.129967,141.114
80,0.131633,141.114
81,0.1333,141.032
82,0.134967,141.39
83,0.136633,141.554
84,0.1383,141.554
85,0.139967,141.539
86,0.141633,141.457
87,0.1433,141.203
88,0.144967,141.203
89,0.146633,141.166
90,0.1483,141.054
91,0.149967,141.27
92,0.151633,141.27
93,0.1533,141.121
94,0.154967,140.853
95,0.156633,140.876
96,0.1583,140.876
97,0.159967,140.816
98,0.161633,140.741
99,0.1633,140.741
100,0.16495,140.853
101,0.166617,141.092
102,0.168267,141.107
103,0.169933,141.107
104,0.1716,141.598
105,0.173267,141.71
106,0.174933,141.747
107,0.1766,141.747
108,0.178267,141.576
109,0.179967,141.211
110,0.1816,140.995
111,0.183267,140.995
112,0.184933,140.764
113,0.1866,140.764
114,0.188267,140.764
115,0.189933,140.786
116,0.1916,140.943
117,0.193283,140.905
118,0.194933,140.905
119,0.1967,140.965
120,0.198267,140.801
121,0.199933,140.533
122,0.201633,140.533
123,0.203267,140.801
124,0.204933,140.913
125,0.2066,141.203
126,0.208267,141.203
127,0.209933,141.628
128,0.2116,141.233
129,0.213267,141.159
130,0.214933,141.159
131,0.2166,141.241
132,0.218267,141.017
133,0.219933,141.017
134,0.2216,141.248
135,0.223267,141.256
136,0.224917,141.121
137,0.226583,141.121
138,0.22825,141.33
139,0.229917,141.33
140,0.231583,141.263
141,0.23325,141.263
142,0.234917,141.069
143,0.236583,140.816
144,0.23825,140.771
145,0.239917,140.771
146,0.241583,141.121
147,0.24325,141.3
148,0.244917,141.3
149,0.246583,141.256
150,0.24825,141.256
151,0.249917,140.92
152,0.251583,140.92
153,0.25325,140.794
154,0.254917,140.794
155,0.256583,140.645
156,0.25825,140.645
157,0.259917,140.466
158,0.261617,140.734
159,0.26325,140.727
160,0.264917,140.727
161,0.266583,140.764
162,0.268267,140.771
163,0.269917,140.771
164,0.271583,140.734
165,0.27325,141.084
166,0.274917,141.248
167,0.276583,141.248
168,0.27825,141.501
169,0.279917,141.457
170,0.2817,141.151
171,0.28325,141.151
172,0.2849,141.144
173,0.286567,141.084
174,0.288233,141.121
175,0.2899,141.121
176,0.291567,141.144
177,0.293233,141.099
178,0.2949,141.256
179,0.296567,141.256
180,0.298233,141.323
181,0.2999,141.472
182,0.301567,141.472
183,0.303233,141.509
184,0.3049,141.658
185,0.306567,141.531
186,0.308233,141.531
187,0.3099,141.27
188,0.311567,141.159
189,0.313233,141.032
190,0.315017,141.032
191,0.316567,141.047
192,0.318233,141.308
193,0.3199,141.65
194,0.321567,141.65
195,0.323233,141.934
196,0.3249,142.559
197,0.326567,142.559
198,0.328233,143.252
199,0.3299,143.588
200,0.331567,143.93
201,0.333233,143.93
202,0.3349,144.564
203,0.336567,145.383
204,0.338233,146.963
205,0.3399,146.963
206,0.341567,149.034
207,0.343267,151.388
208,0.344917,154.57
209,0.34655,154.57
210,0.348217,158.533
211,0.349883,163.577
212,0.35155,169.449
213,0.353217,169.449
214,0.354883,176.556
215,0.35655,184.581
216,0.358217,184.581
217,0.359883,193.879
218,0.36155,204.734
219,0.363217,217.043
220,0.364883,217.043
221,0.36655,231.214
222,0.368217,247.143
223,0.369883,265.546
224,0.37155,265.546
225,0.373217,286.072
226,0.374883,309.05
227,0.37655,334.509
228,0.378217,334.509
229,0.379883,362.135
230,0.38155,392.266
231,0.383217,392.266
232,0.384883,425.227
233,0.38655,461.206
234,0.388217,499.986
235,0.389883,499.986
236,0.39155,541.918
237,0.393217,586.592
238,0.394883,633.97
239,0.39655,633.97
240,0.398217,684.5069999999999
241,0.39995,738.0839999999999
242,0.40155,794.902
243,0.403217,794.902
244,0.404867,855.23
245,0.406533,918.8579999999999
246,0.4082,985.816
247,0.409867,985.816
248,0.411583,1056.79
249,0.4132,1131.445
250,0.414867,1131.445
251,0.416533,1210.533
252,0.418217,1294.076
253,0.419867,1382.045
254,0.42155,1382.045
255,0.4232,1474.969
256,0.424867,1572.467
257,0.426533,1675.062
258,0.4282,1675.062
259,0.429867,1783.371
260,0.431533,1897.365
261,0.4333,2017.416
262,0.434867,2017.416
263,0.436533,2143.748
264,0.4382,2275.869
265,0.439867,2275.869
266,0.441533,2413.996
267,0.4432,2558.112
268,0.444867,2708.361
269,0.446533,2708.361
270,0.4482,2863.713
271,0.449867,3023.625
272,0.451533,3187.545
273,0.4532,3187.545
274,0.454867,3353.938
275,0.456533,3522.202
276,0.4582,3691.159
277,0.45985,3691.159
278,0.461517,3859.386
279,0.463183,4024.975
280,0.464833,4024.975
281,0.4665,4186.742
282,0.468167,4343.234
283,0.469833,4493.087
284,0.4715,4493.087
285,0.473167,4638.285
286,0.474833,4772.999
287,0.4765,4888.073
288,0.478167,4888.073
289,0.479833,4986.197
290,0.4815,5066.626
291,0.483167,5132.333
292,0.484833,5132.333
293,0.4865,5189.121
294,0.488167,5231.507
295,0.489833,5255.773
296,0.4915,5255.773
297,0.493167,5261.838
298,0.494833,5250.596
299,0.4965,5250.596
300,0.498183,5222.872
301,0.499833,5179.301
302,0.5014999999999999,5120.94
303,0.503167,5120.94
304,0.504833,5049.013
305,0.5065,4964.53
306,0.508167,4868.567
307,0.509833,4868.567
308,0.5115,4762.322
309,0.513167,4647.046
310,0.514833,4524.112
311,0.5165,4524.112
312,0.518217,4394.852
313,0.519833,4260.428
314,0.5215,4260.428
315,0.523167,4122.198
316,0.524817,3981.151
317,0.526483,3837.898
318,0.52815,3837.898
319,0.529817,3694.214
320,0.531483,3550.492
321,0.53315,3407.866
322,0.534817,3407.866
323,0.536483,3267.586
324,0.53815,3128.998
325,0.539817,2993.301
326,0.541483,2993.301
327,0.54315,2861.06
328,0.544817,2732.471
329,0.5464830000000001,2608.389
330,0.54815,2608.389
331,0.549817,2488.524
332,0.551517,2373.01
333,0.55315,2373.01
334,0.554817,2262.242
335,0.5564829999999999,2156.131
336,0.55815,2055.064
337,0.559817,2055.064
338,0.561483,1958.683
339,0.56315,1866.937
340,0.564817,1779.623
341,0.566483,1779.623
342,0.56815,1696.438
343,0.569817,1617.752
344,0.571483,1543.283
345,0.57315,1543.283
346,0.574817,1473.025
347,0.576483,1406.863
348,0.5781500000000001,1406.863
349,0.579817,1344.122
350,0.581483,1284.912
351,0.5831499999999999,1228.966
352,0.5848,1228.966
353,0.586467,1176.38
354,0.58815,1126.55
355,0.5898,1079.611
356,0.591467,1079.611
357,0.593133,1035.519
358,0.5948,993.669
359,0.596483,954.6799999999999
360,0.598133,954.6799999999999
361,0.5998,917.703
362,0.601467,882.775
363,0.603133,849.925
364,0.6048,849.925
365,0.606467,818.968
366,0.608133,789.888
367,0.6098,789.888
368,0.611467,762.03
369,0.613133,735.886
370,0.6148,711.15
371,0.616467,711.15
372,0.618133,687.398
373,0.6198,665.322
374,0.621467,644.147
375,0.623133,644.147
376,0.6248,623.897
377,0.626467,605.099
378,0.6281330000000001,587.009
379,0.6298,587.009
380,0.631467,569.88
381,0.6331329999999999,554.003
382,0.6348,554.003
383,0.6365,538.222
384,0.638133,523.426
385,0.6398,509.232
386,0.641467,509.232
387,0.643133,495.598
388,0.644783,483.081
389,0.64645,471.13
390,0.6481170000000001,471.13
391,0.649783,459.462
392,0.65145,447.989
393,0.6531169999999999,437.096
394,0.654783,437.096
395,0.65645,426.516
396,0.658117,416.622
397,0.659783,416.622
398,0.66145,407.338
399,0.663117,398.003
400,0.664783,389.412
401,0.66645,389.412
402,0.668117,380.918
403,0.6698499999999999,372.611
404,0.67145,364.922
405,0.673117,364.922
406,0.674783,357.479
407,0.67645,350.505
408,0.678117,343.747
409,0.679783,343.747
410,0.68145,337.236
411,0.683117,330.731
412,0.684783,324.458
413,0.68645,324.458
414,0.688117,318.661
415,0.689783,312.991
416,0.69145,312.991
417,0.693117,307.545
418,0.694783,302.471
419,0.69645,297.345
420,0.698117,297.345
421,0.699783,292.607
422,0.70145,287.89
423,0.703117,283.301
424,0.704767,283.301
425,0.706433,278.845
426,0.7081,274.621
427,0.709767,270.754
428,0.711433,270.754
429,0.7131,266.649
430,0.714767,262.991
431,0.716433,262.991
432,0.7181,259.012
433,0.719767,255.167
434,0.721433,252.008
435,0.7231,252.008
436,0.7247670000000001,248.678
437,0.726433,245.653
438,0.7281,242.777
439,0.7297670000000001,242.777
440,0.731433,239.842
441,0.7331,237.152
442,0.7347669999999999,234.328
443,0.736433,234.328
444,0.7381,231.735
445,0.739767,228.964
446,0.741433,226.192
447,0.7431,226.192
448,0.744767,223.935
449,0.746433,221.632
450,0.7481,221.632
451,0.74975,219.449
452,0.751417,217.341
453,0.7530829999999999,215.18
454,0.754767,215.18
455,0.756417,213.049
456,0.758083,211.068
457,0.75975,209.197
458,0.761417,209.197
459,0.763083,207.439
460,0.764733,205.636
461,0.7664,203.855
462,0.7680670000000001,203.855
463,0.76975,202.127
464,0.771533,200.517
465,0.7730669999999999,200.517
466,0.774733,199.117
467,0.7764,197.515
468,0.778067,196.114
469,0.779733,196.114
470,0.7814,194.445
471,0.783067,192.568
472,0.784733,191.398
473,0.7864,191.398
474,0.788167,190.228
475,0.789733,189.222
476,0.7914,188.306
477,0.793067,188.306
478,0.794733,187.278
479,0.7964,185.944
480,0.798067,184.536
481,0.799733,184.536
482,0.8014,183.351
483,0.803067,181.98
484,0.804833,181.98
485,0.8064,180.982
486,0.808067,180.461
487,0.809733,179.201
488,0.8114,179.201
489,0.813067,178.218
490,0.814733,177.041
491,0.8164,176.05
492,0.818067,176.05
493,0.819733,175.893
494,0.8214,175.394
495,0.823067,174.619
496,0.824717,174.619
497,0.826383,173.606
498,0.82805,172.362
499,0.829717,172.362
500,0.831383,171.46
501,0.83305,170.857
502,0.834717,170.186
503,0.836383,170.186
504,0.838117,169.694
505,0.839717,168.987
506,0.841383,168.376
507,0.84305,168.376
508,0.8447170000000001,167.765
509,0.846383,167.02
510,0.84805,166.483
511,0.8497169999999999,166.483
512,0.851383,166.021
513,0.85305,165.485
514,0.8547169999999999,165.485
515,0.856383,164.807
516,0.85805,164.255
517,0.859717,163.57
518,0.861383,163.57
519,0.86305,163.279
520,0.864717,163.16
521,0.866383,162.736
522,0.86805,162.736
523,0.869717,162.415
524,0.871383,161.789
525,0.87305,161.074
526,0.874717,161.074
527,0.876383,160.649
528,0.87805,160.195
529,0.879717,159.964
530,0.881383,159.964
531,0.88305,159.86
532,0.8847,159.428
533,0.886367,159.428
534,0.888033,159.122
535,0.889783,158.884
536,0.891367,158.444
537,0.893033,158.444
538,0.8947000000000001,158.317
539,0.896367,158.034
540,0.898033,157.461
541,0.8997000000000001,157.461
542,0.901367,156.82
543,0.903033,156.447
544,0.9046999999999999,156.328
545,0.90645,156.328
546,0.908033,156.254
547,0.9097,156.328
548,0.911367,156.328
549,0.913033,156.023
550,0.9147,155.687
551,0.916367,155.441
552,0.918033,155.441
553,0.9197,155.531
554,0.921367,155.509
555,0.923117,155.225
556,0.9247,155.225
557,0.9263670000000001,154.614
558,0.928033,153.929
559,0.9297,153.407
560,0.9313669999999999,153.407
561,0.933033,153.154
562,0.9347,153.124
563,0.9363669999999999,153.065
564,0.938033,153.065
565,0.9397,153.162
566,0.941367,152.864
567,0.943017,152.864
568,0.9446830000000001,152.752
569,0.94635,152.536
570,0.948017,152.476
571,0.9496830000000001,152.476
572,0.95135,152.685
573,0.953017,152.543
574,0.9546829999999999,152.58
575,0.95635,152.58
576,0.958017,152.275
577,0.959683,151.925
578,0.96135,151.873
579,0.963017,151.873
580,0.964683,151.522
581,0.96635,151.321
582,0.968017,151.321
583,0.969683,151.172
584,0.97135,150.524
585,0.973017,150.293
586,0.974683,150.293
587,0.9763500000000001,150.271
588,0.978033,150.271
589,0.979683,150.651
590,0.9813499999999999,150.651
591,0.983017,150.874
592,0.984683,150.442
593,0.9863499999999999,150.152
594,0.988017,150.152
595,0.989683,149.988
596,0.99135,149.883
597,0.993017,150.338
598,0.994683,150.338
599,0.99635,150.42
600,0.998017,150.301
601,0.999683,150.301
602,1.00135,150.032
603,1.003017,149.488
604,1.004667,148.9
605,1.006333,148.9
606,1.008017,148.669
607,1.009667,148.639
608,1.011333,148.684
609,1.013,148.684
610,1.014667,149.116
611,1.016333,149.354
612,1.018,149.325
613,1.019667,149.325
614,1.021333,149.213
615,1.023,148.93
616,1.024683,148.93
617,1.026333,148.647
618,1.028,148.512
619,1.029667,148.453
620,1.031333,148.453
621,1.033,148.349
622,1.034667,148.207
623,1.036333,147.924
624,1.038,147.924
625,1.039667,147.946
626,1.041433,148.058
627,1.042983,148.125
628,1.04465,148.125
629,1.046317,148.162
630,1.047983,147.611
631,1.04965,147.611
632,1.051317,147.343
633,1.052983,147.335
634,1.05465,147.268
635,1.056317,147.268
636,1.057983,147.417
637,1.05965,147.246
638,1.061317,146.985
639,1.062983,146.985
640,1.064633,146.933
641,1.0663,146.903
642,1.067967,147.32
643,1.069633,147.32
644,1.0713,147.544
645,1.072967,147.738
646,1.074633,147.76
647,1.0763,147.76
648,1.077967,147.775
649,1.079633,147.708
650,1.0813,147.708
651,1.082967,147.738
652,1.084633,147.827
653,1.0863,147.402
654,1.087967,147.402
655,1.089633,147.142
656,1.0913,146.724
657,1.092967,146.464
658,1.094633,146.464
659,1.0963,146.724
660,1.097967,146.694
661,1.099633,146.709
662,1.1013,146.709
663,1.102967,146.493
664,1.104633,146.3
665,1.1063,146.3
666,1.107967,146.21
667,1.109633,146.314
668,1.1113,146.314
669,1.112967,146.314
670,1.114633,145.949
671,1.1163,145.853
672,1.117967,145.793
673,1.119633,145.793
674,1.1213,145.786
675,1.122967,145.666
676,1.124617,145.778
677,1.1264,145.778
678,1.12795,145.681
679,1.129617,145.651
680,1.131283,146.031
681,1.13295,146.031
682,1.134617,145.867
683,1.136283,146.002
684,1.13795,146.002
685,1.139617,146.247
686,1.141283,146.136
687,1.14295,146.21
688,1.144617,146.21
689,1.146283,146.069
690,1.14795,146.061
691,1.149617,146.046
692,1.151283,146.046
693,1.15295,145.994
694,1.154617,145.771
695,1.156283,145.51
696,1.15795,145.51
697,1.159717,145.257
698,1.161283,145.353
699,1.16295,145.353
700,1.164617,145.689
701,1.166283,145.793
702,1.16795,145.927
703,1.169617,145.927
704,1.171283,145.569
705,1.17295,145.122
706,1.174617,145.301
707,1.176283,145.301
708,1.17795,145.562
709,1.179617,145.86
710,1.181283,145.853
711,1.18295,145.853
712,1.1846,145.584
713,1.186267,145.473
714,1.187933,145.443
715,1.1896,145.443
716,1.191267,145.815
717,1.192933,146.002
718,1.1946,146.002
719,1.196267,145.815
720,1.197933,145.532
721,1.199617,145.443
722,1.201333,145.443
723,1.202933,145.361
724,1.2046,145.294
725,1.206267,145.428
726,1.207933,145.428
727,1.2096,145.286
728,1.211267,145.294
729,1.212933,145.204
730,1.2146,145.204
731,1.216267,145.376
732,1.217933,145.189
733,1.2196,145.189
734,1.221267,145.115
735,1.222933,145.182
736,1.2246,144.854
737,1.226267,144.854
738,1.22795,145.04
739,1.2296,144.966
740,1.231267,145.003
741,1.232933,145.003
742,1.2346,145.204
743,1.236267,144.958
744,1.237933,145.033
745,1.2396,145.033
746,1.241267,145.108
747,1.242917,144.713
748,1.24465,144.638
749,1.24625,144.638
750,1.247917,144.191
751,1.249583,143.968
752,1.25125,143.968
753,1.252917,144.139
754,1.254583,144.146
755,1.25625,144.37
756,1.257917,144.37
757,1.259583,144.377
758,1.261283,144.541
759,1.262917,144.668
760,1.264583,144.668
761,1.26625,144.586
762,1.267917,144.564
763,1.269583,144.519
764,1.27125,144.519
765,1.272917,144.258
766,1.2746,144.34
767,1.27625,144.34
768,1.277967,144.303
769,1.279583,143.975
770,1.28125,144.221
771,1.282917,144.221
772,1.284583,144.236
773,1.28625,144.266
774,1.287917,144.489
775,1.289583,144.489
776,1.29125,144.213
777,1.292917,144.146
778,1.294583,144.266
779,1.29625,144.266
780,1.297917,144.303
781,1.299583,144.34
782,1.30125,144.34
783,1.302917,144.228
784,1.304567,144.199
785,1.306233,143.953
786,1.3079,143.953
787,1.309567,144.199
788,1.311233,144.199
789,1.3129,144.131
790,1.314567,144.131
791,1.316233,144.43
792,1.3179,144.333
793,1.319567,144.199
794,1.321233,144.199
795,1.3229,143.908
796,1.324567,143.811
797,1.326233,143.848
798,1.3279,143.848
799,1.329567,144.109
800,1.331233,144.295
801,1.332883,144.295
802,1.33455,144.355
803,1.336217,144.251
804,1.337883,144.422
805,1.33955,144.422
806,1.341217,144.459
807,1.342917,144.526
808,1.34455,144.489
809,1.346217,144.489
810,1.347883,144.43
811,1.34955,144.243
812,1.351217,143.96
813,1.352883,143.96
814,1.35455,143.997
815,1.356217,143.64
816,1.357883,143.64
817,1.35955,143.774
818,1.361217,143.737
819,1.362867,143.975
820,1.364533,143.975
821,1.3662,143.893
822,1.367867,143.692
823,1.369533,143.602
824,1.3712,143.602
825,1.372867,143.431
826,1.374533,143.588
827,1.3762,143.968
828,1.377867,143.968
829,1.379533,144.109
830,1.3812,143.826
831,1.382867,143.938
832,1.384533,143.938
833,1.3862,143.595
834,1.387867,143.588
835,1.389533,143.588
836,1.3912,143.796
837,1.392867,143.878
838,1.394533,144.176
839,1.396233,144.176
840,1.397867,143.975
841,1.399533,143.833
842,1.4012,143.878
843,1.402883,143.878
844,1.404533,143.714
845,1.4062,143.796
846,1.407867,143.737
847,1.409533,143.737
848,1.4112,143.424
849,1.412867,143.439
850,1.414533,143.439
851,1.4162,143.625
852,1.417883,143.901
853,1.41955,144.258
854,1.4212,144.258
855,1.422867,144.131
856,1.424517,143.938
857,1.426183,143.677
858,1.42785,143.677
859,1.429517,143.394
860,1.431183,143.208
861,1.43285,143.357
862,1.434517,143.357
863,1.436183,143.319
864,1.43785,143.431
865,1.439517,143.431
866,1.441183,143.595
867,1.44285,143.453
868,1.444517,143.476
869,1.446183,143.476
870,1.44785,143.416
871,1.449517,143.588
872,1.451183,143.617
873,1.45285,143.617
874,1.454517,143.684
875,1.456183,143.781
876,1.45785,143.67
877,1.459517,143.67
878,1.461183,143.521
879,1.46285,143.528
880,1.464517,143.208
881,1.466183,143.208
882,1.46785,143.185
883,1.469517,143.178
884,1.471183,143.178
885,1.47285,143.133
886,1.474517,143.2
887,1.476183,143.103
888,1.47785,143.103
889,1.479517,143.088
890,1.48125,143.074
891,1.48285,142.954
892,1.4845,142.954
893,1.4862,143.081
894,1.487833,143.178
895,1.4895,143.088
896,1.491167,143.088
897,1.492833,143.461
898,1.4945,143.23
899,1.496167,143.23
900,1.497967,143.327
901,1.4995,143.573
902,1.501167,143.304
903,1.502833,143.304
904,1.5045,143.379
905,1.506167,143.439
906,1.507833,143.342
907,1.5095,143.342
908,1.511167,143.23
909,1.512833,143.2
910,1.514617,143.163
911,1.516167,143.163
912,1.517833,143.297
913,1.5195,143.677
914,1.521167,143.722
915,1.522833,143.722
916,1.5245,143.535
917,1.526167,143.401
918,1.527833,143.401
919,1.5295,143.096
920,1.531167,142.82
921,1.532833,142.857
922,1.5345,142.857
923,1.536167,142.612
924,1.537833,142.545
925,1.5395,142.902
926,1.541167,142.902
927,1.542833,143.126
928,1.544483,143.319
929,1.54615,143.364
930,1.547817,143.364
931,1.549483,143.379
932,1.55115,142.947
933,1.552817,142.947
934,1.554483,142.843
935,1.55615,142.857
936,1.557833,142.753
937,1.559483,142.753
938,1.56115,142.984
939,1.562817,143.133
940,1.564483,143.088
941,1.56615,143.088
942,1.567817,143.17
943,1.569483,142.924
944,1.57115,143.111
945,1.572817,143.111
946,1.574483,143.357
947,1.576167,143.364
948,1.577817,143.245
949,1.579483,143.245
950,1.58115,143.066
951,1.582817,142.656
952,1.584483,142.656
953,1.58615,142.537
954,1.587817,142.82
955,1.589483,142.552
956,1.59115,142.552
957,1.592817,142.664
958,1.594483,142.91
959,1.59615,143.282
960,1.597817,143.282
