"ID","sea_time","fid_signal"
1,0,148.363
2,0.001667,148.52
3,0.003333,148.319
4,0.005,148.319
5,0.006667,148.49
6,0.008333,148.14
7,0.01,148.14
8,0.011667,147.447
9,0.013333,146.821
10,0.015,146.113
11,0.0167,146.113
12,0.0184,145.942
13,0.02,146.046
14,0.021667,146.478
15,0.023317,146.478
16,0.024983,146.843
17,0.02665,147.045
18,0.028317,147.372
19,0.029983,147.372
20,0.03165,147.425
21,0.033317,147.514
22,0.034983,147.514
23,0.03665,147.223
24,0.038317,147.097
25,0.039983,147.395
26,0.04165,147.395
27,0.043317,147.38
28,0.044983,147.462
29,0.04665,147.358
30,0.048317,147.358
31,0.049983,147.052
32,0.05175,146.911
33,0.053317,146.993
34,0.054983,146.993
35,0.05665,147.134
36,0.058317,147.045
37,0.059983,147.06
38,0.06165,147.06
39,0.063317,147.425
40,0.064983,147.462
41,0.06665,147.462
42,0.068317,147.745
43,0.069983,147.693
44,0.07165000000000001,147.566
45,0.07331699999999999,147.566
46,0.07498299999999999,147.603
47,0.07665,147.365
48,0.078317,147.268
49,0.079983,147.268
50,0.08165,147.149
51,0.08334999999999999,146.836
52,0.084967,146.97
53,0.086633,146.97
54,0.0883,147.246
55,0.08996700000000001,147.097
56,0.091667,147.097
57,0.09329999999999999,147.082
58,0.094967,147.231
59,0.096633,147.32
60,0.0983,147.32
61,0.099967,147.425
62,0.101633,147.574
63,0.1033,147.268
64,0.104967,147.268
65,0.106633,147.119
66,0.1083,147.097
67,0.109967,146.985
68,0.111633,146.985
69,0.1133,147.045
70,0.114967,147.037
71,0.116633,146.978
72,0.1183,146.978
73,0.119967,147.112
74,0.121633,147.194
75,0.1233,147.194
76,0.124967,147.268
77,0.126633,147.432
78,0.1283,147.432
79,0.129967,147.432
80,0.131633,147.276
81,0.1333,147.32
82,0.134967,147.149
83,0.1367,147.149
84,0.1383,147.395
85,0.139967,147.551
86,0.141633,147.365
87,0.143283,147.365
88,0.14495,147.641
89,0.146617,147.305
90,0.148283,147.305
91,0.14995,147.142
92,0.151617,147.372
93,0.153283,147.32
94,0.15495,147.32
95,0.156617,147.328
96,0.158283,147.7
97,0.159983,147.73
98,0.161617,147.73
99,0.1633,147.641
100,0.164967,147.663
101,0.166617,147.544
102,0.168283,147.544
103,0.169983,147.514
104,0.171617,147.417
105,0.173283,147.589
106,0.17495,147.589
107,0.176617,147.365
108,0.178283,147.089
109,0.17995,147.089
110,0.181617,147.343
111,0.183283,147.186
112,0.18495,147.38
113,0.186717,147.38
114,0.188283,147.417
115,0.18995,147.231
116,0.191617,147.149
117,0.193283,147.149
118,0.19495,146.963
119,0.196617,146.933
120,0.198283,147.112
121,0.19995,147.112
122,0.201617,147.276
123,0.203267,147.551
124,0.204933,147.551
125,0.2066,147.529
126,0.208267,146.918
127,0.209933,146.739
128,0.2116,146.739
129,0.213267,146.441
130,0.214933,146.493
131,0.2166,146.642
132,0.218267,146.642
133,0.219933,146.322
134,0.2216,146.344
135,0.223267,146.21
136,0.224933,146.21
137,0.2266,146.449
138,0.228267,146.657
139,0.229933,146.657
140,0.2316,146.545
141,0.233267,146.911
142,0.234933,146.858
143,0.2366,146.858
144,0.238267,147.03
145,0.239933,147.156
146,0.2416,146.97
147,0.243267,146.97
148,0.244933,147.007
149,0.246617,147.32
150,0.248267,147.566
151,0.249933,147.566
152,0.2516,147.738
153,0.253267,147.79
154,0.254933,147.328
155,0.2566,147.328
156,0.258267,147.082
157,0.259933,147.082
158,0.2616,147.082
159,0.26325,146.918
160,0.264917,147.179
161,0.266583,147.186
162,0.26825,147.186
163,0.269917,146.873
164,0.27165,146.903
165,0.27325,146.717
166,0.274917,146.717
167,0.276583,146.672
168,0.27825,146.806
169,0.279917,146.814
170,0.281583,146.814
171,0.283233,146.62
172,0.2849,146.56
173,0.286567,146.56
174,0.288317,146.62
175,0.2899,146.881
176,0.291567,147.082
177,0.293233,147.082
178,0.2949,146.978
179,0.296567,146.464
180,0.298233,145.89
181,0.2999,145.89
182,0.301567,145.927
183,0.303233,146.121
184,0.304967,146.709
185,0.306567,146.709
186,0.308233,147.186
187,0.3099,147.402
188,0.311567,147.454
189,0.313233,147.454
190,0.3149,147.305
191,0.316567,147.536
192,0.318233,147.536
193,0.319883,147.574
194,0.32155,147.566
195,0.323217,147.82
196,0.324883,147.82
197,0.32655,147.998
198,0.328217,148.319
199,0.329883,149.436
200,0.33155,149.436
201,0.333217,150.308
202,0.334883,151.5
203,0.33655,153.579
204,0.338233,153.579
205,0.339883,155.792
206,0.34155,159.055
207,0.343217,159.055
208,0.344883,162.959
209,0.34655,167.422
210,0.348217,173.293
211,0.349883,173.293
212,0.35155,180.49
213,0.353217,189.535
214,0.354883,200.607
215,0.35655,200.607
216,0.358217,213.489
217,0.359883,228.621
218,0.36155,246.428
219,0.363217,246.428
220,0.364883,267.401
221,0.36655,291.69
222,0.368217,319.593
223,0.3699,319.593
224,0.37155,351.72
225,0.373217,388.041
226,0.374883,388.041
227,0.37655,429.481
228,0.378217,476.941
229,0.379883,530.586
230,0.381533,530.586
231,0.3832,591.5839999999999
232,0.384867,661.626
233,0.386533,741.5940000000001
234,0.3882,741.5940000000001
235,0.389917,833.631
236,0.391533,940.971
237,0.3932,1066.223
238,0.394867,1066.223
239,0.396533,1213.223
240,0.3982,1386.806
241,0.399867,1386.806
242,0.401533,1591.533
243,0.4032,1834.162
244,0.404867,2121.113
245,0.406567,2121.113
246,0.4082,2451.725
247,0.409867,2831.474
248,0.411533,3266.372
249,0.4132,3266.372
250,0.414867,3758.743
251,0.416533,4315.287
252,0.4182,4935.138
253,0.419867,4935.138
254,0.421533,5613.35
255,0.423317,6347.165
256,0.424867,6347.165
257,0.426533,7132.188
258,0.4282,7962.532
259,0.429867,8832.537
260,0.431533,8832.537
261,0.4332,9734.489
262,0.434867,10660.067
263,0.436533,11600.145
264,0.4382,11600.145
265,0.439867,12542.509
266,0.441533,13474.814
267,0.443183,14383.882
268,0.44485,14383.882
269,0.446517,15255.63
270,0.4482,16076.312
271,0.4499,16832.479
272,0.451517,16832.479
273,0.453183,17510.734
274,0.45485,18100.441
275,0.456517,18100.441
276,0.458183,18592.656
277,0.45985,18980.727
278,0.461517,19261.129
279,0.463183,19261.129
280,0.46485,19432.352
281,0.466517,19495.682
282,0.468183,19454.703
283,0.46985,19454.703
284,0.471517,19315.854
285,0.473183,19086.912
286,0.47485,18776.969
287,0.476517,18776.969
288,0.478183,18396.049
289,0.47985,17954.275
290,0.481517,17954.275
291,0.483183,17462.135
292,0.48485,16929.836
293,0.486517,16366.869
294,0.488183,16366.869
295,0.48985,15782.58
296,0.491517,15184.648
297,0.493183,14579.87
298,0.49485,14579.87
299,0.496517,13974.518
300,0.498183,13373.33
301,0.49985,12780.606
302,0.5014999999999999,12780.606
303,0.503183,12199.953
304,0.504833,11634.201
305,0.5065,11085.413
306,0.508167,11085.413
307,0.509833,10555.498
308,0.5115,10045.543
309,0.513167,10045.543
310,0.514833,9555.847
311,0.516533,9087.168
312,0.518167,8639.245999999999
313,0.519833,8639.245999999999
314,0.5215,8212.037
315,0.523167,7805.31
316,0.524833,7418.364
317,0.5265,7418.364
318,0.5281670000000001,7050.932
319,0.529833,6702.319
320,0.5315,6372.288
321,0.5331669999999999,6372.288
322,0.534833,6059.825
323,0.5365,5764.104
324,0.538167,5764.104
325,0.539833,5484.559
326,0.5416,5220.331
327,0.543167,4970.938
328,0.544833,4970.938
329,0.5465,4735.887
330,0.548167,4514.307
331,0.549833,4303.687
332,0.5515,4303.687
333,0.553167,4104.428
334,0.554833,3916.122
335,0.5565,3738.098
336,0.558167,3738.098
337,0.559833,3571.235
338,0.5615,3413.774
339,0.56315,3264.472
340,0.564817,3264.472
341,0.5665,3123.023
342,0.568167,2989.486
343,0.569817,2989.486
344,0.571483,2863.064
345,0.573133,2743.557
346,0.5748,2630.353
347,0.576467,2630.353
348,0.578133,2522.685
349,0.5798,2420.597
350,0.581467,2324.052
351,0.583133,2324.052
352,0.5848,2233.125
353,0.586467,2145.722
354,0.58815,2062.127
355,0.589817,2062.127
356,0.591467,1982.406
357,0.593133,1906.313
358,0.5948,1906.313
359,0.596467,1834.705
360,0.598133,1766.987
361,0.5998,1702.748
362,0.601467,1702.748
363,0.603133,1640.61
364,0.6048,1581.438
365,0.606467,1525.305
366,0.608133,1525.305
367,0.6098,1471.266
368,0.611467,1420.125
369,0.613133,1371.443
370,0.6148,1371.443
371,0.616467,1324.594
372,0.618133,1279.771
373,0.6198,1279.771
374,0.6214499999999999,1236.953
375,0.623117,1195.937
376,0.624783,1156.561
377,0.626533,1156.561
378,0.628117,1119.211
379,0.629783,1083.307
380,0.63145,1049.191
381,0.633117,1049.191
382,0.634783,1016.788
383,0.63645,985.645
384,0.638117,955.8049999999999
385,0.639783,955.8049999999999
386,0.64145,927.053
387,0.643117,899.337
388,0.644783,872.441
389,0.64645,872.441
390,0.6481170000000001,846.744
391,0.649783,822.067
392,0.65145,822.067
393,0.6531169999999999,798.6950000000001
394,0.654783,776.2910000000001
395,0.65645,754.654
396,0.658117,754.654
397,0.659883,734.1799999999999
398,0.66145,714.302
399,0.663117,695.385
400,0.664783,695.385
401,0.66645,677.586
402,0.668133,659.972
403,0.669783,643.3200000000001
404,0.67145,643.3200000000001
405,0.673117,627.503
406,0.674783,611.961
407,0.67645,611.961
408,0.678117,597.201
409,0.679783,582.777
410,0.681433,568.919
411,0.6831,568.919
412,0.684767,555.821
413,0.686433,543.408
414,0.6881,531.375
415,0.689767,531.375
416,0.691433,519.715
417,0.6931,508.189
418,0.694767,497.155
419,0.696433,497.155
420,0.6981000000000001,486.679
421,0.699767,476.353
422,0.701433,466.608
423,0.7030999999999999,466.608
424,0.704767,457.503
425,0.706433,448.547
426,0.7081,448.547
427,0.709767,440.009
428,0.711433,431.649
429,0.7131,423.491
430,0.714767,423.491
431,0.716433,415.795
432,0.7181,408.739
433,0.719767,401.735
434,0.721433,401.735
435,0.7231,394.441
436,0.7247670000000001,387.698
437,0.726433,381.052
438,0.7281,381.052
439,0.7297670000000001,375.047
440,0.731433,369.452
441,0.7331,369.452
442,0.7347669999999999,363.581
443,0.736433,357.762
444,0.7381,352.211
445,0.739767,352.211
446,0.741433,347.055
447,0.743083,342.026
448,0.744833,337.631
449,0.746417,337.631
450,0.7480830000000001,333.026
451,0.74975,328.407
452,0.751417,324.145
453,0.7530829999999999,324.145
454,0.75475,319.704
455,0.756417,315.562
456,0.758083,311.635
457,0.75975,311.635
458,0.761417,308.074
459,0.763083,304.706
460,0.76475,304.706
461,0.766417,301.532
462,0.768083,298.344
463,0.76975,295.013
464,0.771417,295.013
465,0.773083,291.571
466,0.77475,288.375
467,0.776417,285.201
468,0.77815,285.201
469,0.7797500000000001,282.452
470,0.781417,279.874
471,0.783083,277.169
472,0.7847499999999999,277.169
473,0.786417,274.472
474,0.788083,271.723
475,0.78975,271.723
476,0.791417,269.04
477,0.793083,266.299
478,0.79475,263.825
479,0.796417,263.825
480,0.798083,261.582
481,0.79975,259.124
482,0.8014,257.038
483,0.803067,257.038
484,0.804733,255.19
485,0.8064,253.61
486,0.808067,251.971
487,0.809733,251.971
488,0.8114,250.138
489,0.8131,248.566
490,0.814733,248.566
491,0.8164,246.242
492,0.818067,244.662
493,0.819733,243.291
494,0.8214,243.291
495,0.823067,241.406
496,0.824733,239.827
497,0.8264,238.165
498,0.828067,238.165
499,0.8297330000000001,236.288
500,0.8314,234.589
501,0.833067,233.032
502,0.8347329999999999,233.032
503,0.8364,231.378
504,0.838067,229.999
505,0.839733,228.815
506,0.8414,228.815
507,0.843067,227.615
508,0.844733,226.483
509,0.8464,226.483
510,0.848067,225.395
511,0.849733,224.009
512,0.8514,222.884
513,0.853067,222.884
514,0.854733,221.744
515,0.8564000000000001,220.709
516,0.858067,219.971
517,0.859733,219.971
518,0.861383,218.898
519,0.8631,217.691
520,0.8647,216.298
521,0.866367,216.298
522,0.8680330000000001,215.031
523,0.8697,214.07
524,0.871367,214.07
525,0.8730329999999999,213.295
526,0.8747,212.632
527,0.8764,211.701
528,0.878033,211.701
529,0.8797,210.807
530,0.881367,209.846
531,0.883033,208.959
532,0.8847,208.959
533,0.886367,208.557
534,0.888033,207.998
535,0.8897,207.342
536,0.891367,207.342
537,0.893033,206.448
538,0.8947000000000001,205.39
539,0.896467,204.384
540,0.898033,204.384
541,0.8997000000000001,203.654
542,0.901367,203.386
543,0.903033,203.386
544,0.9046999999999999,202.715
545,0.906367,202.216
546,0.908033,201.367
547,0.9097,201.367
548,0.911367,200.458
549,0.913033,200.152
550,0.9147,199.728
551,0.916367,199.728
552,0.918033,199.601
553,0.9197,199.161
554,0.92135,198.379
555,0.923017,198.379
556,0.924683,197.5
557,0.92635,196.747
558,0.928017,196.747
559,0.929683,195.995
560,0.93135,195.235
561,0.933017,194.915
562,0.934683,194.915
563,0.93635,194.505
564,0.938017,194.125
565,0.939683,193.67
566,0.94135,193.67
567,0.943017,192.888
568,0.9446830000000001,192.53
569,0.94635,192.523
570,0.9480499999999999,192.523
571,0.9496830000000001,192.672
572,0.95135,192.523
573,0.953017,191.845
574,0.9546829999999999,191.845
575,0.95635,191.011
576,0.958017,189.975
577,0.959683,189.975
578,0.96135,189.379
579,0.963017,188.887
580,0.964683,188.492
581,0.96635,188.492
582,0.968017,188.12
583,0.9697,187.516
584,0.97135,186.861
585,0.973017,186.861
586,0.974683,186.466
587,0.9763500000000001,185.981
588,0.978017,185.84
589,0.979683,185.84
590,0.9814000000000001,185.639
591,0.983,185.199
592,0.984667,185.199
593,0.986333,185.065
594,0.988,184.633
595,0.989667,184.469
596,0.991333,184.469
597,0.993,184.059
598,0.994667,183.582
599,0.996333,183.523
600,0.998067,183.523
601,0.999667,183.277
602,1.001333,183.113
603,1.003,183.344
604,1.004667,183.344
605,1.006333,182.986
606,1.008,182.621
607,1.009667,182.621
608,1.011333,182.137
609,1.013,181.243
610,1.014783,180.58
611,1.016333,180.58
612,1.018017,180.297
613,1.019667,180.237
614,1.021333,180.177
615,1.023,180.177
616,1.024667,180.185
617,1.026333,179.924
618,1.028,179.529
619,1.029667,179.529
620,1.031433,179.306
621,1.033,179.395
622,1.034667,179.268
623,1.036333,179.268
624,1.038,179.045
625,1.039667,178.665
626,1.041317,178.665
627,1.042983,177.898
628,1.04465,177.361
629,1.046317,177.026
630,1.047983,177.026
631,1.04965,176.772
632,1.051317,177.041
633,1.052983,177.242
634,1.05465,177.242
635,1.056317,177.398
636,1.057983,177.346
637,1.05965,176.869
638,1.061317,176.869
639,1.062983,176.549
640,1.06465,175.908
641,1.066317,175.908
642,1.067983,175.7
643,1.06965,175.431
644,1.071317,175.066
645,1.072983,175.066
646,1.07465,175.133
647,1.076317,174.865
648,1.077983,174.642
649,1.07965,174.642
650,1.081317,174.582
651,1.082983,174.195
652,1.08465,173.897
653,1.086333,173.897
654,1.087983,173.837
655,1.08965,173.129
656,1.091317,172.973
657,1.092983,172.973
658,1.09465,172.824
659,1.096317,172.533
660,1.097983,172.533
661,1.099633,172.868
662,1.1013,172.63
663,1.102967,172.488
664,1.104633,172.488
665,1.1063,172.228
666,1.107967,172.026
667,1.109633,172.257
668,1.1113,172.257
669,1.112967,172.19
670,1.114633,172.131
671,1.1163,171.818
672,1.117967,171.818
673,1.119633,171.423
674,1.1213,171.445
675,1.122967,171.445
676,1.124633,171.423
677,1.1263,171.363
678,1.127967,171.162
679,1.129633,171.162
680,1.1313,170.648
681,1.133033,170.171
682,1.134633,169.963
683,1.1363,169.963
684,1.137967,170.089
685,1.139633,170.246
686,1.1413,170.454
687,1.142967,170.454
688,1.144633,170.067
689,1.1463,169.531
690,1.147967,169.292
691,1.149733,169.292
692,1.1513,169.098
693,1.152967,168.927
694,1.154633,168.927
695,1.156283,168.86
696,1.15795,168.584
697,1.159617,168.182
698,1.161267,168.182
699,1.162967,168.577
700,1.1646,168.428
701,1.1663,168.346
702,1.167933,168.346
703,1.1696,168.413
704,1.171267,167.944
705,1.172933,167.921
706,1.1746,167.921
707,1.176267,168.063
708,1.177933,168.182
709,1.1796,168.182
710,1.181267,168.324
711,1.182933,168.167
712,1.1846,167.735
713,1.186267,167.735
714,1.187933,167.243
715,1.1896,166.804
716,1.191267,166.848
717,1.192933,166.848
718,1.1946,166.96
719,1.196267,166.975
720,1.197933,167.117
721,1.1996,167.117
722,1.201267,166.833
723,1.202933,166.699
724,1.2046,166.699
725,1.206267,166.833
726,1.207933,166.751
727,1.2096,166.766
728,1.211267,166.766
729,1.212933,166.483
730,1.2146,166.23
731,1.216267,165.738
732,1.217917,165.738
733,1.2196,165.582
734,1.221267,165.649
735,1.222917,165.589
736,1.224583,165.589
737,1.22625,165.693
738,1.227917,165.656
739,1.229583,165.53
740,1.23125,165.53
741,1.232917,165.306
742,1.234717,165.194
743,1.23625,165.194
744,1.237917,165.03
745,1.239583,164.859
746,1.24125,164.889
747,1.242917,164.889
748,1.244583,165.008
749,1.24625,165.187
750,1.247917,165.127
751,1.249583,165.127
752,1.2513,164.896
753,1.252917,164.732
754,1.254583,164.3
755,1.25625,164.3
756,1.257917,164.196
757,1.259583,164.01
758,1.26125,164.01
759,1.262917,163.905
760,1.264583,163.883
761,1.26625,163.719
762,1.268017,163.719
763,1.269583,163.719
764,1.27125,163.302
765,1.272917,163.279
766,1.274583,163.279
767,1.27625,163.227
768,1.277917,163.101
769,1.279583,163.205
770,1.281233,163.205
771,1.2829,163.198
772,1.284567,163.138
773,1.286233,163.242
774,1.2879,163.242
775,1.289567,163.309
776,1.291233,163.332
777,1.2929,163.332
778,1.294567,163.518
779,1.296233,163.198
780,1.2979,162.929
781,1.299567,162.929
782,1.301233,162.572
783,1.302933,162.154
784,1.304633,162.192
785,1.306233,162.192
786,1.3079,162.236
787,1.309567,162.065
788,1.311233,162.221
789,1.3129,162.221
790,1.314567,162.199
791,1.316233,162.02
792,1.3179,162.02
793,1.319567,162.14
794,1.321233,161.901
795,1.3229,161.774
796,1.324567,161.774
797,1.326233,161.722
798,1.3279,161.603
799,1.329567,161.573
800,1.331233,161.573
801,1.3329,161.387
802,1.334567,161.454
803,1.336233,161.447
804,1.3379,161.447
805,1.339567,161.111
806,1.341217,161.186
807,1.342883,161.074
808,1.34455,161.074
809,1.346217,160.91
810,1.347883,160.88
811,1.34955,160.88
812,1.351217,160.567
813,1.352883,160.262
814,1.35455,159.733
815,1.356217,159.733
816,1.357883,159.621
817,1.35955,159.74
818,1.361217,159.889
819,1.362883,159.889
820,1.36455,160.068
821,1.366217,160.307
822,1.367883,160.322
823,1.369633,160.322
824,1.371217,160.173
825,1.3729,160.165
826,1.374583,160.165
827,1.376233,160.068
828,1.377883,159.8
829,1.37955,159.606
830,1.381217,159.606
831,1.382883,159.711
832,1.38455,159.219
833,1.386317,159.085
834,1.387883,159.085
835,1.38955,159.189
836,1.391217,159.211
837,1.392883,159.517
838,1.39455,159.517
839,1.396217,159.465
840,1.397883,159.36
841,1.399533,159.36
842,1.4012,159.197
843,1.402867,159.1
844,1.404533,159.241
845,1.4062,159.241
846,1.407867,159.301
847,1.409533,159.182
848,1.4112,159.055
849,1.412867,159.055
850,1.414533,158.809
851,1.4162,158.608
852,1.417867,158.37
853,1.419533,158.37
854,1.4212,158.474
855,1.422867,158.444
856,1.424533,158.377
857,1.4262,158.377
858,1.427867,158.466
859,1.429533,158.407
860,1.4312,158.407
861,1.432867,158.295
862,1.434533,158.325
863,1.4362,158.362
864,1.437867,158.362
865,1.439533,158.176
866,1.4412,158.213
867,1.442867,157.93
868,1.444533,157.93
869,1.4462,157.87
870,1.44785,157.848
871,1.449517,157.714
872,1.451183,157.714
873,1.45285,158.146
874,1.454517,158.258
875,1.456183,158.258
876,1.45785,158.034
877,1.459517,158.094
878,1.461183,157.736
879,1.462833,157.736
880,1.4645,157.334
881,1.466167,157.587
882,1.467833,157.557
883,1.4695,157.557
884,1.471167,157.237
885,1.472833,157.17
886,1.4745,157.043
887,1.476167,157.043
888,1.477833,156.865
889,1.4795,157.274
890,1.481167,157.282
891,1.482833,157.282
892,1.4845,157.341
893,1.486167,157.297
894,1.487833,157.297
895,1.4895,157.11
896,1.491167,157.259
897,1.492833,157.14
898,1.4945,157.14
899,1.496167,157.431
900,1.497833,157.416
901,1.4995,157.692
902,1.501167,157.692
903,1.502833,157.848
904,1.504617,157.781
905,1.506167,157.595
906,1.507833,157.595
907,1.5095,157.267
908,1.511167,157.118
909,1.512833,157.118
910,1.5145,157.014
911,1.516167,157.014
912,1.517833,156.917
913,1.519517,156.917
914,1.52115,156.581
915,1.522817,156.298
916,1.524483,156.127
917,1.52615,156.127
918,1.527817,156.09
919,1.529483,155.985
920,1.53115,156.261
921,1.532817,156.261
922,1.534483,156.395
923,1.53615,156.254
924,1.537817,156.44
925,1.539483,156.44
926,1.541167,156.216
927,1.542817,156.201
928,1.544483,156.201
929,1.54615,156.41
930,1.547833,156.514
931,1.549483,156.455
932,1.55115,156.455
933,1.552817,156.052
934,1.554483,155.747
935,1.55615,155.568
936,1.557817,155.568
937,1.559483,155.561
938,1.56115,155.874
939,1.562817,155.963
940,1.564483,155.963
941,1.56615,155.695
942,1.567817,155.613
943,1.569483,155.613
944,1.57115,155.658
945,1.572817,155.449
946,1.574483,155.464
947,1.57615,155.464
948,1.577817,155.196
949,1.579483,154.987
950,1.581133,154.771
951,1.5828,154.771
952,1.5845,154.935
