"ID","sea_time","fid_signal"
1,0,1175.776
2,0.001667,1174.212
3,0.003333,1174.435
4,0.005,1174.435
5,0.006667,1173.69
6,0.008416999999999999,1172.572
7,0.009983000000000001,1172.572
8,0.01165,1169.369
9,0.013317,1166.686
10,0.014983,1162.589
11,0.01665,1162.589
12,0.018317,1161.173
13,0.019983,1165.494
14,0.02165,1169.965
15,0.023317,1169.965
16,0.0251,1173.988
17,0.02665,1174.137
18,0.028317,1172.051
19,0.029983,1172.051
20,0.03165,1169.369
21,0.033317,1166.984
22,0.034983,1166.91
23,0.03665,1166.91
24,0.038317,1169.741
25,0.039983,1170.784
26,0.041717,1170.784
27,0.043317,1173.765
28,0.044983,1175.404
29,0.04665,1173.988
30,0.048317,1173.988
31,0.049983,1173.541
32,0.05165,1170.933
33,0.053317,1170.561
34,0.054983,1170.561
35,0.05665,1169.145
36,0.058317,1167.133
37,0.059983,1167.729
38,0.06165,1167.729
39,0.063317,1167.506
40,0.064983,1169.965
41,0.06665,1169.965
42,0.068317,1172.721
43,0.069967,1172.945
44,0.071633,1172.423
45,0.0733,1172.423
46,0.07496700000000001,1168.549
47,0.07663300000000001,1165.718
48,0.07829999999999999,1165.42
49,0.079967,1165.42
50,0.081633,1166.835
51,0.0833,1171.082
52,0.084967,1172.423
53,0.086633,1172.423
54,0.0883,1174.212
55,0.08996700000000001,1173.019
56,0.09163300000000001,1170.337
57,0.09329999999999999,1170.337
58,0.094967,1171.604
59,0.096633,1170.933
60,0.0983,1170.933
61,0.099967,1173.988
62,0.101633,1175.925
63,0.1033,1176
64,0.104967,1176
65,0.106633,1174.51
66,0.1083,1170.114
67,0.109983,1167.953
68,0.111633,1167.953
69,0.1133,1164.973
70,0.114967,1168.177
71,0.116633,1174.212
72,0.1183,1174.212
73,0.119967,1176.521
74,0.121633,1176.223
75,0.1233,1176.223
76,0.124967,1174.733
77,0.126633,1168.773
78,0.128283,1167.432
79,0.129967,1167.432
80,0.131617,1170.933
81,0.133283,1170.412
82,0.13495,1174.957
83,0.136617,1174.957
84,0.138283,1177.192
85,0.13995,1173.839
86,0.141617,1172.125
87,0.143283,1172.125
88,0.14495,1167.133
89,0.146617,1164.6
90,0.148317,1167.804
91,0.14995,1167.804
92,0.151617,1168.698
93,0.153283,1170.263
94,0.15495,1170.263
95,0.156617,1169.592
96,0.158283,1167.282
97,0.16005,1168.251
98,0.161617,1168.251
99,0.163283,1170.188
100,0.16495,1169.667
101,0.166617,1171.008
102,0.168283,1171.008
103,0.16995,1170.635
104,0.171617,1168.773
105,0.173283,1170.114
106,0.17495,1170.114
107,0.176733,1168.847
108,0.178283,1168.549
109,0.17995,1168.549
110,0.181617,1169.816
111,0.183283,1168.773
112,0.18495,1170.71
113,0.186617,1170.71
114,0.188333,1171.529
115,0.189933,1171.231
116,0.1916,1172.87
117,0.193267,1172.87
118,0.194933,1171.38
119,0.1966,1171.008
120,0.198283,1170.337
121,0.199933,1170.337
122,0.2016,1171.604
123,0.203267,1172.498
124,0.204933,1175.553
125,0.2066,1175.553
126,0.208267,1178.98
127,0.209933,1174.733
128,0.2116,1174.733
129,0.213267,1173.019
130,0.214933,1171.231
131,0.2166,1170.188
132,0.218267,1170.188
133,0.219933,1172.125
134,0.2216,1174.137
135,0.223267,1174.807
136,0.224933,1174.807
137,0.2266,1172.945
138,0.228267,1172.572
139,0.229917,1171.082
140,0.231583,1171.082
141,0.23325,1171.157
142,0.234917,1173.243
143,0.236583,1173.243
144,0.23825,1175.255
145,0.239917,1173.168
146,0.241583,1172.423
147,0.24325,1172.423
148,0.244933,1171.976
149,0.246583,1168.102
150,0.24825,1168.326
151,0.249917,1168.326
152,0.251617,1166.314
153,0.253233,1162.812
154,0.2549,1164.377
155,0.256567,1164.377
156,0.258233,1167.133
157,0.2599,1167.357
158,0.261633,1169.965
159,0.263233,1169.965
160,0.2649,1169.89
161,0.266567,1168.996
162,0.268233,1168.996
163,0.2699,1170.188
164,0.271567,1170.933
165,0.273233,1171.976
166,0.2749,1171.976
167,0.276567,1173.615
168,0.278317,1172.2
169,0.2799,1172.87
170,0.281567,1172.87
171,0.283233,1172.87
172,0.2849,1172.349
173,0.286567,1172.274
174,0.288233,1172.274
175,0.2899,1169.592
176,0.291567,1168.549
177,0.293233,1168.549
178,0.295,1166.239
179,0.296567,1165.494
180,0.298233,1167.804
181,0.2999,1167.804
182,0.301567,1170.039
183,0.303233,1172.125
184,0.3049,1172.945
185,0.306567,1172.945
186,0.308233,1169.816
187,0.3099,1169.518
188,0.31155,1167.506
189,0.313217,1167.506
190,0.314883,1167.953
191,0.31655,1170.933
192,0.318217,1170.933
193,0.319883,1171.306
194,0.321567,1171.827
195,0.323217,1171.455
196,0.324883,1171.455
197,0.32655,1173.094
198,0.328217,1174.212
199,0.329883,1178.905
200,0.33155,1178.905
201,0.333217,1184.94
202,0.334883,1189.336
203,0.33655,1195.893
204,0.338217,1195.893
205,0.339883,1203.194
206,0.34155,1213.7
207,0.343217,1226.142
208,0.344883,1226.142
209,0.34655,1239.851
210,0.348217,1255.125
211,0.349883,1255.125
212,0.35155,1273.155
213,0.353217,1292.601
214,0.354883,1318.902
215,0.35655,1318.902
216,0.358217,1349.822
217,0.359883,1384.765
218,0.36155,1427.233
219,0.363217,1427.233
220,0.364883,1472.533
221,0.36655,1526.624
222,0.368217,1584.068
223,0.369883,1584.068
224,0.371533,1647.845
225,0.373217,1723.468
226,0.374867,1723.468
227,0.376533,1804.158
228,0.3782,1895.13
229,0.379933,1991.838
230,0.381533,1991.838
231,0.3832,2090.708
232,0.384867,2197.772
233,0.386533,2311.543
234,0.3882,2311.543
235,0.389867,2431.944
236,0.391533,2565.16
237,0.3932,2707.69
238,0.394917,2707.69
239,0.39655,2860.054
240,0.3982,3027.245
241,0.399867,3207.028
242,0.401533,3207.028
243,0.4032,3400.743
244,0.404867,3607.05
245,0.406533,3607.05
246,0.4082,3830.865
247,0.409867,4077.405
248,0.411533,4355.088
249,0.413283,4355.088
250,0.414867,4673.302
251,0.416533,5044.564
252,0.4182,5478.337
253,0.419867,5478.337
254,0.421533,5987.287
255,0.4232,6600.544
256,0.424867,7331.073
257,0.426533,7331.073
258,0.4282,8203.313
259,0.429867,9249.821
260,0.431517,9249.821
261,0.433183,10492.578
262,0.43485,11963.397
263,0.436517,13692.379
264,0.438183,13692.379
265,0.43985,15700.534
266,0.441517,18014.387
267,0.443183,20653.979
268,0.44485,20653.979
269,0.446517,23628.846
270,0.448183,26942.863
271,0.44985,30572.713
272,0.451517,30572.713
273,0.453183,34487.473
274,0.45485,38638.414
275,0.456517,38638.414
276,0.458183,42954.16
277,0.45985,47362.074
278,0.461533,51775.277
279,0.463233,51775.277
280,0.46485,56097.434
281,0.466517,60242.34
282,0.468183,64120.07
283,0.46985,64120.07
284,0.471517,67652.461
285,0.473183,70779.102
286,0.47485,73444.914
287,0.476517,73444.914
288,0.478183,75621.008
289,0.47985,77277.648
290,0.481517,78410.875
291,0.483183,78410.875
292,0.48485,79025.773
293,0.486517,79135
294,0.488183,79135
295,0.48985,78772.383
296,0.4915,77969.42999999999
297,0.493167,76769.219
298,0.494833,76769.219
299,0.4965,75217.781
300,0.498167,73360.95299999999
301,0.499833,71249.531
302,0.5014999999999999,71249.531
303,0.503167,68934.414
304,0.504833,66457.164
305,0.5065,63865.184
306,0.508167,63865.184
307,0.509833,61193.48
308,0.5115,58476.625
309,0.513167,58476.625
310,0.514833,55750.086
311,0.5165,53036.734
312,0.518167,50367.34
313,0.519833,50367.34
314,0.521483,47759.934
315,0.52315,45229.496
316,0.524817,42792.262
317,0.526483,42792.262
318,0.52815,40452.035
319,0.529817,38215.445
320,0.531583,36088.152
321,0.53315,36088.152
322,0.534817,34071.43
323,0.536483,32165.721
324,0.53815,30374.75
325,0.539817,30374.75
326,0.54155,28690.92
327,0.54315,27109.682
328,0.544817,27109.682
329,0.5464830000000001,25630.594
330,0.54815,24244.264
331,0.549817,22947.117
332,0.551467,22947.117
333,0.553133,21735.43
334,0.5548,20604.357
335,0.556467,19545.928
336,0.558133,19545.928
337,0.5598,18560.588
338,0.561467,17640.516
339,0.563133,16774.014
340,0.5648,16774.014
341,0.5664670000000001,15966.147
342,0.568133,15209.392
343,0.5698,15209.392
344,0.5714669999999999,14501.438
345,0.573133,13840.124
346,0.5748,13218.373
347,0.576467,13218.373
348,0.578133,12635.439
349,0.5798,12087.151
350,0.581467,11573.136
351,0.583133,11573.136
352,0.5848,11091.083
353,0.586467,10636.971
354,0.588133,10210.425
355,0.5898,10210.425
356,0.591467,9808.763999999999
357,0.593133,9430.945
358,0.5948,9071.306
359,0.596467,9071.306
360,0.598133,8729.025
361,0.5998,8408.949000000001
362,0.601483,8408.949000000001
363,0.603133,8103.624
364,0.6048,7815.733
365,0.606467,7544.979
366,0.608133,7544.979
367,0.6098,7285.327
368,0.61145,7037.521
369,0.613133,6804.913
370,0.614783,6804.913
371,0.6164500000000001,6582.663
372,0.618117,6371.438
373,0.619783,6170.943
374,0.6214499999999999,6170.943
375,0.623117,5978.942
376,0.624783,5795.732
377,0.62645,5795.732
378,0.628117,5617.663
379,0.629783,5448.609
380,0.63145,5289.987
381,0.633117,5289.987
382,0.634783,5138.367
383,0.63645,4993.528
384,0.638117,4857.853
385,0.639783,4857.853
386,0.64145,4721.358
387,0.643117,4593.432
388,0.644783,4473.701
389,0.64645,4473.701
390,0.6481170000000001,4354.79
391,0.649883,4245.192
392,0.65145,4245.192
393,0.6531169999999999,4139.99
394,0.654783,4037.842
395,0.65645,3939.42
396,0.658117,3939.42
397,0.659783,3840.402
398,0.66145,3744.513
399,0.663117,3653.541
400,0.664783,3653.541
401,0.66645,3570.244
402,0.668117,3492.609
403,0.669783,3413.334
404,0.6714329999999999,3413.334
405,0.6731,3337.562
406,0.674767,3263.354
407,0.676433,3190.711
408,0.6781,3190.711
409,0.679783,3125.072
410,0.681433,3060.326
411,0.6831,3060.326
412,0.684767,2998.039
413,0.686433,2938.062
414,0.6881,2878.532
415,0.689767,2878.532
416,0.691433,2819.374
417,0.6931,2761.856
418,0.694767,2707.317
419,0.696433,2707.317
420,0.6981000000000001,2654.716
421,0.699767,2609.715
422,0.70145,2564.937
423,0.7030999999999999,2564.937
424,0.704767,2519.339
425,0.706433,2477.989
426,0.7081,2477.989
427,0.709767,2434.403
428,0.711433,2392.456
429,0.7131,2356.172
430,0.714767,2356.172
431,0.716433,2318.025
432,0.7181,2279.58
433,0.719767,2246.946
434,0.721433,2246.946
435,0.7231,2212.152
436,0.7247670000000001,2179.369
437,0.726433,2150.238
438,0.7281,2150.238
439,0.7297670000000001,2117.157
440,0.731417,2085.79
441,0.733083,2056.807
442,0.734833,2056.807
443,0.736417,2025.142
444,0.738083,1993.328
445,0.73975,1993.328
446,0.741417,1968.741
447,0.743083,1943.633
448,0.74475,1920.387
449,0.746417,1920.387
450,0.7480830000000001,1903.325
451,0.74975,1881.272
452,0.751433,1860.634
453,0.7530829999999999,1860.634
454,0.75475,1842.603
455,0.756417,1821.145
456,0.758083,1801.252
457,0.75975,1801.252
458,0.761417,1782.7
459,0.763083,1762.435
460,0.76475,1762.435
461,0.766417,1741.275
462,0.7681829999999999,1721.829
463,0.76975,1701.713
464,0.771417,1701.713
465,0.773083,1683.235
466,0.77475,1669.377
467,0.776417,1655.519
468,0.778083,1655.519
469,0.7797500000000001,1644.716
470,0.781417,1632.124
471,0.783083,1619.309
472,0.7847499999999999,1619.309
473,0.786417,1606.569
474,0.788083,1592.189
475,0.789767,1578.331
476,0.7914,1578.331
477,0.793067,1565.292
478,0.794733,1551.583
479,0.7964,1551.583
480,0.798067,1538.917
481,0.799733,1530.945
482,0.8014,1523.569
483,0.803067,1523.569
484,0.804733,1515.225
485,0.8064,1505.464
486,0.808067,1495.853
487,0.809733,1495.853
488,0.8114,1483.485
489,0.8130500000000001,1471.788
490,0.814717,1463.518
491,0.816383,1463.518
492,0.8180500000000001,1454.502
493,0.819717,1446.232
494,0.821383,1446.232
495,0.8230499999999999,1443.103
496,0.824717,1437.142
497,0.826383,1432.672
498,0.82805,1432.672
499,0.829717,1429.021
500,0.831383,1422.167
501,0.83305,1413.673
502,0.834717,1413.673
503,0.836383,1403.987
504,0.83805,1396.462
505,0.839717,1390.874
506,0.841383,1390.874
507,0.84305,1387.596
508,0.8447170000000001,1382.083
509,0.846383,1382.083
510,0.84805,1377.24
511,0.8497169999999999,1368.374
512,0.851367,1361.817
513,0.8531,1361.817
514,0.8547,1358.837
515,0.856367,1352.355
516,0.858033,1348.183
517,0.8597,1348.183
518,0.861367,1344.234
519,0.8630330000000001,1339.54
520,0.8647,1337.901
521,0.866367,1337.901
522,0.8680330000000001,1334.026
523,0.869833,1331.493
524,0.871367,1326.352
525,0.87305,1326.352
526,0.8747,1319.945
527,0.876367,1319.051
528,0.878033,1319.051
529,0.8797,1314.208
530,0.881367,1314.208
531,0.883033,1311.004
532,0.8847,1311.004
533,0.886467,1301.765
534,0.888033,1298.189
535,0.8897,1292.676
536,0.891367,1292.676
537,0.893033,1291.931
538,0.8947000000000001,1293.868
539,0.896367,1291.856
540,0.898033,1291.856
541,0.899717,1287.907
542,0.901367,1282.916
543,0.903033,1282.916
544,0.9046999999999999,1279.414
545,0.906367,1276.284
546,0.908033,1276.433
547,0.9097,1276.433
548,0.91135,1273.379
549,0.913017,1270.547
550,0.914683,1267.94
551,0.91635,1267.94
552,0.918017,1267.716
553,0.919683,1269.281
554,0.92135,1268.685
555,0.923017,1268.685
556,0.924683,1265.332
557,0.92635,1260.564
558,0.928017,1258.999
559,0.929683,1258.999
560,0.93135,1257.136
561,0.933017,1257.286
562,0.934683,1257.286
563,0.93635,1254.305
564,0.938017,1249.239
565,0.939683,1248.345
566,0.94135,1248.345
567,0.943017,1246.855
568,0.9446830000000001,1246.557
569,0.94635,1248.419
570,0.948017,1248.419
571,0.9496830000000001,1244.172
572,0.95135,1243.129
573,0.953017,1242.235
574,0.9546829999999999,1242.235
575,0.95635,1240.894
576,0.958017,1239.851
577,0.959683,1239.851
578,0.96135,1238.361
579,0.963017,1234.114
580,0.964683,1229.346
581,0.96635,1229.346
582,0.968017,1229.867
583,0.969683,1230.091
584,0.97135,1232.251
585,0.973,1232.251
586,0.974667,1230.612
587,0.976333,1231.134
588,0.978,1229.271
589,0.979667,1229.271
590,0.981333,1229.569
591,0.983,1232.177
592,0.984667,1231.357
593,0.986333,1231.357
594,0.988067,1230.985
595,0.989667,1227.707
596,0.991333,1227.707
597,0.993,1224.726
598,0.994667,1222.417
599,0.996333,1220.182
600,0.998,1220.182
601,0.999667,1218.766
602,1.001333,1218.17
603,1.003,1215.488
604,1.00475,1215.488
605,1.006333,1214.668
606,1.008,1217.499
607,1.009667,1217.425
608,1.011333,1217.425
609,1.013,1221.299
610,1.014667,1221.821
611,1.016333,1221.821
612,1.018,1218.617
613,1.019667,1219.139
614,1.021433,1217.201
615,1.023,1217.201
616,1.024667,1218.319
617,1.026333,1220.256
618,1.028,1220.256
619,1.029667,1220.256
620,1.031317,1216.009
621,1.032983,1214.594
622,1.03465,1212.209
623,1.036317,1212.209
624,1.037983,1209.974
625,1.03965,1214.072
626,1.041367,1213.029
627,1.04305,1213.029
628,1.04465,1214.594
629,1.046317,1215.935
630,1.047983,1215.935
631,1.04965,1212.88
632,1.051317,1213.476
633,1.052983,1211.911
634,1.05465,1211.911
635,1.056317,1208.484
636,1.057983,1207.441
637,1.05965,1205.578
638,1.061317,1205.578
639,1.062983,1203.492
640,1.06465,1206.622
641,1.066317,1207.218
642,1.067983,1207.218
643,1.06965,1206.845
644,1.071317,1208.484
645,1.072983,1208.484
646,1.07465,1207.143
647,1.076317,1207.441
648,1.077983,1204.684
649,1.07965,1204.684
650,1.081317,1202.002
651,1.082983,1200.512
652,1.08465,1200.14
653,1.086317,1200.14
654,1.087983,1202.375
655,1.08965,1204.759
656,1.0913,1202.747
657,1.092967,1202.747
658,1.094633,1202.896
659,1.0963,1201.928
660,1.097967,1201.928
661,1.099633,1200.512
662,1.1013,1201.928
663,1.10295,1200.289
664,1.104617,1200.289
665,1.10635,1200.065
666,1.10795,1195.297
667,1.109633,1192.391
668,1.111317,1192.391
669,1.11295,1191.646
670,1.114617,1193.359
671,1.116283,1197.383
672,1.11795,1197.383
673,1.119617,1197.979
674,1.121283,1197.979
675,1.123033,1197.979
676,1.124617,1197.979
677,1.126283,1198.277
678,1.12795,1202.3
679,1.129617,1202.3
680,1.131283,1202.673
681,1.13295,1200.736
682,1.134617,1198.724
683,1.136283,1198.724
684,1.13795,1194.552
685,1.139733,1193.21
686,1.141283,1192.912
687,1.14295,1192.912
688,1.144617,1193.136
689,1.146283,1191.795
690,1.14795,1193.062
691,1.149617,1193.062
692,1.151267,1192.987
693,1.152933,1192.763
694,1.1546,1192.763
695,1.156267,1196.116
696,1.157933,1196.116
697,1.1596,1195.744
698,1.161267,1195.744
699,1.162933,1196.414
700,1.1646,1196.712
701,1.166267,1194.477
702,1.167933,1194.477
703,1.1696,1194.924
704,1.171267,1194.999
705,1.172933,1194.552
706,1.1746,1194.552
707,1.176267,1194.104
708,1.177933,1190.752
709,1.179617,1190.752
710,1.181267,1189.783
711,1.182933,1189.038
712,1.1846,1189.56
713,1.186267,1189.56
714,1.187933,1193.21
715,1.1896,1192.242
716,1.191267,1193.136
717,1.192933,1193.136
718,1.1946,1193.21
719,1.196267,1190.975
720,1.197933,1189.634
721,1.1996,1189.634
722,1.201267,1186.505
723,1.202933,1187.324
724,1.2046,1189.336
725,1.206267,1189.336
726,1.20795,1191.422
727,1.2096,1193.657
728,1.21125,1193.657
729,1.212917,1195.893
730,1.214583,1193.136
731,1.21625,1193.434
732,1.217917,1193.434
733,1.219583,1193.062
734,1.22125,1191.571
735,1.222917,1193.21
736,1.224617,1193.21
737,1.22625,1193.285
738,1.227917,1193.881
739,1.229583,1194.924
740,1.23125,1194.924
741,1.232917,1194.626
742,1.234583,1191.869
743,1.23625,1191.869
744,1.237917,1188.144
745,1.239583,1185.685
746,1.241283,1183.152
747,1.242917,1183.152
748,1.244583,1184.195
749,1.24625,1187.101
750,1.247917,1187.026
751,1.249583,1187.026
752,1.25125,1188.442
753,1.252917,1187.101
754,1.254583,1186.058
755,1.25625,1186.058
756,1.258,1184.121
757,1.259583,1181.29
758,1.26125,1180.843
759,1.262917,1180.843
760,1.264583,1179.799
761,1.26625,1179.874
762,1.267917,1179.874
763,1.269583,1181.439
764,1.271233,1184.568
765,1.2729,1184.27
766,1.274567,1184.27
767,1.276233,1184.791
768,1.2779,1184.568
769,1.279567,1182.258
770,1.281233,1182.258
771,1.2829,1182.109
772,1.284567,1183.003
773,1.286233,1184.717
774,1.2879,1184.717
775,1.289567,1187.697
776,1.291233,1188.442
777,1.2929,1188.442
778,1.294567,1187.25
779,1.296233,1188.666
780,1.2979,1187.772
781,1.299567,1187.772
782,1.301233,1188.889
783,1.3029,1191.348
784,1.304567,1188.368
785,1.306233,1188.368
786,1.3079,1189.262
787,1.309567,1190.007
788,1.311233,1189.634
789,1.3129,1189.634
790,1.314567,1193.285
791,1.316233,1192.093
792,1.3179,1189.038
793,1.319567,1189.038
794,1.321233,1185.909
795,1.322917,1182.482
796,1.324567,1182.482
797,1.326233,1180.47
798,1.3279,1181.29
799,1.329567,1185.089
800,1.331217,1185.089
801,1.332883,1187.026
802,1.33455,1189.336
803,1.336217,1189.113
804,1.337883,1189.113
805,1.33955,1187.772
806,1.341217,1187.921
807,1.342883,1184.568
808,1.34455,1184.568
809,1.346217,1183.078
810,1.347883,1183.301
811,1.34955,1183.301
812,1.351217,1183.152
813,1.352883,1185.462
814,1.35455,1188.07
815,1.356217,1188.07
816,1.357883,1186.058
817,1.359583,1182.854
818,1.361217,1184.195
819,1.362883,1184.195
820,1.36455,1183.078
821,1.366217,1183.748
822,1.367883,1181.141
823,1.36955,1181.141
824,1.371217,1177.639
825,1.372883,1177.788
826,1.37455,1176.67
827,1.376333,1176.67
828,1.377883,1179.874
829,1.37955,1180.396
830,1.381217,1180.396
831,1.382883,1182.929
832,1.38455,1184.94
833,1.386217,1186.803
834,1.387883,1186.803
835,1.38955,1186.281
836,1.3912,1183.376
837,1.392867,1181.96
838,1.394517,1181.96
839,1.396183,1181.439
840,1.39785,1183.152
841,1.39955,1182.035
842,1.401183,1182.035
843,1.40285,1181.96
844,1.404517,1182.705
845,1.406183,1182.705
846,1.40785,1183.897
847,1.409517,1185.015
848,1.411183,1186.43
849,1.41285,1186.43
850,1.414517,1183.227
851,1.416183,1181.29
852,1.41785,1181.215
853,1.419517,1181.215
854,1.421183,1180.172
855,1.42285,1182.258
856,1.424517,1184.27
857,1.426183,1184.27
858,1.42785,1186.952
859,1.429517,1189.634
860,1.431183,1189.634
861,1.43285,1188.591
862,1.434517,1183.45
863,1.436183,1180.619
864,1.43785,1180.619
865,1.439517,1179.054
866,1.441183,1179.203
867,1.44285,1182.333
868,1.444517,1182.333
869,1.446183,1182.929
870,1.44785,1184.121
871,1.449517,1184.046
872,1.451167,1184.046
873,1.452833,1183.376
874,1.4545,1181.811
875,1.456183,1178.682
876,1.457833,1178.682
877,1.4595,1177.49
878,1.461217,1180.321
879,1.462833,1180.321
880,1.4645,1181.886
881,1.466167,1181.737
882,1.467833,1184.195
883,1.4695,1184.195
884,1.471167,1182.184
885,1.472833,1180.917
886,1.4745,1183.078
887,1.476167,1183.078
888,1.477833,1182.035
889,1.4795,1179.427
890,1.481167,1177.117
891,1.482833,1177.117
892,1.4845,1177.117
893,1.486167,1177.117
894,1.487833,1177.117
895,1.4895,1178.16
896,1.491167,1180.321
897,1.492833,1178.831
898,1.4946,1178.831
899,1.496167,1178.905
900,1.497833,1179.427
901,1.4995,1180.396
902,1.501167,1180.396
903,1.502833,1182.184
904,1.5045,1183.45
905,1.506167,1184.717
906,1.507833,1184.717
907,1.5095,1184.419
908,1.51115,1182.333
909,1.512817,1181.439
910,1.514483,1181.439
911,1.51615,1180.768
912,1.517817,1180.396
913,1.519483,1180.396
