"ID","sea_time","fid_signal"
1,0,1170.859
2,0.001667,1173.765
3,0.003317,1173.765
4,0.004983,1173.988
5,0.00665,1174.137
6,0.008416999999999999,1171.976
7,0.009983000000000001,1171.976
8,0.01165,1169.145
9,0.013317,1168.996
10,0.014983,1168.996
11,0.01665,1168.847
12,0.018317,1168.027
13,0.019983,1169.294
14,0.02165,1169.294
15,0.023317,1169.443
16,0.024983,1166.388
17,0.02665,1169.741
18,0.028317,1169.741
19,0.029983,1169.369
20,0.03165,1170.039
21,0.033333,1170.039
22,0.034983,1171.976
23,0.03665,1172.051
24,0.038317,1173.392
25,0.039983,1173.392
26,0.04165,1172.796
27,0.043317,1171.827
28,0.044983,1172.274
29,0.04665,1172.274
30,0.048317,1172.2
31,0.049983,1173.839
32,0.05165,1173.019
33,0.053317,1173.019
34,0.054983,1172.423
35,0.05665,1171.082
36,0.058317,1170.933
37,0.059983,1170.933
38,0.06165,1173.392
39,0.063317,1170.337
40,0.06501700000000001,1170.337
41,0.066633,1169.965
42,0.0683,1167.655
43,0.069967,1166.314
44,0.071633,1166.314
45,0.0733,1168.326
46,0.07496700000000001,1169.369
47,0.07663300000000001,1168.773
48,0.07829999999999999,1168.773
49,0.079967,1171.231
50,0.081633,1172.498
51,0.0833,1170.635
52,0.084967,1170.635
53,0.086633,1171.678
54,0.0883,1168.922
55,0.08996700000000001,1168.922
56,0.09163300000000001,1166.984
57,0.09335,1166.09
58,0.094967,1168.177
59,0.096633,1168.177
60,0.0983,1168.326
61,0.099967,1168.624
62,0.101633,1169.294
63,0.1033,1169.294
64,0.105,1167.879
65,0.106633,1168.847
66,0.1083,1166.835
67,0.110033,1166.835
68,0.111633,1166.761
69,0.1133,1165.643
70,0.114967,1162.216
71,0.116633,1162.216
72,0.1183,1165.196
73,0.119967,1165.643
74,0.121633,1165.643
75,0.123283,1167.655
76,0.12495,1169.22
77,0.126733,1169.443
78,0.128283,1169.443
79,0.12995,1169.518
80,0.131617,1166.314
81,0.133283,1166.016
82,0.13495,1166.016
83,0.136617,1163.408
84,0.138283,1163.334
85,0.13995,1164.302
86,0.141617,1164.302
87,0.143283,1165.494
88,0.14495,1169.816
89,0.146617,1169.816
90,0.148283,1170.039
91,0.14995,1171.976
92,0.151617,1170.71
93,0.153283,1170.71
94,0.15495,1166.165
95,0.156633,1165.792
96,0.1583,1163.781
97,0.15995,1163.781
98,0.161617,1167.953
99,0.163283,1171.455
100,0.16495,1171.902
101,0.166617,1171.902
102,0.168283,1171.008
103,0.16995,1167.655
104,0.171617,1167.655
105,0.173283,1165.792
106,0.17495,1165.941
107,0.176617,1166.165
108,0.178283,1166.165
109,0.179967,1166.239
110,0.181617,1164.898
111,0.183267,1166.984
112,0.184933,1166.984
113,0.1866,1168.4
114,0.188267,1169.592
115,0.189933,1171.157
116,0.1916,1171.157
117,0.193267,1167.133
118,0.194933,1166.761
119,0.1966,1165.569
120,0.198267,1165.569
121,0.199933,1163.93
122,0.2016,1165.42
123,0.203267,1165.42
124,0.204933,1166.239
125,0.2066,1164.898
126,0.208267,1166.612
127,0.209933,1166.612
128,0.2116,1166.165
129,0.213267,1166.165
130,0.214933,1167.208
131,0.2166,1167.208
132,0.218267,1165.718
133,0.219933,1166.984
134,0.2216,1169.369
135,0.223267,1169.369
136,0.224933,1172.349
137,0.2266,1172.051
138,0.228333,1174.807
139,0.229933,1174.807
140,0.2316,1173.243
141,0.233267,1172.721
142,0.234933,1172.721
143,0.2366,1173.988
144,0.23825,1171.38
145,0.239917,1173.243
146,0.241567,1173.243
147,0.24325,1173.392
148,0.245067,1172.498
149,0.246567,1171.976
150,0.248233,1171.976
151,0.2499,1167.655
152,0.251567,1164.377
153,0.253233,1164.153
154,0.254917,1164.153
155,0.256567,1164.824
156,0.258233,1166.09
157,0.2599,1166.09
158,0.261567,1166.09
159,0.263233,1165.792
160,0.2649,1164.228
161,0.266567,1164.228
162,0.268233,1163.036
163,0.2699,1162.365
164,0.271567,1162.216
165,0.273233,1162.216
166,0.2749,1163.408
167,0.276567,1166.537
168,0.278233,1171.082
169,0.2799,1171.082
170,0.281567,1171.604
171,0.283233,1170.71
172,0.2849,1170.71
173,0.286567,1170.114
174,0.288233,1171.008
175,0.2899,1170.784
176,0.291567,1170.784
177,0.293233,1170.635
178,0.2949,1168.475
179,0.296567,1163.855
180,0.298233,1163.855
181,0.2999,1166.835
182,0.301567,1167.58
183,0.303217,1165.792
184,0.304883,1165.792
185,0.30655,1168.102
186,0.308217,1168.4
187,0.309883,1169.741
188,0.31155,1169.741
189,0.313217,1171.604
190,0.314883,1169.816
191,0.31655,1169.816
192,0.318217,1168.847
193,0.319883,1168.177
194,0.32155,1169.22
195,0.323217,1169.22
196,0.324883,1171.902
197,0.32655,1176.223
198,0.328217,1176.67
199,0.329883,1176.67
200,0.33155,1181.439
201,0.333233,1185.387
202,0.334883,1186.132
203,0.33655,1186.132
204,0.338217,1194.403
205,0.339883,1201.555
206,0.34155,1201.555
207,0.343217,1211.017
208,0.344883,1224.801
209,0.34655,1237.989
210,0.348217,1237.989
211,0.349883,1251.25
212,0.35155,1273.23
213,0.353217,1297.966
214,0.354883,1297.966
215,0.35655,1325.309
216,0.358217,1358.688
217,0.359883,1392.29
218,0.36155,1392.29
219,0.363233,1430.809
220,0.364867,1475.066
221,0.366533,1475.066
222,0.3682,1527.667
223,0.369867,1584.515
224,0.371533,1649.484
225,0.3732,1649.484
226,0.374867,1723.543
227,0.376533,1802.146
228,0.3782,1891.181
229,0.379867,1891.181
230,0.381533,1986.995
231,0.3832,2089.143
232,0.384867,2199.262
233,0.386567,2199.262
234,0.38825,2313.927
235,0.389867,2437.085
236,0.391533,2569.929
237,0.3932,2569.929
238,0.394867,2711.639
239,0.396533,2862.066
240,0.3982,2862.066
241,0.399867,3021.956
242,0.401533,3194.437
243,0.4032,3379.211
244,0.404867,3379.211
245,0.406533,3577.471
246,0.4082,3795.624
247,0.409867,4033.819
248,0.411533,4033.819
249,0.4132,4298.538
250,0.414867,4598.722
251,0.416533,4935.339
252,0.4182,4935.339
253,0.419867,5320.683
254,0.421517,5766.228
255,0.423183,5766.228
256,0.42485,6284.192
257,0.426517,6890.818
258,0.428183,7605.105
259,0.42985,7605.105
260,0.431517,8442.924000000001
261,0.433183,9426.177
262,0.43485,10569.17
263,0.436517,10569.17
264,0.438183,11891.946
265,0.43985,13408.885
266,0.441517,15131.683
267,0.443183,15131.683
268,0.44485,17072.186
269,0.446517,19229.873
270,0.448233,21608.621
271,0.44985,21608.621
272,0.451517,24198.74
273,0.453183,26980.564
274,0.45485,26980.564
275,0.456517,29927.939
276,0.458217,32992.066
277,0.45985,36126.375
278,0.461517,36126.375
279,0.463183,39275.289
280,0.46485,42375.848
281,0.466517,45368
282,0.468183,45368
283,0.46985,48190.207
284,0.471517,50786.734
285,0.473183,53109.23
286,0.47485,53109.23
287,0.476517,55121.258
288,0.478183,56790.711
289,0.47985,56790.711
290,0.481617,58101.938
291,0.483167,59038.25
292,0.484833,59605.316
293,0.4865,59605.316
294,0.488167,59806.777
295,0.489833,59657.172
296,0.4915,59186.965
297,0.493167,59186.965
298,0.494833,58416.723
299,0.4965,57381.613
300,0.498167,56112.93
301,0.499833,56112.93
302,0.5014999999999999,54644.57
303,0.503167,53013.266
304,0.504833,51251.277
305,0.5065,51251.277
306,0.5081830000000001,49389.602
307,0.509833,47457.813
308,0.5115,47457.813
309,0.513167,45482.813
310,0.514833,43487.699
311,0.5165,41497.648
312,0.518167,41497.648
313,0.519833,39529.352
314,0.5215,37595.703
315,0.523167,35710.93
316,0.524833,35710.93
317,0.5265,33882.707
318,0.52815,32120.496
319,0.529817,30434.504
320,0.531483,30434.504
321,0.53315,28825.551
322,0.534817,27298.406
323,0.536483,27298.406
324,0.53815,25850.906
325,0.539817,24476.945
326,0.541483,23183.078
327,0.543133,23183.078
328,0.5448,21961.48
329,0.546467,20813.123
330,0.548133,19737.705
331,0.5498,19737.705
332,0.551467,18721.893
333,0.553133,17770.305
334,0.5548,16871.691
335,0.556467,16871.691
336,0.558133,16030.223
337,0.5598,15247.613
338,0.561467,15247.613
339,0.563133,14509.111
340,0.5648,13817.772
341,0.566517,13166.74
342,0.568133,13166.74
343,0.5698,12551.993
344,0.5714669999999999,11981.875
345,0.573133,11449.456
346,0.5748,11449.456
347,0.576467,10947.734
348,0.578133,10475.889
349,0.5798,10028.407
350,0.581467,10028.407
351,0.583133,9608.492
352,0.5848,9214.951999999999
353,0.586467,8843.169
354,0.588133,8843.169
355,0.5898,8493.513000000001
356,0.591467,8164.942
357,0.593133,8164.942
358,0.5948,7855.296
359,0.596467,7565.841
360,0.598133,7289.499
361,0.5999,7289.499
362,0.601467,7025.152
363,0.603117,6771.684
364,0.604783,6535.426
365,0.60645,6535.426
366,0.608117,6313.846
367,0.609783,6103.143
368,0.61145,5907.193
369,0.613117,5907.193
370,0.614783,5714.744
371,0.6164500000000001,5532.13
372,0.618117,5532.13
373,0.619783,5362.257
374,0.6214499999999999,5194.47
375,0.623117,5037.934
376,0.624783,5037.934
377,0.62645,4888.475
378,0.628117,4745.945
379,0.629783,4613.623
380,0.631467,4613.623
381,0.633117,4487.112
382,0.634783,4369.467
383,0.63645,4251.823
384,0.638117,4251.823
385,0.639783,4137.829
386,0.64145,4031.733
387,0.643117,3924.668
388,0.644783,3924.668
389,0.64645,3825.203
390,0.6481170000000001,3730.804
391,0.649783,3730.804
392,0.65145,3637.597
393,0.6531169999999999,3551.617
394,0.654783,3469.065
395,0.65645,3469.065
396,0.658117,3390.536
397,0.659767,3314.465
398,0.661433,3240.705
399,0.6631,3240.705
400,0.664767,3167.689
401,0.6664330000000001,3096.759
402,0.6681,3031.269
403,0.669783,3031.269
404,0.6714329999999999,2965.555
405,0.6731,2904.46
406,0.674767,2904.46
407,0.676433,2846.494
408,0.6781,2788.156
409,0.679767,2736.598
410,0.681433,2736.598
411,0.6831,2687.052
412,0.684817,2637.059
413,0.686433,2587.959
414,0.6881,2587.959
415,0.689767,2537.742
416,0.691433,2491.474
417,0.6931,2447.963
418,0.694767,2447.963
419,0.696433,2405.569
420,0.6981000000000001,2367.05
421,0.699767,2327.263
422,0.7015,2327.263
423,0.7030999999999999,2287.85
424,0.704767,2251.714
425,0.706433,2251.714
426,0.7081,2215.952
427,0.709767,2180.412
428,0.711433,2149.716
429,0.7131,2149.716
430,0.714767,2117.231
431,0.71645,2086.014
432,0.7181999999999999,2057.031
433,0.719767,2057.031
434,0.721417,2030.283
435,0.723083,2005.473
436,0.72475,1979.098
437,0.726417,1979.098
438,0.728083,1955.33
439,0.72975,1929.328
440,0.731417,1929.328
441,0.733083,1905.337
442,0.73475,1881.868
443,0.736433,1858.398
444,0.738083,1858.398
445,0.73975,1836.196
446,0.741417,1812.875
447,0.743083,1794.696
448,0.744767,1794.696
449,0.746417,1773.015
450,0.7480830000000001,1754.239
451,0.74975,1739.487
452,0.751417,1739.487
453,0.7530829999999999,1719.296
454,0.75475,1705.438
455,0.756417,1692.101
456,0.758083,1692.101
457,0.75975,1675.189
458,0.761417,1663.268
459,0.763083,1663.268
460,0.76475,1648.292
461,0.766417,1630.858
462,0.768083,1616.18
463,0.76975,1616.18
464,0.771417,1602.545
465,0.773083,1588.315
466,0.77475,1578.555
467,0.776417,1578.555
468,0.778083,1567.304
469,0.7797500000000001,1552.403
470,0.781417,1541.227
471,0.783067,1541.227
472,0.784733,1527.816
473,0.7864,1516.491
474,0.788067,1516.491
475,0.789733,1506.88
476,0.7914,1498.461
477,0.793067,1487.657
478,0.794733,1487.657
479,0.796417,1480.877
480,0.798067,1473.427
481,0.799733,1465.604
482,0.8014,1465.604
483,0.803083,1460.835
484,0.804733,1451.373
485,0.8064,1442.805
486,0.808067,1442.805
487,0.809733,1434.535
488,0.8114,1426.19
489,0.813067,1426.19
490,0.814733,1417.697
491,0.8164,1410.097
492,0.818067,1402.05
493,0.8198,1402.05
494,0.821383,1392.365
495,0.8230499999999999,1384.541
496,0.824717,1381.934
497,0.826383,1381.934
498,0.82805,1375.452
499,0.829717,1371.875
500,0.831383,1368.97
501,0.83305,1368.97
502,0.834717,1363.084
503,0.836483,1358.762
504,0.83805,1355.261
505,0.839717,1355.261
506,0.841383,1352.727
507,0.843033,1346.841
508,0.8447,1346.841
509,0.846367,1343.34
510,0.848033,1339.689
511,0.8497,1332.313
512,0.851367,1332.313
513,0.853033,1325.309
514,0.8547,1321.435
515,0.856367,1315.177
516,0.858033,1315.177
517,0.8597,1312.494
518,0.861367,1310.781
519,0.8630330000000001,1305.565
520,0.8647,1305.565
521,0.866367,1303.479
522,0.8680330000000001,1300.871
523,0.8697,1300.871
524,0.871367,1298.785
525,0.8730329999999999,1297.593
526,0.8747,1297.072
527,0.876367,1297.072
528,0.878033,1291.558
529,0.8797,1288.354
530,0.881367,1284.406
531,0.883033,1284.406
532,0.88475,1278.222
533,0.886367,1277.998
534,0.888033,1275.167
535,0.8897,1275.167
536,0.891367,1271.889
537,0.893033,1269.281
538,0.8947000000000001,1263.544
539,0.896367,1263.544
540,0.898033,1260.266
541,0.8997000000000001,1258.478
542,0.90135,1258.478
543,0.903017,1255.572
544,0.904683,1255.572
545,0.90635,1255.05
546,0.908017,1255.05
547,0.909683,1251.4
548,0.911367,1248.941
549,0.913017,1244.917
550,0.914683,1244.917
551,0.91635,1243.427
552,0.918017,1245.365
553,0.919683,1244.321
554,0.92135,1244.321
555,0.923017,1244.098
556,0.924683,1240.745
557,0.92635,1240.745
558,0.928017,1239.181
559,0.929683,1242.235
560,0.93135,1246.855
561,0.933017,1246.855
562,0.934683,1248.047
563,0.93635,1245.216
564,0.9381,1241.341
565,0.939683,1241.341
566,0.94135,1235.604
567,0.943017,1234.189
568,0.9446830000000001,1232.177
569,0.94635,1232.177
570,0.948017,1232.028
571,0.9496830000000001,1231.953
572,0.95135,1228.973
573,0.953017,1228.973
574,0.954717,1227.93
575,0.95635,1226.813
576,0.958017,1226.813
577,0.959683,1224.056
578,0.961333,1220.405
579,0.963,1221.374
580,0.9646670000000001,1221.374
581,0.966333,1219.362
582,0.968,1217.574
583,0.9696669999999999,1220.405
584,0.97145,1220.405
585,0.973,1218.915
586,0.974667,1217.872
587,0.976333,1219.213
588,0.978,1219.213
589,0.979667,1219.064
590,0.981333,1218.766
591,0.983,1218.766
592,0.984667,1218.542
593,0.986333,1218.617
594,0.988,1218.095
595,0.989667,1218.095
596,0.991333,1214.296
597,0.993,1213.998
598,0.994667,1212.433
599,0.996333,1212.433
600,0.998,1211.092
601,0.999667,1213.998
602,1.001333,1211.762
603,1.003,1211.762
604,1.004667,1207.739
605,1.006333,1206.026
606,1.008,1206.026
607,1.009667,1203.418
608,1.011333,1204.163
609,1.013,1206.994
610,1.014667,1206.994
611,1.016333,1209.006
612,1.018,1208.633
613,1.019667,1205.951
614,1.021317,1205.951
615,1.022983,1204.61
616,1.02465,1201.183
617,1.026317,1200.81
618,1.028,1200.81
619,1.02965,1200.661
620,1.031317,1199.32
621,1.033,1199.767
622,1.03465,1199.767
623,1.036317,1198.873
624,1.037983,1202.449
625,1.03965,1202.449
626,1.041317,1202.896
627,1.042983,1201.779
628,1.04465,1203.045
629,1.046317,1203.045
630,1.047983,1200.438
631,1.04965,1200.289
632,1.051317,1201.183
633,1.052983,1201.183
634,1.05465,1199.394
635,1.056333,1196.414
636,1.057983,1195.967
637,1.05965,1195.967
638,1.061317,1193.136
639,1.062983,1193.434
640,1.06465,1193.434
641,1.066317,1194.999
642,1.067983,1194.626
643,1.06965,1195.446
644,1.071317,1195.446
645,1.073,1197.904
646,1.07465,1199.096
647,1.076317,1198.202
648,1.077983,1198.202
649,1.07965,1199.767
650,1.0813,1197.755
651,1.082967,1197.085
652,1.084633,1197.085
653,1.0863,1197.383
654,1.087967,1196.861
655,1.08975,1195.446
656,1.0913,1195.446
657,1.092967,1195.148
658,1.094633,1195.148
659,1.0963,1195.148
660,1.097967,1194.701
661,1.099633,1195.446
662,1.1013,1193.136
663,1.103,1193.136
664,1.104633,1191.124
665,1.1063,1191.124
666,1.107967,1193.509
667,1.109633,1193.509
668,1.111283,1195.744
669,1.11295,1198.128
670,1.114617,1199.916
671,1.116283,1199.916
672,1.11795,1196.712
673,1.119617,1194.477
674,1.121283,1194.477
675,1.12295,1193.21
676,1.124617,1188.74
677,1.126283,1188.815
678,1.12795,1188.815
679,1.129617,1189.113
680,1.131283,1188.666
681,1.13295,1190.305
682,1.134617,1190.305
683,1.136283,1188.517
684,1.13795,1189.485
685,1.139617,1191.571
686,1.141267,1191.571
687,1.142933,1192.465
688,1.1446,1193.881
689,1.146267,1193.881
690,1.147933,1192.242
691,1.1496,1190.975
692,1.151267,1188.889
693,1.152933,1188.889
694,1.1546,1187.026
695,1.156267,1186.207
696,1.15795,1183.748
697,1.1596,1183.748
698,1.161267,1184.27
699,1.162933,1185.909
700,1.1646,1189.038
701,1.166283,1189.038
702,1.167933,1192.391
703,1.1696,1193.21
704,1.171267,1194.552
705,1.172933,1194.552
706,1.174667,1195.744
707,1.176267,1192.391
708,1.177933,1192.391
709,1.1796,1193.881
710,1.181267,1192.838
711,1.182933,1190.081
712,1.1846,1190.081
713,1.186267,1189.262
714,1.187933,1185.238
715,1.1896,1182.482
716,1.191267,1182.482
717,1.192933,1182.556
718,1.1946,1183.45
719,1.196267,1183.972
720,1.197933,1183.972
721,1.1996,1186.579
722,1.20125,1188.368
723,1.202917,1188.368
724,1.204583,1190.752
725,1.20625,1192.018
726,1.208033,1188.815
727,1.209583,1188.815
728,1.21125,1183.748
729,1.212917,1180.47
730,1.214583,1178.98
731,1.21625,1178.98
732,1.217917,1179.129
733,1.219583,1179.129
734,1.22125,1178.98
735,1.222917,1178.98
736,1.224583,1181.439
737,1.22625,1183.078
738,1.227917,1184.791
739,1.229583,1184.791
740,1.23125,1186.803
741,1.232917,1185.462
742,1.234583,1185.462
743,1.23625,1187.548
744,1.237917,1187.176
745,1.239583,1184.791
746,1.24125,1184.791
747,1.242917,1186.356
748,1.244583,1183.897
749,1.24625,1183.599
750,1.247917,1183.599
751,1.249583,1183.748
752,1.25125,1180.917
753,1.252917,1179.799
754,1.254583,1179.799
755,1.25625,1183.45
756,1.257917,1187.25
757,1.259567,1187.25
758,1.261233,1188.889
759,1.2629,1191.348
760,1.264567,1191.05
761,1.266233,1191.05
762,1.2679,1188.666
763,1.269567,1185.983
764,1.271233,1183.748
765,1.2729,1183.748
766,1.274567,1179.874
767,1.276233,1178.235
768,1.2779,1177.192
769,1.279567,1177.192
770,1.281233,1178.16
771,1.2829,1179.501
772,1.284567,1178.905
773,1.286233,1178.905
774,1.2879,1181.066
775,1.289567,1177.713
776,1.291233,1177.713
777,1.292967,1176.596
778,1.294567,1177.788
779,1.296233,1177.043
780,1.2979,1177.043
781,1.299567,1178.98
782,1.301233,1178.309
783,1.3029,1176.819
784,1.304567,1176.819
785,1.306233,1176.223
786,1.3079,1176.745
787,1.309567,1179.278
788,1.311233,1179.278
789,1.3129,1178.011
790,1.314567,1176.745
791,1.316233,1176.745
792,1.3179,1177.043
793,1.319567,1176.074
794,1.321233,1178.905
795,1.322883,1178.905
796,1.32455,1177.788
797,1.326333,1176.894
798,1.327883,1175.18
799,1.32955,1175.18
800,1.331217,1173.988
801,1.332883,1177.788
802,1.33455,1179.501
803,1.336217,1179.501
804,1.337883,1178.458
805,1.33955,1179.948
806,1.341217,1177.117
807,1.342883,1177.117
808,1.34455,1176.074
809,1.346217,1176.894
810,1.347883,1176.894
811,1.34955,1178.16
812,1.351217,1181.886
813,1.352883,1183.525
814,1.35455,1183.525
815,1.356217,1185.387
816,1.357883,1184.27
817,1.35955,1183.152
818,1.361217,1183.152
819,1.362883,1182.631
820,1.36455,1181.588
821,1.366217,1181.513
822,1.3679,1181.513
823,1.36955,1181.364
824,1.371217,1179.65
825,1.3729,1179.65
826,1.37455,1178.905
827,1.376217,1176.223
828,1.377883,1177.564
829,1.37955,1177.564
830,1.381233,1176.521
831,1.382867,1177.788
832,1.384533,1180.396
833,1.3862,1180.396
834,1.387867,1180.097
835,1.389533,1180.396
836,1.3912,1176.894
837,1.392867,1176.894
838,1.394533,1175.18
839,1.3962,1176.298
840,1.397867,1176.298
841,1.399533,1176.968
842,1.4012,1179.203
843,1.40285,1180.023
844,1.404517,1180.023
845,1.406183,1178.682
846,1.40785,1179.203
847,1.409517,1182.035
848,1.41125,1182.035
849,1.41285,1185.164
850,1.414517,1186.356
851,1.416183,1186.579
852,1.41785,1186.579
853,1.419517,1184.27
854,1.421183,1183.152
855,1.42285,1180.917
856,1.424517,1180.917
857,1.426183,1180.917
858,1.42785,1181.141
859,1.429517,1181.141
860,1.431183,1178.086
861,1.43285,1178.682
862,1.434517,1179.799
863,1.436183,1179.799
864,1.43785,1178.011
865,1.4395,1179.427
866,1.441167,1178.384
867,1.442833,1178.384
868,1.444617,1174.51
869,1.446167,1175.106
870,1.447833,1177.117
871,1.4495,1177.117
872,1.451167,1180.619
873,1.452833,1183.227
874,1.454517,1183.227
875,1.456233,1180.992
876,1.457833,1176.819
877,1.4595,1170.263
878,1.461167,1170.263
879,1.462833,1167.506
880,1.4645,1171.38
881,1.466167,1171.306
882,1.467833,1171.306
883,1.4695,1174.51
884,1.471167,1177.043
885,1.472833,1175.478
886,1.4745,1175.478
887,1.476167,1177.117
888,1.477833,1177.49
889,1.4795,1177.341
890,1.481167,1177.341
891,1.482833,1178.905
892,1.4845,1179.427
893,1.486167,1179.427
894,1.487833,1178.682
895,1.4895,1178.682
896,1.491167,1178.458
897,1.492833,1178.458
898,1.4945,1178.831
899,1.496167,1178.458
900,1.497833,1177.788
901,1.4995,1177.788
902,1.501167,1175.627
903,1.502817,1173.615
904,1.504483,1173.839
905,1.50615,1173.839
906,1.507817,1174.286
907,1.509483,1173.765
908,1.51115,1173.765
909,1.512817,1174.137
910,1.514483,1176.298
911,1.51615,1176.894
912,1.517817,1176.894
913,1.519483,1175.925
914,1.52115,1174.584
915,1.522817,1170.188
916,1.524483,1170.188
917,1.52615,1169.965
918,1.527817,1172.796
