"ID","sea_time","fid_signal"
1,0,142.44
2,0.001667,142.202
3,0.003317,142.619
4,0.004983,142.619
5,0.00665,142.843
6,0.008317,142.835
7,0.009983000000000001,142.485
8,0.01165,142.485
9,0.013317,141.859
10,0.014983,141.263
11,0.01665,141.33
12,0.018433,141.33
13,0.019983,141.837
14,0.02165,142.112
15,0.023317,142.112
16,0.024983,142.239
17,0.02665,142.276
18,0.028333,142.217
19,0.029983,142.217
20,0.03165,142.463
21,0.033317,142.701
22,0.035083,142.626
23,0.03665,142.626
24,0.038317,142.522
25,0.039983,142.358
26,0.04165,142.09
27,0.043317,142.09
28,0.044983,142.224
29,0.04665,142.038
30,0.048317,142.038
31,0.049983,142.038
32,0.051767,142.194
33,0.053317,142.127
34,0.054983,142.127
35,0.05665,142.507
36,0.058317,142.448
37,0.059967,142.299
38,0.061633,142.299
39,0.063333,142.388
40,0.064967,142.284
41,0.066633,142.455
42,0.0683,142.455
43,0.069967,142.425
44,0.071633,142.135
45,0.0733,142.15
46,0.07496700000000001,142.15
47,0.07663300000000001,141.881
48,0.07829999999999999,141.881
49,0.079967,141.881
50,0.081633,141.792
51,0.0833,141.554
52,0.084967,141.427
53,0.086633,141.427
54,0.088283,141.71
55,0.08995,142.038
56,0.091617,142.269
57,0.093283,142.269
58,0.09495000000000001,142.612
59,0.09661699999999999,142.641
60,0.098283,142.425
61,0.09995,142.425
62,0.101617,142.559
63,0.103283,142.463
64,0.10495,142.463
65,0.106617,142.336
66,0.108283,142.463
67,0.10995,142.321
68,0.111617,142.321
69,0.113283,142.448
70,0.11495,142.656
71,0.116617,142.41
72,0.118283,142.41
73,0.119983,142.395
74,0.1216,142.589
75,0.123267,142.425
76,0.12495,142.425
77,0.1266,142.694
78,0.128267,142.552
79,0.129933,142.343
80,0.1316,142.343
81,0.133283,142.47
82,0.134933,142.448
83,0.136717,142.515
84,0.138267,142.515
85,0.139933,142.418
86,0.1416,142.209
87,0.143267,142.209
88,0.144933,142.388
89,0.1466,142.559
90,0.148267,142.753
91,0.149933,142.753
92,0.1516,142.887
93,0.153317,142.969
94,0.154933,142.88
95,0.1566,142.88
96,0.158267,142.738
97,0.159933,142.694
98,0.1616,142.694
99,0.163267,142.559
100,0.164933,142.433
101,0.1666,142.537
102,0.168267,142.537
103,0.17005,142.649
104,0.1716,142.492
105,0.173267,142.448
106,0.174933,142.448
107,0.1766,142.306
108,0.178267,142.023
109,0.179917,141.971
110,0.181583,141.971
111,0.18325,141.896
112,0.184917,141.941
113,0.186583,142.008
114,0.18825,142.008
115,0.189917,141.971
116,0.191583,142.306
117,0.19325,142.306
118,0.194917,142.366
119,0.196583,142.574
120,0.19825,142.708
121,0.19995,142.708
122,0.201583,142.373
123,0.203267,142.246
124,0.204917,142.165
125,0.206583,142.165
126,0.20825,142.373
127,0.209917,142.656
128,0.211583,142.619
129,0.21325,142.619
130,0.214917,142.731
131,0.216583,142.425
132,0.218283,142.425
133,0.219917,142.448
134,0.221583,142.492
135,0.22325,142.574
136,0.224917,142.574
137,0.226583,142.664
138,0.22825,142.641
139,0.229917,142.559
140,0.231583,142.559
141,0.23325,142.142
142,0.234917,141.978
143,0.236583,142.016
144,0.23825,142.016
145,0.2399,141.986
146,0.241567,142.209
147,0.243233,142.209
148,0.2449,142.284
149,0.246567,142.112
150,0.248233,142.41
151,0.2499,142.41
152,0.251567,142.418
153,0.253233,142.53
154,0.254983,142.477
155,0.256567,142.477
156,0.258233,142.06
157,0.2599,141.874
158,0.261567,141.725
159,0.263233,141.725
160,0.2649,141.837
161,0.266567,142.008
162,0.26825,141.963
163,0.2699,141.963
164,0.2716,142.224
165,0.273233,142.09
166,0.2749,142.09
167,0.276567,142.008
168,0.278233,142.157
169,0.2799,142.068
170,0.281567,142.068
171,0.283233,142.284
172,0.2849,142.269
173,0.286567,142.403
174,0.28835,142.403
175,0.2899,142.269
176,0.291567,142.135
177,0.293233,142.381
178,0.2949,142.381
179,0.296567,142.485
180,0.298233,142.716
181,0.2999,142.716
182,0.30155,142.634
183,0.303217,142.641
184,0.304883,142.5
185,0.306583,142.5
186,0.308217,142.343
187,0.309883,142.343
188,0.31155,142.15
189,0.313217,142.15
190,0.314883,142.232
191,0.31655,142.381
192,0.318217,142.507
193,0.319883,142.507
194,0.32155,142.813
195,0.323217,142.954
196,0.324883,142.843
197,0.32655,142.843
198,0.328217,142.91
199,0.329883,142.679
200,0.33155,142.679
201,0.333217,142.127
202,0.334883,141.941
203,0.33655,141.531
204,0.338217,141.531
205,0.339883,141.442
206,0.34155,141.472
207,0.343217,141.375
208,0.344883,141.375
209,0.34655,141.904
210,0.348217,142.023
211,0.349883,142.537
212,0.35155,142.537
213,0.353217,142.932
214,0.354883,142.82
215,0.35655,142.82
216,0.358217,142.917
217,0.359883,142.589
218,0.361533,142.194
219,0.363217,142.194
220,0.364867,141.852
221,0.366533,141.77
222,0.3682,141.867
223,0.369867,141.867
224,0.371533,142.291
225,0.373217,142.716
226,0.374867,142.783
227,0.376533,142.783
228,0.3782,142.954
229,0.37985,143.163
230,0.381517,143.528
231,0.383183,143.528
232,0.384867,143.93
233,0.386517,144.206
234,0.388183,144.206
235,0.389867,144.511
236,0.391517,145.003
237,0.393183,145.547
238,0.39485,145.547
239,0.396517,145.972
240,0.398183,146.426
241,0.39985,146.814
242,0.401517,146.814
243,0.403183,147.402
244,0.40485,148.058
245,0.406617,148.736
246,0.408183,148.736
247,0.40985,149.518
248,0.411517,150.368
249,0.413183,150.368
250,0.41485,151.329
251,0.416533,152.148
252,0.418183,153.08
253,0.41985,153.08
254,0.4215,154.138
255,0.423167,155.166
256,0.424833,156.336
257,0.4265,156.336
258,0.428167,157.14
259,0.429833,157.751
260,0.4315,158.645
261,0.433167,158.645
262,0.434833,159.279
263,0.4365,159.852
264,0.438167,159.852
265,0.439833,160.679
266,0.4415,161.067
267,0.443167,161.588
268,0.444833,161.588
269,0.4465,162.05
270,0.448167,162.289
271,0.449833,162.795
272,0.4515,162.795
273,0.453167,163.026
274,0.454833,162.989
275,0.4565,163.198
276,0.458167,163.198
277,0.459833,163.078
278,0.4615,163.011
279,0.463167,163.257
280,0.464833,163.257
281,0.4665,162.713
282,0.468167,162.415
283,0.469833,162.415
284,0.4715,161.968
285,0.473167,161.685
286,0.474833,161.365
287,0.4765,161.365
288,0.478167,160.955
289,0.479833,160.463
290,0.481483,159.845
291,0.48315,159.845
292,0.484817,159.375
293,0.486517,158.608
294,0.48815,158.325
295,0.489817,158.325
296,0.491567,157.893
297,0.49315,157.498
298,0.494817,157.498
299,0.496483,157.408
300,0.49815,156.827
301,0.499817,156.589
302,0.501483,156.589
303,0.50315,156.172
304,0.504817,155.903
305,0.506483,156.149
306,0.50815,156.149
307,0.509817,156
308,0.511483,156.291
309,0.51315,156.589
310,0.514817,156.589
311,0.516483,156.783
312,0.51815,157.513
313,0.519817,158.302
314,0.521483,158.302
315,0.52315,159.562
316,0.524933,161.178
317,0.526483,161.178
318,0.52815,162.87
319,0.529817,165.477
320,0.531483,168.227
321,0.53315,168.227
322,0.534817,171.587
323,0.536483,175.551
324,0.53815,180.267
325,0.539817,180.267
326,0.541467,185.847
327,0.543133,192.441
328,0.5448,200.547
329,0.546467,200.547
330,0.548133,209.682
331,0.5498,220.232
332,0.551467,220.232
333,0.553133,232.399
334,0.5548,246.406
335,0.556467,262.275
336,0.55815,262.275
337,0.5598,280.224
338,0.5615,300.243
339,0.563133,322.282
340,0.5648,322.282
341,0.5664670000000001,346.78
342,0.568133,374.034
343,0.5698,404.343
344,0.5714669999999999,404.343
345,0.573133,437.826
346,0.5748,474.595
347,0.576467,514.7380000000001
348,0.578133,514.7380000000001
349,0.5798,558.361
350,0.581467,605.814
351,0.583133,605.814
352,0.5848,657.3869999999999
353,0.586467,713.155
354,0.588133,772.908
355,0.5898,772.908
356,0.591467,836.894
357,0.593133,905.29
358,0.5948,977.829
359,0.596467,977.829
360,0.598133,1055.643
361,0.5998,1137.994
362,0.60145,1225.069
363,0.603117,1225.069
364,0.604783,1316.935
365,0.606467,1413.047
366,0.608117,1413.047
367,0.60985,1513.936
368,0.61145,1619.376
369,0.613117,1729.235
370,0.614783,1729.235
371,0.6164500000000001,1843.87
372,0.618117,1962.639
373,0.619783,2085.395
374,0.6214499999999999,2085.395
375,0.623117,2212.442
376,0.624783,2342.843
377,0.62645,2476.774
378,0.628117,2476.774
379,0.629783,2613.88
380,0.63145,2753.653
381,0.633117,2896.1
382,0.634783,2896.1
383,0.63645,3040.91
384,0.638117,3187.627
385,0.639783,3187.627
386,0.64145,3336.243
387,0.6431829999999999,3486.239
388,0.644783,3637.433
389,0.64645,3637.433
390,0.6481170000000001,3789.052
391,0.649783,3941.141
392,0.65145,4092.865
393,0.6531169999999999,4092.865
394,0.654783,4244.313
395,0.65645,4395.276
396,0.658117,4545.152
397,0.659767,4545.152
398,0.661433,4693.911
399,0.6631,4840.702
400,0.664767,4840.702
401,0.6664330000000001,4985.757
402,0.6681,5128.466
403,0.669767,5268.507
404,0.671417,5268.507
405,0.673083,5405.553
406,0.67475,5539.499
407,0.676417,5669.862
408,0.678083,5669.862
409,0.67975,5796.671
410,0.6814170000000001,5919.911
411,0.683083,6039.456
412,0.68475,6039.456
413,0.6864170000000001,6155.372
414,0.688083,6267.146
415,0.68975,6267.146
416,0.6914169999999999,6374.337
417,0.693083,6476.611
418,0.69475,6573.833
419,0.696417,6573.833
420,0.698083,6666.563
421,0.69975,6755.24
422,0.701417,6839.097
423,0.703083,6839.097
424,0.70475,6918.549
425,0.706417,6993.137
426,0.708083,7062.524
427,0.70975,7062.524
428,0.711433,7127.561
429,0.713083,7187.702
430,0.71475,7243.142
431,0.716417,7243.142
432,0.718083,7294.104
433,0.71975,7340.826
434,0.7214,7340.826
435,0.723067,7383.123
436,0.724733,7421.188
437,0.7264,7454.932
438,0.728133,7454.932
439,0.729733,7484.011
440,0.7314000000000001,7509.179
441,0.733067,7530.398
442,0.734733,7530.398
443,0.7364000000000001,7547.811
444,0.738067,7561.505
445,0.739733,7571.451
446,0.7413999999999999,7571.451
447,0.743067,7577.836
448,0.7448,7580.876
449,0.7464,7580.876
450,0.748067,7580.548
451,0.749733,7577.173
452,0.7514,7570.617
453,0.753067,7570.617
454,0.754733,7561.274
455,0.7564,7549.077
456,0.758067,7534.094
457,0.759733,7534.094
458,0.7615,7517.137
459,0.7630670000000001,7497.125
460,0.764733,7475.019
461,0.7664,7475.019
462,0.7680670000000001,7450.827
463,0.769733,7424.392
464,0.7714,7396.437
465,0.7730669999999999,7396.437
466,0.774733,7366.613
467,0.7764,7334.918
468,0.778067,7334.918
469,0.779733,7301.278
470,0.7814,7265.68
471,0.78305,7228.308
472,0.784717,7228.308
473,0.7863830000000001,7189.564
474,0.78805,7149.607
475,0.789717,7108.666
476,0.7913829999999999,7108.666
477,0.79305,7066.66
478,0.794717,7023.953
479,0.796383,6979.764
480,0.79805,6979.764
481,0.799717,6934.516
482,0.801383,6888.486
483,0.80305,6888.486
484,0.804717,6841.473
485,0.806383,6794.006
486,0.80805,6746.292
487,0.809717,6746.292
488,0.811383,6698.012
489,0.8130500000000001,6648.727
490,0.814717,6598.748
491,0.816383,6598.748
492,0.8180500000000001,6548.233
493,0.819717,6497.338
494,0.821383,6446.607
495,0.8230499999999999,6446.607
496,0.824717,6395.75
497,0.826383,6344.125
498,0.82805,6292.09
499,0.829717,6292.09
500,0.831383,6239.66
501,0.83305,6187
502,0.834717,6187
503,0.836383,6134.771
504,0.83805,6082.55
505,0.839717,6030.493
506,0.841367,6030.493
507,0.843033,5978.383
508,0.8447,5926.296
509,0.8464,5874.142
510,0.848033,5874.142
511,0.8497,5821.772
512,0.851367,5769.812
513,0.853033,5717.792
514,0.8547,5717.792
515,0.856367,5666.077
516,0.858033,5614.564
517,0.8597,5614.564
518,0.861367,5562.954
519,0.863133,5511.343
520,0.8647,5459.935
521,0.866367,5459.935
522,0.8680330000000001,5408.488
523,0.8697,5357.504
524,0.871367,5306.915
525,0.8730329999999999,5306.915
526,0.8747,5256.377
527,0.876367,5206.287
528,0.878033,5156.413
529,0.879767,5156.413
530,0.881367,5106.836
531,0.883033,5057.804
532,0.8847,5057.804
533,0.886367,5008.936
534,0.888033,4960.224
535,0.8897,4911.862
536,0.891367,4911.862
537,0.893033,4863.389
538,0.8947000000000001,4815.69
539,0.896483,4768.014
540,0.898033,4768.014
541,0.8997000000000001,4720.666
542,0.90135,4674.025
543,0.903017,4627.369
544,0.904683,4627.369
545,0.90635,4581.601
546,0.908017,4535.921
547,0.909683,4490.711
548,0.91135,4490.711
549,0.913017,4446.074
550,0.914683,4401.401
551,0.91635,4401.401
552,0.91805,4357.226
553,0.919683,4313.201
554,0.92135,4269.399
555,0.923017,4269.399
556,0.924683,4226.178
557,0.92635,4183.166
558,0.928017,4140.585
559,0.929683,4140.585
560,0.93135,4098.222
561,0.933017,4056.394
562,0.934683,4014.984
563,0.93635,4014.984
564,0.938017,3974.155
565,0.939683,3933.765
566,0.94135,3933.765
567,0.943017,3893.74
568,0.9446830000000001,3854.304
569,0.94635,3814.854
570,0.948017,3814.854
571,0.9496830000000001,3775.574
572,0.95135,3736.414
573,0.953017,3697.664
574,0.9546829999999999,3697.664
575,0.95635,3659.442
576,0.958017,3621.802
577,0.959683,3584.601
578,0.961333,3584.601
579,0.962983,3547.676
580,0.96465,3511.064
581,0.966317,3474.683
582,0.967983,3474.683
583,0.96965,3438.994
584,0.971317,3403.366
585,0.972983,3403.366
586,0.97465,3368.177
587,0.976317,3333.561
588,0.977983,3299.11
589,0.97965,3299.11
590,0.9814000000000001,3265.187
591,0.9829830000000001,3231.51
592,0.98465,3198.02
593,0.9863499999999999,3198.02
594,0.9879829999999999,3164.731
595,0.98965,3131.583
596,0.991317,3098.682
597,0.9929829999999999,3098.682
598,0.99465,3066.733
599,0.996317,3035.173
600,0.99805,3003.865
601,0.99965,3003.865
602,1.001317,2973.191
603,1.002983,2942.339
604,1.00465,2942.339
605,1.006317,2911.694
606,1.007983,2881.49
607,1.009667,2851.218
608,1.011317,2851.218
609,1.012983,2821.527
610,1.01475,2792.239
611,1.016317,2763.145
612,1.017983,2763.145
613,1.01965,2734.706
614,1.0213,2706.297
615,1.022967,2706.297
616,1.024633,2678.081
617,1.0263,2650.365
618,1.027967,2622.887
619,1.029633,2622.887
620,1.0313,2595.909
621,1.032967,2569.251
622,1.034633,2542.675
623,1.0363,2542.675
624,1.037967,2516.344
625,1.039633,2490.29
626,1.0413,2464.406
627,1.042967,2464.406
628,1.044633,2439.037
629,1.0463,2413.951
630,1.047967,2388.88
631,1.049633,2388.88
632,1.0513,2364.203
633,1.052983,2339.594
634,1.054633,2339.594
635,1.0563,2315.126
636,1.057967,2290.994
637,1.059633,2266.988
638,1.0613,2266.988
639,1.062967,2243.817
640,1.064633,2221.055
641,1.0663,2198.249
642,1.067967,2198.249
643,1.069633,2175.771
644,1.0713,2153.315
645,1.072967,2130.859
646,1.074633,2130.859
647,1.0763,2109.051
648,1.077967,2087.451
649,1.079633,2087.451
650,1.081283,2066.135
651,1.08295,2045.013
652,1.084617,2024.069
653,1.086283,2024.069
654,1.08795,2003.275
655,1.089617,1982.406
656,1.091283,1961.723
657,1.09295,1961.723
658,1.094617,1941.316
659,1.096283,1921.095
660,1.09795,1901.522
661,1.099617,1901.522
662,1.101283,1882.292
663,1.10295,1862.913
664,1.104617,1844.145
665,1.106283,1844.145
666,1.10795,1825.355
667,1.109617,1806.855
668,1.111283,1806.855
669,1.11295,1788.713
670,1.114617,1770.355
671,1.116333,1751.907
672,1.11795,1751.907
673,1.119617,1733.936
674,1.121283,1716.197
675,1.12295,1699.06
676,1.124617,1699.06
677,1.126283,1682.259
678,1.12795,1665.1
679,1.129617,1648.374
680,1.131283,1648.374
681,1.13305,1631.595
682,1.134617,1614.809
683,1.136283,1614.809
684,1.13795,1598.351
685,1.139617,1581.766
686,1.141267,1565.449
687,1.142933,1565.449
688,1.1446,1549.49
689,1.146267,1533.903
690,1.147933,1518.451
691,1.1496,1518.451
692,1.151267,1503.438
693,1.152933,1488.335
694,1.1546,1473.33
695,1.156267,1473.33
696,1.157933,1458.704
697,1.1596,1443.617
698,1.161267,1429.312
699,1.162933,1429.312
700,1.1646,1415.26
701,1.166267,1401.015
702,1.167933,1401.015
703,1.1696,1387.246
704,1.171267,1373.127
705,1.172933,1358.911
706,1.1746,1358.911
707,1.176267,1345.21
708,1.177933,1331.471
709,1.1796,1318.172
710,1.181267,1318.172
711,1.182933,1305.26
712,1.1846,1292.363
713,1.186267,1279.667
714,1.187933,1279.667
715,1.1896,1267.008
716,1.191267,1254.26
717,1.192933,1254.26
718,1.1946,1241.691
719,1.196267,1229.458
720,1.197933,1217.365
721,1.199583,1217.365
722,1.201267,1205.429
723,1.202917,1193.799
724,1.204583,1182.348
725,1.20625,1182.348
726,1.207917,1170.635
727,1.209583,1159.348
728,1.21125,1147.866
729,1.212917,1147.866
730,1.214583,1136.37
731,1.21625,1125.194
732,1.217917,1114.145
733,1.219583,1114.145
734,1.22125,1103.066
735,1.222917,1092.143
736,1.224583,1092.143
737,1.22625,1081.847
738,1.227917,1071.312
739,1.229583,1061.291
740,1.23125,1061.291
741,1.232917,1051.374
742,1.234583,1041.107
743,1.23625,1030.937
744,1.237933,1030.937
745,1.239583,1020.499
746,1.24125,1010.083
747,1.242917,999.7859999999999
748,1.244583,999.7859999999999
749,1.24625,989.966
750,1.247917,980.78
751,1.249583,980.78
752,1.251367,971.228
753,1.252917,962.287
754,1.254567,953.205
755,1.256233,953.205
756,1.2579,944.16
757,1.259567,935.644
758,1.261217,926.696
759,1.262883,926.696
760,1.26455,917.8150000000001
761,1.266217,908.785
762,1.267883,899.851
763,1.26955,899.851
764,1.271217,891.253
765,1.272883,882.827
766,1.27455,882.827
767,1.276217,874.5119999999999
768,1.277883,866.4059999999999
769,1.27955,858.322
770,1.281217,858.322
771,1.282883,850.365
772,1.28455,842.564
773,1.286217,834.502
774,1.287883,834.502
775,1.28955,826.426
776,1.291217,818.5359999999999
777,1.2929,810.705
778,1.29455,810.705
779,1.296217,803.24
780,1.297883,796.191
781,1.29955,788.86
782,1.301217,788.86
783,1.302883,781.879
784,1.30455,774.808
785,1.306217,774.808
786,1.307883,767.7
787,1.30955,760.593
788,1.311217,753.604
789,1.312883,753.604
790,1.31455,746.9059999999999
791,1.316217,739.88
792,1.317883,733.301
793,1.319533,733.301
794,1.3212,726.543
795,1.322867,719.577
796,1.324533,713.266
797,1.3262,713.266
798,1.327867,706.6950000000001
799,1.329533,700.1609999999999
800,1.3312,700.1609999999999
801,1.332867,693.992
802,1.334533,687.532
803,1.336283,681.579
804,1.3379,681.579
805,1.339533,675.529
806,1.3412,669.479
807,1.342867,663.787
808,1.344533,663.787
809,1.3462,657.827
810,1.347867,652.455
811,1.349533,647.016
812,1.3512,647.016
813,1.352867,641.4059999999999
814,1.354533,635.818
815,1.3562,629.76
816,1.357867,629.76
817,1.359533,623.859
818,1.3612,618.063
819,1.362867,618.063
820,1.364533,612.7430000000001
821,1.3662,607.55
822,1.367867,602.432
823,1.369633,602.432
824,1.3712,597.492
825,1.372867,592.492
826,1.374533,587.441
827,1.3762,587.441
828,1.377867,582.539
829,1.37955,577.45
830,1.381183,572.264
831,1.38285,572.264
832,1.384517,567.4589999999999
833,1.386183,562.6079999999999
834,1.38785,562.6079999999999
835,1.389517,558.048
836,1.391183,553.34
837,1.39285,548.683
838,1.394517,548.683
839,1.396183,544.354
840,1.39785,539.899
841,1.399517,535.622
842,1.401183,535.622
843,1.40285,531.301
844,1.404517,526.98
845,1.406183,522.42
846,1.40785,522.42
847,1.409517,518.3
848,1.4112,513.822
849,1.412867,509.314
850,1.414517,509.314
851,1.416183,505.261
852,1.41785,501.163
853,1.419517,501.163
854,1.421183,497.319
855,1.42285,493.474
856,1.424517,489.712
857,1.426183,489.712
858,1.42785,485.726
859,1.429517,482
860,1.431183,478.096
861,1.43285,478.096
862,1.434517,474.237
863,1.436183,470.512
864,1.437833,466.518
865,1.4395,466.518
866,1.441167,463.113
867,1.442833,459.641
868,1.4445,459.641
869,1.446167,455.99
870,1.447833,452.504
871,1.4495,448.89
872,1.451167,448.89
873,1.452833,445.105
874,1.45455,441.588
875,1.456167,438.31
876,1.45785,438.31
877,1.4595,434.905
878,1.461167,431.903
879,1.462833,428.937
880,1.4645,428.937
881,1.466167,426.039
882,1.467833,422.902
883,1.4695,422.902
884,1.471167,419.937
885,1.472833,417.039
886,1.4745,413.701
887,1.476167,413.701
888,1.477833,410.84
889,1.4795,407.569
890,1.481167,404.149
891,1.482833,404.149
892,1.4845,401.542
893,1.486167,398.718
894,1.48795,396.118
895,1.4895,396.118
896,1.491167,393.651
897,1.492833,390.589
898,1.4945,387.564
899,1.496167,387.564
900,1.497833,384.51
901,1.4995,381.872
902,1.50115,381.872
903,1.502817,379.466
904,1.504483,377.275
905,1.50615,375.249
906,1.507817,375.249
907,1.509483,372.469
908,1.51115,369.906
909,1.512817,367.403
910,1.514483,367.403
911,1.51615,364.542
912,1.517817,362.165
913,1.519483,359.826
914,1.52115,359.826
915,1.522817,357.136
916,1.524483,354.707
917,1.52615,354.707
918,1.527817,352.375
919,1.529483,349.991
920,1.53115,348.046
921,1.532817,348.046
922,1.534483,346.012
923,1.53615,344.053
924,1.537817,341.758
925,1.539483,341.758
926,1.54115,339.381
927,1.542817,337.221
928,1.544467,335.127
929,1.546133,335.127
930,1.5478,333.175
931,1.549467,331.253
932,1.551133,329.278
933,1.5528,329.278
934,1.554467,326.946
935,1.556133,325.046
936,1.5578,325.046
