"ID","sea_time","fid_signal"
1,0,145.614
2,0.001667,145.435
3,0.003333,145.346
4,0.005,145.346
5,0.006683,145.167
6,0.008333,145.063
7,0.01,145.063
8,0.011667,144.564
9,0.013333,144.109
10,0.015,143.893
11,0.016667,143.893
12,0.018317,143.871
13,0.019983,144.564
14,0.02165,144.988
15,0.023317,144.988
16,0.024983,145.152
17,0.02665,145.249
18,0.028317,144.839
19,0.03005,144.839
20,0.03165,144.43
21,0.033317,144.37
22,0.034983,144.511
23,0.03665,144.511
24,0.038317,144.891
25,0.039983,145.108
26,0.04165,145.108
27,0.043317,145.271
28,0.044983,145.063
29,0.046667,144.728
30,0.048317,144.728
31,0.049983,144.772
32,0.05165,144.683
33,0.053317,144.891
34,0.054983,144.891
35,0.056683,144.713
36,0.058317,144.668
37,0.059983,144.802
38,0.06165,144.802
39,0.063417,144.713
40,0.064983,145.048
41,0.06665,145.048
42,0.068317,145.197
43,0.069983,144.944
44,0.07165000000000001,144.556
45,0.07331699999999999,144.556
46,0.07498299999999999,144.31
47,0.07665,144.102
48,0.07829999999999999,143.982
49,0.079967,143.982
50,0.081633,144.444
51,0.0833,144.653
52,0.084983,144.377
53,0.086633,144.377
54,0.0883,144.586
55,0.08996700000000001,144.459
56,0.09163300000000001,144.243
57,0.09329999999999999,144.243
58,0.094967,144.631
59,0.096633,144.742
60,0.0983,144.742
61,0.099967,144.795
62,0.101633,144.914
63,0.1033,144.914
64,0.104967,144.914
65,0.106633,144.802
66,0.1083,144.735
67,0.109967,145.063
68,0.111633,145.063
69,0.1133,144.914
70,0.114967,145.078
71,0.116633,144.958
72,0.1183,144.958
73,0.119967,144.437
74,0.121633,144.422
75,0.1233,144.422
76,0.124967,144.057
77,0.126633,144.392
78,0.1283,144.824
79,0.129967,144.824
80,0.131633,145.122
81,0.1333,145.338
82,0.134967,145.249
83,0.136633,145.249
84,0.1383,144.981
85,0.13995,144.802
86,0.1416,144.698
87,0.143267,144.698
88,0.144933,144.303
89,0.1466,144.109
90,0.14835,144.079
91,0.149933,144.079
92,0.151633,143.96
93,0.153267,144.228
94,0.154933,144.228
95,0.1566,144.482
96,0.158267,144.377
97,0.159933,144.273
98,0.1616,144.273
99,0.163267,144.02
100,0.164933,144.094
101,0.1666,143.923
102,0.168267,143.923
103,0.169933,143.841
104,0.1716,143.871
105,0.173267,143.811
106,0.174933,143.811
107,0.1766,144.042
108,0.178267,144.325
109,0.179933,144.325
110,0.181683,144.482
111,0.183267,144.541
112,0.184933,144.616
113,0.1866,144.616
114,0.188267,144.728
115,0.189933,144.78
116,0.1916,144.728
117,0.193267,144.728
118,0.194933,144.377
119,0.196583,144.169
120,0.19825,144.124
121,0.199917,144.124
122,0.201583,143.893
123,0.20325,144.213
124,0.204917,144.213
125,0.206583,144.333
126,0.20825,144.109
127,0.209917,144.422
128,0.211583,144.422
129,0.21325,144.526
130,0.214917,144.832
131,0.216583,145.108
132,0.21825,145.108
133,0.219917,144.854
134,0.221583,144.757
135,0.223283,144.482
136,0.224917,144.482
137,0.226583,144.422
138,0.22825,144.608
139,0.229917,144.675
140,0.231583,144.675
141,0.23325,144.72
142,0.234917,145.1
143,0.236583,145.1
144,0.23825,145.152
145,0.239917,144.988
146,0.241583,144.683
147,0.24325,144.683
148,0.244917,144.362
149,0.246583,143.99
150,0.24825,143.968
151,0.249917,143.968
152,0.251583,144.221
153,0.25325,144.146
154,0.254917,144.199
155,0.256567,144.199
156,0.258233,144.4
157,0.2599,144.467
158,0.261567,144.467
159,0.263233,144.623
160,0.2649,144.981
161,0.266633,144.795
162,0.268233,144.795
163,0.2699,144.489
164,0.271567,144.392
165,0.273233,144.012
166,0.2749,144.012
167,0.276567,143.997
168,0.278233,144.422
169,0.2799,144.631
170,0.281567,144.631
171,0.283233,144.824
172,0.2849,144.809
173,0.286567,144.832
174,0.288233,144.832
175,0.2899,144.497
176,0.291567,144.795
177,0.293233,144.795
178,0.2949,144.616
179,0.296567,144.094
180,0.29825,144.258
181,0.300017,144.258
182,0.301567,144.34
183,0.303233,144.526
184,0.3049,144.757
185,0.306567,144.757
186,0.308233,144.705
187,0.3099,144.37
188,0.311567,144.809
189,0.313233,144.809
190,0.3149,145.1
191,0.31655,145.644
192,0.318217,145.644
193,0.319883,146.352
194,0.32155,147.03
195,0.323217,148.229
196,0.324883,148.229
197,0.32655,149.533
198,0.328217,151.172
199,0.329883,153.244
200,0.33155,153.244
201,0.333217,156.142
202,0.334883,160.083
203,0.33655,165.433
204,0.338217,165.433
205,0.339883,172.123
206,0.34155,180.319
207,0.343217,190.526
208,0.344883,190.526
209,0.34655,203.11
210,0.348217,218.004
211,0.349883,218.004
212,0.35155,235.833
213,0.353217,256.963
214,0.354883,281.543
215,0.35655,281.543
216,0.358217,310.495
217,0.359883,344.12
218,0.36155,382.23
219,0.363217,382.23
220,0.364917,425.577
221,0.36655,474.386
222,0.368217,528.783
223,0.369883,528.783
224,0.37155,589.654
225,0.373217,656.672
226,0.374883,656.672
227,0.37655,730.276
228,0.3782,810.847
229,0.379867,897.884
230,0.381533,897.884
231,0.3832,992.276
232,0.384883,1094.244
233,0.386533,1203.5
234,0.3882,1203.5
235,0.389867,1320.928
236,0.391533,1446.605
237,0.3932,1580.544
238,0.394867,1580.544
239,0.396533,1723.096
240,0.3982,1875.378
241,0.399867,2037.309
242,0.401583,2037.309
243,0.4032,2210.595
244,0.404867,2397.016
245,0.406533,2397.016
246,0.4082,2597.898
247,0.409867,2816.386
248,0.411533,3055.468
249,0.4132,3055.468
250,0.414867,3320.023
251,0.416533,3616.415
252,0.4183,3952.019
253,0.419867,3952.019
254,0.421533,4335.753
255,0.4232,4777.819
256,0.424867,5289.919
257,0.426533,5289.919
258,0.4282,5885.393
259,0.429867,6578.296
260,0.431533,6578.296
261,0.433183,7383.697
262,0.43485,8316.255999999999
263,0.436517,9389.451999999999
264,0.438167,9389.451999999999
265,0.43985,10617.204
266,0.441567,12010.44
267,0.443167,13577.678
268,0.444833,13577.678
269,0.4465,15325.024
270,0.448167,17253.258
271,0.449833,19357.734
272,0.4515,19357.734
273,0.453167,21627.984
274,0.454833,24046.094
275,0.4565,24046.094
276,0.458167,26582.688
277,0.459833,29204.488
278,0.4615,31868.762
279,0.463167,31868.762
280,0.464833,34527.645
281,0.4665,37133.895
282,0.468167,39634.223
283,0.469833,39634.223
284,0.4715,41979.695
285,0.473167,44126.324
286,0.474833,46033.992
287,0.4765,46033.992
288,0.478167,47670.797
289,0.479833,49013.688
290,0.4815,50047.113
291,0.483167,50047.113
292,0.484833,50763.129
293,0.4865,51163.984
294,0.488167,51163.984
295,0.489833,51256.453
296,0.4915,51053.555
297,0.493167,50576.055
298,0.494833,50576.055
299,0.4965,49849.465
300,0.49815,48902.578
301,0.499817,47765.59
302,0.501483,47765.59
303,0.503217,46469.176
304,0.504817,45040.996
305,0.506483,43508.746
306,0.50815,43508.746
307,0.50985,41898.109
308,0.511483,40233.137
309,0.51315,40233.137
310,0.514817,38537
311,0.516483,36828.684
312,0.51815,35125.465
313,0.5199,35125.465
314,0.521483,33441.906
315,0.52315,31789.422
316,0.524817,30179.814
317,0.526483,30179.814
318,0.52815,28620.809
319,0.529817,27118.182
320,0.531483,25677.338
321,0.53315,25677.338
322,0.534817,24299.428
323,0.53655,22986.852
324,0.53815,21740.369
325,0.539817,21740.369
326,0.541483,20558.752
327,0.54315,19441.537
328,0.544817,19441.537
329,0.5464830000000001,18386.617
330,0.54815,17391.949
331,0.549817,16455.047
332,0.5514829999999999,16455.047
333,0.553267,15572.98
334,0.554817,14743.901
335,0.556467,13964.81
336,0.558133,13964.81
337,0.5598,13232.85
338,0.561467,12545.63
339,0.563133,11899.77
340,0.5648,11899.77
341,0.5664670000000001,11293.062
342,0.568133,10723.159
343,0.5698,10723.159
344,0.5714669999999999,10187.671
345,0.573133,9684.846
346,0.5748,9212.120999999999
347,0.576467,9212.120999999999
348,0.578133,8767.924999999999
349,0.5798,8350.589
350,0.581467,7958.025
351,0.583183,7958.025
352,0.5848,7588.625
353,0.586467,7240.847
354,0.588133,6913.185
355,0.5898,6913.185
356,0.591467,6604.157
357,0.593133,6312.847
358,0.5948,6038.04
359,0.596467,6038.04
360,0.598133,5778.387
361,0.5998,5533.308
362,0.601467,5533.308
363,0.603133,5301.505
364,0.604817,5082.13
365,0.606467,4874.609
366,0.608133,4874.609
367,0.6098,4677.951
368,0.611467,4491.649
369,0.613133,4314.87
370,0.6148,4314.87
371,0.6164500000000001,4146.859
372,0.618117,3987.305
373,0.619783,3835.537
374,0.6214499999999999,3835.537
375,0.623117,3691.383
376,0.624783,3554.3
377,0.62645,3554.3
378,0.628117,3423.586
379,0.629783,3299.311
380,0.63145,3180.303
381,0.633117,3180.303
382,0.634783,3066.428
383,0.63645,2957.776
384,0.6381829999999999,2853.751
385,0.639783,2853.751
386,0.64145,2754.457
387,0.643117,2659.805
388,0.644783,2569.236
389,0.64645,2569.236
390,0.6481170000000001,2482.072
391,0.649783,2398.655
392,0.65145,2398.655
393,0.65315,2318.74
394,0.6549,2241.798
395,0.65645,2168.328
396,0.658117,2168.328
397,0.659783,2097.785
398,0.66145,2029.844
399,0.663117,1964.897
400,0.664783,1964.897
401,0.66645,1902.252
402,0.668117,1841.903
403,0.669783,1783.878
404,0.67155,1783.878
405,0.673117,1727.991
406,0.674783,1674.324
407,0.67645,1622.64
408,0.6781,1622.64
409,0.679767,1572.929
410,0.681433,1524.866
411,0.6831,1524.866
412,0.684767,1478.717
413,0.686433,1434.132
414,0.6881,1390.941
415,0.689767,1390.941
416,0.691433,1349.285
417,0.6931,1309.112
418,0.694767,1270.615
419,0.696433,1270.615
420,0.6981000000000001,1233.995
421,0.699767,1198.582
422,0.701433,1164.287
423,0.7030999999999999,1164.287
424,0.704767,1131.363
425,0.706433,1099.192
426,0.7081,1099.192
427,0.709767,1068.033
428,0.711433,1038.276
429,0.7131,1009.278
430,0.714767,1009.278
431,0.716433,981.122
432,0.7181,954.583
433,0.719783,928.842
434,0.721433,928.842
435,0.7231,903.45
436,0.72475,879.265
437,0.726417,855.833
438,0.728083,855.833
439,0.72975,833.0119999999999
440,0.731417,811.681
441,0.733083,790.9829999999999
442,0.73475,790.9829999999999
443,0.7364000000000001,770.74
444,0.738067,751.182
445,0.739733,751.182
446,0.7413999999999999,732.221
447,0.743067,713.8099999999999
448,0.744733,695.884
449,0.7464,695.884
450,0.748067,678.636
451,0.749733,662.006
452,0.7514,646.181
453,0.753067,646.181
454,0.754733,631.258
455,0.756417,616.6849999999999
456,0.758067,602.528
457,0.759733,602.528
458,0.7614,588.596
459,0.7630670000000001,574.797
460,0.764733,574.797
461,0.7664,561.915
462,0.7680670000000001,549.48
463,0.769733,537.246
464,0.7714,537.246
465,0.7730669999999999,525.236
466,0.774733,513.524
467,0.7764,502.132
468,0.778067,502.132
469,0.7797500000000001,491.567
470,0.7814,481.583
471,0.783067,471.57
472,0.784733,471.57
473,0.7864,462.152
474,0.788067,452.571
475,0.789833,443.324
476,0.7914,443.324
477,0.793067,434.704
478,0.794733,426.404
479,0.796417,426.404
480,0.79805,418.678
481,0.799717,411.317
482,0.801383,404.075
483,0.80305,404.075
484,0.804717,396.699
485,0.806383,389.665
486,0.80805,382.729
487,0.809717,382.729
488,0.811383,375.867
489,0.8130500000000001,369.482
490,0.814717,363.395
491,0.816383,363.395
492,0.8180500000000001,357.278
493,0.819717,351.496
494,0.821383,351.496
495,0.8230499999999999,345.901
496,0.824717,340.119
497,0.826383,334.866
498,0.82805,334.866
499,0.829717,329.815
500,0.831383,324.845
501,0.83305,320.375
502,0.834717,320.375
503,0.836383,315.636
504,0.83805,311.151
505,0.839717,306.852
506,0.841383,306.852
507,0.84305,302.322
508,0.8447170000000001,298.336
509,0.846383,298.336
510,0.84805,294.201
511,0.8497169999999999,290.23
512,0.851383,286.624
513,0.85305,286.624
514,0.8547169999999999,282.884
515,0.856367,279.419
516,0.858033,276.215
517,0.8597,276.215
518,0.861383,272.855
519,0.8630330000000001,269.659
520,0.8647,266.641
521,0.866367,266.641
522,0.8680330000000001,263.542
523,0.8697,260.718
524,0.871367,258.274
525,0.8730329999999999,258.274
526,0.87475,255.808
527,0.876367,253.409
528,0.878033,253.409
529,0.8797,250.831
530,0.881367,248.224
531,0.883033,245.78
532,0.8847,245.78
533,0.886367,243.03
534,0.888033,240.84
535,0.8897,238.679
536,0.891367,238.679
537,0.893033,236.556
538,0.8947000000000001,234.887
539,0.896367,233.129
540,0.898033,233.129
541,0.8997000000000001,231.303
542,0.901367,229.314
543,0.90305,229.314
544,0.9046999999999999,227.503
545,0.906367,225.522
546,0.908133,223.503
547,0.9097,223.503
548,0.911367,221.655
549,0.913033,219.889
550,0.9147,218.153
551,0.91635,218.153
552,0.918017,216.76
553,0.919683,215.605
554,0.92135,214.323
555,0.923017,214.323
556,0.924683,213.288
557,0.92635,211.76
558,0.928017,210.24
559,0.929683,210.24
560,0.93135,208.348
561,0.933017,206.59
562,0.934683,206.59
563,0.936383,205.293
564,0.938017,204.161
565,0.939683,203.49
566,0.94135,203.49
567,0.943017,202.745
568,0.9446830000000001,201.941
569,0.94635,201.046
570,0.948017,201.046
571,0.9496830000000001,199.638
572,0.95135,198.312
573,0.953017,197.329
574,0.9546829999999999,197.329
575,0.95635,196.129
576,0.958017,195.421
577,0.959683,195.421
578,0.96135,194.728
579,0.963017,193.663
580,0.964683,192.94
581,0.96635,192.94
582,0.968017,191.89
583,0.969683,191.13
584,0.97135,190.474
585,0.973017,190.474
586,0.974683,189.93
587,0.976333,189.364
588,0.978,188.38
589,0.979667,188.38
590,0.981333,187.591
591,0.983017,186.451
592,0.984667,186.004
593,0.986333,186.004
594,0.988,185.683
595,0.989667,185.065
596,0.991333,185.065
597,0.993083,184.603
598,0.994667,183.895
599,0.996333,183.195
600,0.998,183.195
601,0.999667,182.427
602,1.001333,181.854
603,1.003033,181.526
604,1.004667,181.526
605,1.006333,181.176
606,1.008017,180.9
607,1.009667,180.408
608,1.011333,180.408
609,1.013,179.604
610,1.01465,178.672
611,1.016317,178.672
612,1.017983,178.143
613,1.01965,177.652
614,1.021317,177.406
615,1.022983,177.406
616,1.02465,176.981
617,1.026433,176.653
618,1.027983,176.176
619,1.02965,176.176
620,1.031317,175.349
621,1.032983,174.94
622,1.03465,174.515
623,1.0363,174.515
624,1.037967,174.224
625,1.039633,174.262
626,1.0413,174.262
627,1.042967,174.008
628,1.044633,173.643
629,1.0463,173.129
630,1.047967,173.129
631,1.049633,172.57
632,1.0513,172.205
633,1.052967,171.632
634,1.054633,171.632
635,1.0563,171.147
636,1.057967,170.775
637,1.059633,170.67
638,1.0613,170.67
639,1.062967,170.879
640,1.064633,170.775
641,1.0663,170.313
642,1.067967,170.313
643,1.069633,169.65
644,1.071333,169.076
645,1.072967,169.076
646,1.074683,168.934
647,1.0763,168.905
648,1.077967,168.785
649,1.079633,168.785
650,1.0813,168.629
651,1.082967,168.189
652,1.084633,167.966
653,1.0863,167.966
654,1.087967,167.78
655,1.089633,167.28
656,1.0913,167.333
657,1.092967,167.333
658,1.094633,167.161
659,1.0963,166.811
660,1.09795,166.811
661,1.099617,166.565
662,1.101283,165.984
663,1.10295,165.768
664,1.104617,165.768
665,1.106283,165.589
666,1.10795,165.552
667,1.109617,165.515
668,1.11135,165.515
669,1.11295,165.045
670,1.114617,164.799
671,1.116283,164.546
672,1.11795,164.546
673,1.119617,164.554
674,1.121283,164.539
675,1.12295,164.151
676,1.124617,164.151
677,1.126283,163.846
678,1.12795,163.577
679,1.129617,163.577
680,1.131283,163.279
681,1.13295,163.227
682,1.134617,163.145
683,1.136283,163.145
684,1.13795,163.019
685,1.139617,162.773
686,1.141283,162.728
687,1.14295,162.728
688,1.1447,162.728
689,1.14635,162.423
690,1.14795,162.296
691,1.149617,162.296
692,1.151283,162.214
693,1.15295,161.812
694,1.154617,161.812
695,1.156283,161.596
696,1.157933,161.64
697,1.1596,161.588
698,1.161267,161.588
699,1.162933,161.566
700,1.1646,161.283
701,1.166267,161.111
702,1.167933,161.111
703,1.1696,161.082
704,1.171267,160.873
705,1.172933,161.052
706,1.1746,161.052
707,1.176267,161.029
708,1.177933,160.865
709,1.1796,161.014
710,1.181267,161.014
711,1.18295,161.044
712,1.1846,160.895
713,1.186267,160.895
714,1.187933,160.471
715,1.1896,159.875
716,1.191267,159.517
717,1.192933,159.517
718,1.1946,159.45
719,1.196267,159.472
720,1.197933,159.703
721,1.1996,159.703
722,1.201267,159.636
723,1.202933,159.256
724,1.2046,159.018
725,1.206267,159.018
726,1.207933,158.876
727,1.2096,158.727
728,1.211267,158.727
729,1.21295,158.72
730,1.2146,158.623
731,1.21625,158.623
732,1.217917,158.623
733,1.219583,158.422
734,1.22125,158.28
735,1.222917,158.541
736,1.224583,158.541
737,1.22625,158.399
738,1.227917,158.317
739,1.2296,158.243
740,1.23125,158.243
741,1.232917,158.168
742,1.234583,158.101
743,1.23625,158.101
744,1.237917,158.384
745,1.239583,158.422
746,1.24125,157.93
747,1.242917,157.93
748,1.244583,157.498
749,1.246317,157.058
750,1.247917,156.865
751,1.249583,156.865
752,1.25125,157.103
753,1.252917,157.274
754,1.254583,157.252
755,1.25625,157.252
756,1.257917,157.163
757,1.259583,157.014
758,1.26125,156.797
759,1.263017,156.797
760,1.264583,156.894
761,1.26625,156.686
762,1.267917,156.686
763,1.269583,156.671
764,1.27125,156.85
765,1.272917,156.522
766,1.274583,156.522
767,1.27625,156.425
768,1.2779,156.432
769,1.279683,156.35
770,1.281233,156.35
771,1.2829,156.246
772,1.284567,156.276
773,1.286233,156.067
774,1.2879,156.067
775,1.289583,155.62
776,1.291283,155.568
777,1.2929,155.568
778,1.294567,155.561
779,1.296233,155.471
780,1.2979,155.821
781,1.299567,155.821
782,1.301233,155.821
783,1.3029,155.836
784,1.304567,155.903
785,1.306217,155.903
786,1.307883,155.814
787,1.30955,155.695
788,1.311217,155.754
789,1.312883,155.754
790,1.31455,155.471
791,1.316217,155.173
792,1.317883,155.196
793,1.31955,155.196
794,1.321217,155.166
795,1.322883,155.389
796,1.32455,155.389
797,1.326217,155.479
798,1.327883,155.486
799,1.32955,155.307
800,1.331217,155.307
801,1.332883,155.069
802,1.33455,154.86
803,1.3362,154.629
804,1.337867,154.629
805,1.339533,154.376
806,1.3412,154.294
807,1.342867,154.361
808,1.344533,154.361
809,1.3462,154.234
810,1.347933,154.227
811,1.349533,154.227
812,1.3512,154.175
813,1.352867,153.974
814,1.354533,153.81
815,1.3562,153.81
816,1.357883,153.817
817,1.359533,153.668
818,1.3612,153.564
819,1.362867,153.564
820,1.364633,153.579
821,1.3662,153.519
822,1.367867,153.385
823,1.369533,153.385
824,1.3712,153.542
825,1.372867,153.698
826,1.374533,153.81
827,1.3762,153.81
828,1.377867,153.802
829,1.379533,153.765
830,1.381267,153.765
831,1.382867,153.646
832,1.384533,153.236
833,1.3862,153.311
834,1.387867,153.311
835,1.389533,153.176
836,1.3912,152.983
837,1.392867,153.095
838,1.394533,153.095
839,1.3962,153.095
840,1.397967,153.013
841,1.399517,152.975
842,1.401183,152.975
843,1.40285,152.901
844,1.404517,152.871
845,1.406183,152.871
846,1.40785,152.797
847,1.409517,152.938
848,1.411183,153.087
849,1.41285,153.087
850,1.414517,153.013
851,1.416183,153.191
852,1.41785,153.132
853,1.419517,153.132
854,1.421183,152.729
855,1.42285,152.58
856,1.424517,152.327
857,1.426183,152.327
858,1.42785,152.573
859,1.429533,152.7
860,1.431183,152.7
861,1.43285,152.685
862,1.434517,152.834
863,1.436183,152.893
864,1.43785,152.893
865,1.439517,153.147
866,1.441183,152.938
867,1.44285,152.506
868,1.444517,152.506
869,1.446183,152.007
870,1.44785,151.649
871,1.449517,151.776
872,1.451183,151.776
873,1.45285,151.858
874,1.454517,151.955
875,1.456167,152.066
876,1.457833,152.066
877,1.4595,152.051
878,1.461167,152.133
879,1.462833,152.133
880,1.4645,152.133
881,1.466167,151.783
882,1.467833,151.485
883,1.4695,151.485
884,1.471167,151.366
885,1.472833,151.262
886,1.4745,151.314
887,1.476167,151.314
888,1.477833,151.56
889,1.4795,151.634
890,1.481167,151.515
891,1.4829,151.515
892,1.4845,151.47
893,1.486167,151.56
894,1.487833,151.56
895,1.4895,151.262
896,1.491167,151.061
897,1.492833,150.934
898,1.4945,150.934
899,1.496167,150.524
900,1.497833,150.494
901,1.499617,150.889
902,1.501167,150.889
903,1.502833,151.023
904,1.5045,150.919
905,1.506167,150.882
906,1.507833,150.882
907,1.5095,150.785
908,1.511167,150.822
909,1.512833,150.867
910,1.5145,150.867
911,1.516267,151.247
912,1.517817,151.12
913,1.519483,151.12
914,1.52115,150.979
915,1.522817,150.874
916,1.524483,150.532
917,1.52615,150.532
918,1.527817,150.152
919,1.529483,150.241
920,1.53115,150.412
921,1.532817,150.412
922,1.534483,150.681
923,1.53615,150.807
924,1.537817,150.673
925,1.539483,150.673
926,1.54115,150.74
927,1.542817,150.703
928,1.544483,150.703
929,1.54615,150.844
930,1.547817,151.098
931,1.549483,151.031
932,1.55115,151.031
933,1.552817,150.777
934,1.554483,150.643
935,1.55615,150.025
936,1.557817,150.025
937,1.559483,150.04
938,1.56115,149.705
939,1.562817,149.563
940,1.564483,149.563
941,1.566183,149.943
942,1.56785,149.585
943,1.569483,150.107
944,1.57115,150.107
945,1.572817,150.04
946,1.574483,150.025
947,1.576133,150.025
