"ID","sea_time","fid_signal"
1,0,140.615
2,0.001667,140.66
3,0.003333,140.697
4,0.005,140.697
5,0.006667,140.578
6,0.008333,140.339
7,0.0101,139.773
8,0.011667,139.773
9,0.013333,139.311
10,0.015,139.453
11,0.016667,139.721
12,0.018333,139.721
13,0.02,139.952
14,0.021667,140.667
15,0.023333,140.868
16,0.025,140.868
17,0.026667,140.637
18,0.028333,140.876
19,0.03,140.876
20,0.031667,140.667
21,0.033333,140.563
22,0.035,140.607
23,0.036667,140.607
24,0.038333,140.697
25,0.04,140.473
26,0.041667,140.272
27,0.043333,140.272
28,0.045,140.652
29,0.046667,140.533
30,0.048317,140.868
31,0.049983,140.868
32,0.05165,141.032
33,0.053317,140.853
34,0.054983,140.689
35,0.05665,140.689
36,0.058317,140.302
37,0.059983,140.063
38,0.06165,140.063
39,0.063317,139.9
40,0.064983,139.922
41,0.06665,140.123
42,0.068317,140.123
43,0.069983,140.429
44,0.07165000000000001,140.756
45,0.07331699999999999,140.928
46,0.07498299999999999,140.928
47,0.07665,140.682
48,0.078317,140.473
49,0.079983,140.309
50,0.08165,140.309
51,0.083317,140.361
52,0.084983,140.771
53,0.08665,140.771
54,0.08831700000000001,140.905
55,0.08998299999999999,140.898
56,0.09165,141.136
57,0.093317,141.136
58,0.094983,140.935
59,0.09665,140.935
60,0.098317,140.861
61,0.099983,140.861
62,0.10165,140.175
63,0.103317,140.19
64,0.104983,140.339
65,0.10665,140.339
66,0.1083,140.734
67,0.109967,140.816
68,0.111683,140.66
69,0.1133,140.66
70,0.114967,140.384
71,0.116633,140.22
72,0.1183,140.22
73,0.119967,140.361
74,0.121633,140.451
75,0.1233,140.309
76,0.124967,140.309
77,0.126633,140.317
78,0.1284,140.697
79,0.129967,140.95
80,0.131633,140.95
81,0.1333,140.935
82,0.134967,140.92
83,0.136633,140.727
84,0.1383,140.727
85,0.139967,140.54
86,0.141633,140.764
87,0.1433,140.764
88,0.144967,140.667
89,0.146633,140.838
90,0.1483,141.136
91,0.149967,141.136
92,0.151633,141.226
93,0.1533,141.159
94,0.154983,141.136
95,0.156633,141.136
96,0.1583,141.226
97,0.159967,141.092
98,0.161633,141.241
99,0.1633,141.241
100,0.164967,140.89
101,0.166617,140.756
102,0.168283,140.689
103,0.16995,140.689
104,0.171617,140.518
105,0.173283,140.592
106,0.17495,140.592
107,0.176617,140.138
108,0.178283,140.175
109,0.17995,140.16
110,0.181633,140.16
111,0.183283,140.093
112,0.18495,140.361
113,0.186617,140.376
114,0.188283,140.376
115,0.18995,140.622
116,0.191617,141.01
117,0.193283,141.039
118,0.19495,141.039
119,0.196617,141.323
120,0.198283,141.248
121,0.19995,141.248
122,0.201617,141.211
123,0.203283,141.151
124,0.20495,141.047
125,0.206617,141.047
126,0.208283,140.719
127,0.20995,140.25
128,0.211617,140.384
129,0.21335,140.384
130,0.21495,140.414
131,0.216617,140.838
132,0.218283,141.151
133,0.21995,141.151
134,0.2216,141.114
135,0.223267,141.069
136,0.224933,141.069
137,0.2266,141.151
138,0.22825,141.248
139,0.229933,141.338
140,0.231583,141.338
141,0.233283,141.39
142,0.234917,141.069
143,0.236583,141.01
144,0.23825,141.01
145,0.239917,140.622
146,0.241583,140.235
147,0.24325,140.384
148,0.244917,140.384
149,0.2467,140.369
150,0.24825,140.727
151,0.249917,141.189
152,0.251583,141.189
153,0.25325,140.883
154,0.254917,140.838
155,0.256583,140.838
156,0.25825,140.712
157,0.259917,140.585
158,0.261583,140.682
159,0.26325,140.682
160,0.264917,140.682
161,0.266583,140.622
162,0.26825,140.868
163,0.269917,140.868
164,0.271583,141.01
165,0.27325,141.032
166,0.274917,141.01
167,0.276583,141.01
168,0.27825,140.935
169,0.279917,141.017
170,0.281583,141.017
171,0.28325,140.92
172,0.284917,140.861
173,0.286583,140.488
174,0.288233,140.488
175,0.2899,140.384
176,0.291567,140.548
177,0.293233,140.719
178,0.2949,140.719
179,0.296567,140.913
180,0.298233,140.771
181,0.2999,140.592
182,0.301567,140.592
183,0.303233,140.257
184,0.3049,140.242
185,0.306567,140.57
186,0.308233,140.57
187,0.3099,140.473
188,0.311567,140.548
189,0.313233,140.548
190,0.3149,140.54
191,0.316567,140.212
192,0.31825,140.332
193,0.3199,140.332
194,0.321567,140.704
195,0.323233,140.838
196,0.3249,141.442
197,0.326567,141.442
198,0.328233,141.859
199,0.3299,142.179
200,0.331617,142.477
201,0.333233,142.477
202,0.3349,142.686
203,0.336567,143.26
204,0.338233,143.26
205,0.3399,143.975
206,0.341567,145.048
207,0.343233,146.538
208,0.3449,146.538
209,0.346567,148.214
210,0.348217,150.308
211,0.349883,153.266
212,0.35155,153.266
213,0.353217,156.656
214,0.354883,160.925
215,0.356567,166.461
216,0.358217,166.461
217,0.359883,172.459
218,0.36155,179.85
219,0.363217,188.857
220,0.364883,188.857
221,0.36655,199.065
222,0.368217,211.664
223,0.369883,211.664
224,0.37155,226.2
225,0.373217,242.606
226,0.374883,261.471
227,0.37655,261.471
228,0.378217,283.048
229,0.379883,307.202
230,0.38155,334.844
231,0.383217,334.844
232,0.384883,366.189
233,0.38655,400.923
234,0.388217,440.434
235,0.389883,440.434
236,0.39155,484.578
237,0.393217,533.707
238,0.394883,533.707
239,0.396567,588.857
240,0.398267,650.086
241,0.399883,718.08
242,0.40155,718.08
243,0.403217,793.688
244,0.404883,877.432
245,0.406533,969.79
246,0.4082,969.79
247,0.409867,1071.379
248,0.411533,1182.78
249,0.4132,1304.135
250,0.414867,1304.135
251,0.416533,1435.705
252,0.4182,1577.482
253,0.419867,1577.482
254,0.421533,1728.535
255,0.4232,1888.432
256,0.424867,2056.83
257,0.426533,2056.83
258,0.4282,2231.881
259,0.429867,2412.655
260,0.431533,2596.743
261,0.4332,2596.743
262,0.434867,2782.568
263,0.436533,2967.775
264,0.4382,3150.56
265,0.439867,3150.56
266,0.441533,3328.905
267,0.4432,3499.292
268,0.444867,3660.567
269,0.446533,3660.567
270,0.4482,3810.555
271,0.449917,3947.206
272,0.451533,3947.206
273,0.4532,4069.783
274,0.454867,4176.602
275,0.456533,4266.471
276,0.4582,4266.471
277,0.459867,4339.114
278,0.461533,4393.764
279,0.4632,4430.413
280,0.464867,4430.413
281,0.4666,4449.129
282,0.4682,4450.381
283,0.4699,4434.943
284,0.471517,4434.943
285,0.473183,4403.718
286,0.47485,4357.77
287,0.476517,4357.77
288,0.478183,4298.404
289,0.47985,4226.729
290,0.481517,4144.304
291,0.483183,4144.304
292,0.48485,4052.401
293,0.486517,3952.406
294,0.488183,3845.714
295,0.48985,3845.714
296,0.491517,3733.121
297,0.493183,3616.325
298,0.49485,3496.52
299,0.496517,3496.52
300,0.498183,3375.031
301,0.49995,3252.73
302,0.501517,3130.309
303,0.503183,3130.309
304,0.50485,3008.723
305,0.506517,2888.382
306,0.5081830000000001,2888.382
307,0.50985,2770.245
308,0.511517,2654.635
309,0.513167,2542.049
310,0.514833,2542.049
311,0.5165,2432.533
312,0.518167,2326.712
313,0.519833,2224.714
314,0.5215,2224.714
315,0.523167,2126.53
316,0.524833,2032.623
317,0.5265,1942.672
318,0.52815,1942.672
319,0.529817,1856.64
320,0.5315,1774.766
321,0.53315,1774.766
322,0.534817,1696.631
323,0.536483,1622.759
324,0.53815,1552.604
325,0.539833,1552.604
326,0.541533,1485.81
327,0.54315,1423.098
328,0.544817,1363.114
329,0.5464830000000001,1363.114
330,0.54815,1306.318
331,0.549817,1252.592
332,0.5514829999999999,1201.421
333,0.55315,1201.421
334,0.554817,1153.178
335,0.5564829999999999,1107.67
336,0.55815,1064.897
337,0.559817,1064.897
338,0.561483,1023.933
339,0.56315,985.138
340,0.564817,985.138
341,0.566483,948.742
342,0.56815,913.806
343,0.569817,881.232
344,0.571483,881.232
345,0.57315,850.104
346,0.574817,820.324
347,0.576483,792.451
348,0.5781500000000001,792.451
349,0.579817,765.7190000000001
350,0.581483,740.409
351,0.5831499999999999,716.172
352,0.5849,716.172
353,0.586483,693.016
354,0.588133,671.268
355,0.5898,671.268
356,0.591467,650.726
357,0.593133,631.057
358,0.5948,612.296
359,0.596467,612.296
360,0.598133,594.519
361,0.5998,577.323
362,0.601567,561.148
363,0.603133,561.148
364,0.6048,545.904
365,0.606467,530.809
366,0.608133,516.929
367,0.6098,516.929
368,0.611467,503.741
369,0.61315,490.68
370,0.6148169999999999,478.491
371,0.616467,478.491
372,0.61825,466.883
373,0.6198,455.827
374,0.621467,455.827
375,0.623133,445.262
376,0.6248,434.853
377,0.626467,424.616
378,0.6281330000000001,424.616
379,0.6298,414.692
380,0.631467,405.043
381,0.6331329999999999,396.051
382,0.6348,396.051
383,0.636467,387.534
384,0.638133,379.682
385,0.6398,372.536
386,0.641467,372.536
387,0.643133,365.533
388,0.6448,358.596
389,0.646467,358.596
390,0.6481170000000001,351.571
391,0.649783,344.582
392,0.65145,338.107
393,0.6531169999999999,338.107
394,0.654783,332.035
395,0.65645,326.179
396,0.658117,320.673
397,0.659783,320.673
398,0.66145,315.227
399,0.663117,310.056
400,0.664783,305.22
401,0.66645,305.22
402,0.668117,300.512
403,0.669783,295.959
404,0.67145,295.959
405,0.673117,291.623
406,0.674783,287.354
407,0.67645,283.457
408,0.678117,283.457
409,0.6798,279.352
410,0.68145,275.411
411,0.683117,271.663
412,0.684783,271.663
413,0.68645,267.901
414,0.688117,264.734
415,0.689783,261.575
416,0.69145,261.575
417,0.693117,258.371
418,0.694783,255.279
419,0.69645,252.329
420,0.698117,252.329
421,0.699783,249.17
422,0.70145,246.495
423,0.703183,246.495
424,0.704783,243.895
425,0.70645,241.16
426,0.7081,238.769
427,0.709767,238.769
428,0.711433,236.183
429,0.7131,233.993
430,0.714767,231.981
431,0.716433,231.981
432,0.7181,229.783
433,0.719817,227.63
434,0.721433,225.432
435,0.7231,225.432
436,0.7247670000000001,223.272
437,0.726433,221.238
438,0.7281,221.238
439,0.7297670000000001,219.479
440,0.731433,217.669
441,0.7331,216.082
442,0.7347669999999999,216.082
443,0.73655,214.361
444,0.7381,212.632
445,0.739767,210.948
446,0.741433,210.948
447,0.7431,209.399
448,0.744767,208.095
449,0.746433,206.873
450,0.7481,206.873
451,0.749767,205.584
452,0.751433,204.079
453,0.7531,202.619
454,0.754767,202.619
455,0.756433,201.315
456,0.7581329999999999,200.041
457,0.759767,200.041
458,0.761433,199.102
459,0.7631,198.059
460,0.764767,196.74
461,0.766433,196.74
462,0.768083,195.57
463,0.76975,194.184
464,0.771417,192.97
465,0.773083,192.97
466,0.77475,192.106
467,0.776417,191.13
468,0.778083,190.131
469,0.7797500000000001,190.131
470,0.781417,189.409
471,0.783083,188.597
472,0.7847499999999999,188.597
473,0.786417,187.851
474,0.788083,187.01
475,0.78975,186.101
476,0.791417,186.101
477,0.793083,185.4
478,0.79475,184.409
479,0.796417,183.724
480,0.798083,183.724
481,0.79975,183.254
482,0.801417,182.495
483,0.803083,182.033
484,0.804733,182.033
485,0.8064,181.563
486,0.808067,180.967
487,0.809733,180.967
488,0.8114,180.312
489,0.813067,179.589
490,0.814733,178.851
491,0.8164,178.851
492,0.818067,178.024
493,0.819733,177.205
494,0.82145,176.884
495,0.823067,176.884
496,0.82475,176.34
497,0.8264,175.729
498,0.82805,175.141
499,0.829717,175.141
500,0.831383,174.321
501,0.83305,173.673
502,0.834717,173.33
503,0.836383,173.33
504,0.838067,172.988
505,0.839717,172.593
506,0.841383,172.593
507,0.84305,172.183
508,0.8447170000000001,171.646
509,0.846383,171.311
510,0.84805,171.311
511,0.8497169999999999,171.214
512,0.851383,171.088
513,0.85305,170.7
514,0.854833,170.7
515,0.856383,170.082
516,0.85805,169.434
517,0.859717,168.838
518,0.861383,168.838
519,0.86305,168.428
520,0.864717,168.197
521,0.866383,168.197
522,0.86805,167.988
523,0.869717,167.69
524,0.871383,167.586
525,0.87305,167.586
526,0.874717,167.266
527,0.876383,166.655
528,0.87805,166.439
529,0.879717,166.439
530,0.881383,166.349
531,0.88305,166.088
532,0.884717,165.857
533,0.886383,165.857
534,0.888033,165.425
535,0.8897,164.889
536,0.891367,165.03
537,0.893033,165.03
538,0.8947000000000001,164.971
539,0.896367,164.822
540,0.898033,164.822
541,0.8997000000000001,164.777
542,0.901383,164.241
543,0.903033,163.987
544,0.9046999999999999,163.987
545,0.906367,163.883
546,0.908033,163.279
547,0.9097,163.145
548,0.911367,163.145
549,0.913033,162.81
550,0.9147,162.467
551,0.916367,162.229
552,0.918033,162.229
553,0.9197,161.678
554,0.921367,161.216
555,0.923033,161.216
556,0.9247,161.089
557,0.9263670000000001,160.865
558,0.928033,160.605
559,0.9297,160.605
560,0.9313669999999999,160.694
561,0.933033,160.299
562,0.9347,160.284
563,0.9363669999999999,160.284
564,0.938033,160.307
565,0.9397,160.128
566,0.941367,159.837
567,0.943033,159.837
568,0.9447,159.785
569,0.94635,159.457
570,0.948017,159.085
571,0.9496830000000001,159.085
572,0.95135,159.264
573,0.953017,159.003
574,0.9546829999999999,159.003
575,0.95635,158.854
576,0.958017,158.861
577,0.959683,158.757
578,0.96135,158.757
579,0.963017,158.705
580,0.964683,158.936
581,0.96635,158.548
582,0.968017,158.548
583,0.969683,157.937
584,0.97135,157.379
585,0.973133,156.805
586,0.9747,156.805
587,0.9763500000000001,156.797
588,0.978017,156.768
589,0.979683,156.768
590,0.9813499999999999,156.73
591,0.983017,156.872
592,0.984683,156.79
593,0.9863499999999999,156.79
594,0.9880330000000001,156.909
595,0.989683,156.999
596,0.99135,156.902
597,0.993017,156.902
598,0.994683,156.932
599,0.99635,156.79
600,0.998017,156.79
601,0.999683,156.79
602,1.00135,156.358
603,1.003017,156.097
604,1.004683,156.097
605,1.006333,155.926
606,1.008,155.292
607,1.009667,154.912
608,1.011333,154.912
609,1.013,154.778
610,1.014667,154.607
611,1.016333,154.92
612,1.018,154.92
613,1.019667,155.151
614,1.021333,155.017
615,1.023,154.868
616,1.024667,154.868
617,1.026333,154.577
618,1.028,154.495
619,1.029667,154.518
620,1.031333,154.518
621,1.033,154.406
622,1.034667,154.346
623,1.036333,154.346
624,1.038,154.361
625,1.039667,153.884
626,1.041333,153.683
627,1.043,153.683
628,1.044683,153.4
629,1.046383,153.199
630,1.048,153.348
631,1.049667,153.348
632,1.051333,153.542
633,1.053,153.705
634,1.054667,153.497
635,1.056333,153.497
636,1.058067,153.482
637,1.059667,153.139
638,1.061333,153.139
639,1.063,153.042
640,1.064667,153.124
641,1.066333,152.938
642,1.067983,152.938
643,1.06965,153.02
644,1.071317,152.864
645,1.072983,152.685
646,1.07465,152.685
647,1.076317,152.566
648,1.077983,152.558
649,1.07965,152.342
650,1.081317,152.342
651,1.082983,152.253
652,1.08465,152.513
653,1.086317,152.253
654,1.087983,152.253
655,1.08965,152.588
656,1.091433,152.752
657,1.092983,152.752
658,1.09465,152.767
659,1.0963,152.804
660,1.097967,152.394
661,1.099633,152.394
662,1.1013,152.357
663,1.102967,152.074
664,1.104633,151.716
665,1.1063,151.716
666,1.107967,151.798
667,1.109633,151.761
668,1.1113,151.828
669,1.112967,151.828
670,1.114633,151.992
671,1.1163,152.074
672,1.117967,152.074
673,1.119633,151.843
674,1.1213,151.508
675,1.123,151.113
676,1.124633,151.113
677,1.1263,150.979
678,1.12795,150.926
679,1.129617,151.135
680,1.131283,151.135
681,1.13295,151.202
682,1.134617,151.165
683,1.136283,151.128
684,1.13795,151.128
685,1.139617,150.852
686,1.141283,150.897
687,1.14295,150.658
688,1.144617,150.658
689,1.146283,150.628
690,1.14795,150.591
691,1.149617,150.591
692,1.151283,150.643
693,1.15295,150.725
694,1.154617,150.628
695,1.156283,150.628
696,1.15795,150.71
697,1.159617,150.71
698,1.161283,150.621
699,1.162967,150.621
700,1.164617,150.472
701,1.166283,150.375
702,1.16795,150.278
703,1.169617,150.278
704,1.171283,150.062
705,1.17295,150.308
706,1.174617,150.308
707,1.176333,150.315
708,1.17795,150.591
709,1.179617,150.785
710,1.181283,150.785
711,1.18295,150.554
712,1.184617,150.45
713,1.186267,150.278
714,1.187933,150.278
715,1.1896,150.405
716,1.1913,150.479
717,1.192933,150.219
718,1.1946,150.219
719,1.196267,150.114
720,1.19795,149.608
721,1.1996,149.608
722,1.201267,149.28
723,1.202933,149.123
724,1.2046,148.796
725,1.206267,148.796
726,1.207933,149.064
727,1.209717,148.997
728,1.211267,149.325
729,1.212933,149.325
730,1.2146,149.563
731,1.216267,149.511
732,1.217933,149.511
733,1.2196,149.511
734,1.221267,149.25
735,1.222933,148.81
736,1.2246,148.743
737,1.226267,148.743
738,1.227933,148.825
739,1.2296,148.818
740,1.231267,148.818
741,1.232933,149.079
742,1.2346,148.885
743,1.236267,148.706
744,1.237933,148.706
745,1.2396,148.974
746,1.241267,148.572
747,1.242933,148.55
748,1.2446,148.55
749,1.246267,148.594
750,1.247917,148.535
751,1.249583,148.952
752,1.25125,148.952
753,1.252917,148.736
754,1.254583,148.714
755,1.25625,148.714
756,1.257917,148.267
757,1.259583,148.021
758,1.26125,148.267
759,1.262917,148.267
760,1.264583,148.199
761,1.26625,148.11
762,1.267917,148.229
763,1.269583,148.229
764,1.27125,148.065
765,1.272917,148.08
766,1.274583,148.14
767,1.27625,148.14
768,1.277917,148.028
769,1.279583,148.162
770,1.281267,148.244
771,1.282917,148.244
772,1.284583,148.505
773,1.28625,148.423
774,1.287917,148.423
775,1.289583,148.192
776,1.29125,148.237
777,1.292917,148.17
778,1.294617,148.17
779,1.29625,148.296
780,1.297917,148.281
781,1.299583,148.244
782,1.30125,148.244
783,1.302917,148.14
784,1.304583,148.185
785,1.30625,148.386
786,1.3079,148.386
787,1.309567,148.08
788,1.311317,147.879
789,1.3129,147.879
790,1.314567,147.596
791,1.316233,147.454
792,1.3179,147.603
793,1.319567,147.603
794,1.321233,147.864
795,1.3229,147.976
796,1.324567,148.013
797,1.326233,148.013
798,1.328017,148.021
799,1.329567,148.14
800,1.331233,147.812
801,1.3329,147.812
802,1.334567,147.521
803,1.336233,147.462
804,1.337917,147.015
805,1.339567,147.015
806,1.341233,147.372
807,1.3429,147.529
808,1.344567,147.529
809,1.346233,147.246
810,1.3479,147.246
811,1.349567,147.194
812,1.351233,147.194
813,1.3529,147.298
814,1.354567,147.797
815,1.356233,147.894
816,1.3579,147.894
817,1.359567,147.991
818,1.361233,147.633
819,1.3629,147.335
820,1.364567,147.335
821,1.366233,147.41
822,1.367883,147.238
823,1.369583,147.238
824,1.371217,147.112
825,1.372883,146.799
826,1.37455,146.583
827,1.376217,146.583
828,1.377883,146.568
829,1.37955,146.888
830,1.381217,147.38
831,1.382883,147.38
832,1.38455,147.432
833,1.3862,147.238
834,1.387867,147.335
835,1.389533,147.335
836,1.3912,147.097
837,1.392867,147.291
838,1.394533,147.291
839,1.3962,147.179
840,1.397867,147.149
841,1.399533,146.963
842,1.4012,146.963
843,1.402867,146.724
844,1.404533,146.97
845,1.4062,146.62
846,1.407867,146.62
847,1.409533,146.948
848,1.4112,146.858
849,1.412883,146.791
850,1.414533,146.791
851,1.4162,146.911
852,1.417867,146.717
853,1.419533,146.598
854,1.4212,146.598
855,1.422867,146.523
856,1.424533,146.478
857,1.4262,146.478
858,1.42785,146.292
859,1.429633,146.456
860,1.431183,146.471
861,1.43285,146.471
862,1.434517,146.613
863,1.436183,146.843
864,1.43785,146.993
865,1.439517,146.993
866,1.441183,146.858
867,1.44285,146.739
868,1.444517,146.836
869,1.4463,146.836
870,1.44785,146.762
871,1.449517,146.784
872,1.451183,146.784
873,1.45285,146.918
874,1.454517,146.516
875,1.456183,146.426
876,1.45785,146.426
877,1.459517,146.426
878,1.461183,146.158
879,1.462967,146.367
880,1.464517,146.367
881,1.466183,146.605
882,1.46785,146.583
883,1.469517,146.836
884,1.471183,146.836
885,1.47285,146.694
886,1.474517,146.039
887,1.476183,145.771
888,1.47785,145.771
889,1.479533,145.443
890,1.481183,145.525
891,1.48285,145.525
892,1.484517,146.203
893,1.486167,146.598
894,1.487833,146.858
895,1.4895,146.858
896,1.491167,146.829
897,1.492833,146.441
898,1.4945,146.471
899,1.496167,146.471
900,1.497833,146.404
901,1.4995,146.262
902,1.501167,146.128
903,1.502833,146.128
904,1.5045,146.158
905,1.506167,145.927
906,1.507833,145.927
907,1.5095,145.786
908,1.511167,145.905
909,1.512833,145.517
910,1.5145,145.517
911,1.516167,145.398
912,1.517833,145.584
913,1.5195,145.324
914,1.521167,145.324
915,1.522833,145.383
916,1.5245,145.391
917,1.526167,145.391
918,1.527833,145.391
919,1.5295,145.592
920,1.531167,145.8
921,1.532833,145.979
922,1.5345,145.979
923,1.536167,145.942
924,1.537833,146.098
925,1.5395,146.098
926,1.541167,145.681
927,1.542833,145.569
928,1.5445,145.607
929,1.54615,145.607
930,1.547933,145.562
931,1.549483,145.577
932,1.55115,145.257
933,1.552817,145.257
934,1.554483,144.921
935,1.55615,144.809
936,1.557817,145.249
937,1.559483,145.249
938,1.56115,145.435
939,1.562817,145.614
940,1.56455,145.614
941,1.566167,145.726
942,1.567817,145.286
943,1.569483,145.376
944,1.57115,145.376
945,1.572817,145.376
946,1.574483,145.085
947,1.57615,145.115
948,1.577817,145.115
949,1.579483,145.286
950,1.58125,145.227
951,1.582817,145.249
952,1.584483,145.249
953,1.58615,145.242
954,1.587817,145.189
955,1.589483,145.338
956,1.59115,145.338
957,1.592817,145.391
958,1.594483,145.577
959,1.59615,145.577
960,1.597817,145.51
961,1.599483,145.316
962,1.60115,145.279
963,1.602817,145.279
