"ID","sea_time","fid_signal"
1,0,1170.337
2,0.001667,1172.2
3,0.003333,1171.455
4,0.005,1171.455
5,0.006667,1169.518
6,0.008399999999999999,1169.816
7,0.01,1170.263
8,0.011667,1170.263
9,0.013333,1173.765
10,0.015,1173.69
11,0.016667,1170.933
12,0.018333,1170.933
13,0.02,1168.698
14,0.021667,1168.773
15,0.023333,1168.773
16,0.025083,1171.38
17,0.026667,1175.18
18,0.028333,1177.341
19,0.03,1177.341
20,0.031667,1173.988
21,0.033317,1173.69
22,0.034983,1171.678
23,0.03665,1171.678
24,0.038317,1168.922
25,0.039983,1172.87
26,0.041733,1173.168
27,0.043317,1173.168
28,0.045,1173.839
29,0.04665,1176.298
30,0.048317,1176.298
31,0.049983,1173.168
32,0.05165,1172.423
33,0.053317,1173.317
34,0.054983,1173.317
35,0.05665,1170.114
36,0.058317,1170.933
37,0.059983,1169.592
38,0.061683,1169.592
39,0.063317,1168.996
40,0.064983,1169.965
41,0.06665,1170.71
42,0.068317,1170.71
43,0.069983,1171.008
44,0.07165000000000001,1170.486
45,0.07331699999999999,1171.231
46,0.07498299999999999,1171.231
47,0.07665,1169.369
48,0.078317,1169.294
49,0.079983,1169.294
50,0.08165,1169.518
51,0.083317,1169.369
52,0.084983,1169.89
53,0.08665,1169.89
54,0.08831700000000001,1170.859
55,0.08998299999999999,1169.518
56,0.09165,1167.432
57,0.09329999999999999,1167.432
58,0.094967,1165.42
59,0.096633,1164.451
60,0.0983,1165.867
61,0.099967,1165.867
62,0.101633,1168.847
63,0.103317,1172.274
64,0.104967,1172.274
65,0.106633,1172.796
66,0.1083,1174.286
67,0.109983,1176.894
68,0.111633,1176.894
69,0.1133,1175.18
70,0.114967,1176.372
71,0.116633,1173.988
72,0.1183,1173.988
73,0.119967,1170.188
74,0.121617,1170.933
75,0.123283,1168.4
76,0.12495,1168.4
77,0.126667,1171.529
78,0.128283,1172.796
79,0.12995,1172.796
80,0.131617,1173.317
81,0.133283,1173.839
82,0.13495,1172.572
83,0.136617,1172.572
84,0.138283,1172.572
85,0.13995,1174.063
86,0.141617,1177.341
87,0.143367,1177.341
88,0.14495,1175.627
89,0.146617,1173.392
90,0.148283,1171.753
91,0.14995,1171.753
92,0.151617,1169.89
93,0.153267,1172.274
94,0.154933,1175.925
95,0.1566,1175.925
96,0.158267,1176.596
97,0.160067,1178.756
98,0.1616,1178.756
99,0.163267,1179.427
100,0.164933,1175.329
101,0.1666,1174.435
102,0.168267,1174.435
103,0.169933,1173.541
104,0.1716,1171.231
105,0.173267,1170.561
106,0.174933,1170.561
107,0.1766,1168.177
108,0.178267,1167.804
109,0.179933,1167.282
110,0.1816,1167.282
111,0.183283,1169.518
112,0.184933,1171.38
113,0.1866,1171.38
114,0.188267,1170.859
115,0.189933,1170.561
116,0.1916,1168.549
117,0.193267,1168.549
118,0.194933,1169.369
119,0.1966,1170.188
120,0.198267,1170.784
121,0.199933,1170.784
122,0.2016,1171.455
123,0.203267,1169.443
124,0.204933,1166.686
125,0.2066,1166.686
126,0.208267,1169.071
127,0.209933,1172.572
128,0.211583,1172.349
129,0.21325,1172.349
130,0.214917,1173.988
131,0.216583,1172.274
132,0.21825,1172.274
133,0.219917,1169.816
134,0.221583,1170.412
135,0.22325,1169.816
136,0.224967,1169.816
137,0.226583,1171.678
138,0.22825,1169.965
139,0.229917,1172.87
140,0.231583,1172.87
141,0.23325,1173.615
142,0.234917,1173.988
143,0.236583,1176.596
144,0.23825,1176.596
145,0.239917,1175.553
146,0.241583,1174.807
147,0.24325,1174.807
148,0.244917,1171.753
149,0.246583,1174.659
150,0.24825,1174.137
151,0.249917,1174.137
152,0.251583,1175.851
153,0.253267,1177.788
154,0.254917,1175.851
155,0.256583,1175.851
156,0.25825,1175.925
157,0.259917,1174.212
158,0.2616,1173.466
159,0.26325,1173.466
160,0.264917,1170.933
161,0.266583,1172.125
162,0.26825,1171.008
163,0.269917,1171.008
164,0.271583,1168.847
165,0.273233,1170.039
166,0.2749,1170.039
167,0.276567,1168.996
168,0.27835,1168.177
169,0.2799,1172.349
170,0.281567,1172.349
171,0.283233,1172.721
172,0.2849,1175.255
173,0.286567,1176.596
174,0.288233,1176.596
175,0.2899,1173.466
176,0.291567,1174.882
177,0.293233,1172.125
178,0.2949,1172.125
179,0.296567,1174.435
180,0.298233,1175.627
181,0.2999,1175.627
182,0.301567,1175.329
183,0.303233,1174.882
184,0.3049,1172.647
185,0.306567,1172.647
186,0.308233,1171.604
187,0.3099,1170.188
188,0.311583,1170.188
189,0.313233,1170.188
190,0.3149,1172.349
191,0.316567,1173.466
192,0.318233,1172.498
193,0.3199,1172.498
194,0.321567,1171.008
195,0.323233,1169.965
196,0.324917,1172.125
197,0.326567,1172.125
198,0.328233,1178.086
199,0.3299,1182.333
200,0.331567,1182.333
201,0.333217,1184.717
202,0.334883,1189.113
203,0.33655,1192.54
204,0.338217,1192.54
205,0.339883,1199.618
206,0.34155,1211.241
207,0.343217,1221.746
208,0.344883,1221.746
209,0.34655,1236.051
210,0.348217,1251.101
211,0.349883,1266.152
212,0.35155,1266.152
213,0.353217,1284.257
214,0.354883,1307.428
215,0.35655,1307.428
216,0.358217,1339.838
217,0.359883,1377.165
218,0.36155,1423.433
219,0.363283,1423.433
220,0.364883,1471.192
221,0.36655,1522.005
222,0.368217,1582.429
223,0.369883,1582.429
224,0.37155,1647.323
225,0.373217,1719.892
226,0.374883,1799.092
227,0.37655,1799.092
228,0.378217,1885.965
229,0.379883,1976.639
230,0.38155,1976.639
231,0.383217,2078.936
232,0.384883,2191.439
233,0.38655,2307.892
234,0.388217,2307.892
235,0.389883,2439.395
236,0.39155,2573.356
237,0.393217,2717.301
238,0.394867,2717.301
239,0.396667,2874.956
240,0.3982,3038.496
241,0.399867,3219.321
242,0.401583,3219.321
243,0.40325,3410.28
244,0.404867,3616.512
245,0.406533,3848.299
246,0.4082,3848.299
247,0.409867,4101.247
248,0.411533,4393.086
249,0.413183,4393.086
250,0.41485,4730.672
251,0.416517,5118.549
252,0.418183,5582.049
253,0.41985,5582.049
254,0.421517,6135.181
255,0.423183,6800.592
256,0.42485,7609.725
257,0.426517,7609.725
258,0.428183,8589.326999999999
259,0.42985,9768.456
260,0.431517,11182.8
261,0.433183,11182.8
262,0.43485,12868.494
263,0.436517,14859.811
264,0.438183,14859.811
265,0.43985,17192.363
266,0.441517,19897.67
267,0.443183,22996.516
268,0.44485,22996.516
269,0.446517,26501.492
270,0.448183,30413.941
271,0.44985,34710.469
272,0.451517,34710.469
273,0.453183,39344.652
274,0.454833,44253.543
275,0.4565,49349.59
276,0.458167,49349.59
277,0.459833,54527.746
278,0.4615,59687.195
279,0.463167,64717.457
280,0.464833,64717.457
281,0.4665,69512.648
282,0.468183,73974.42999999999
283,0.4699,73974.42999999999
284,0.4715,78017.859
285,0.473167,81569.477
286,0.474833,84570.5
287,0.4765,84570.5
288,0.478167,86983.29700000001
289,0.479833,88783.20299999999
290,0.481567,89969.18799999999
291,0.483167,89969.18799999999
292,0.484833,90549.664
293,0.4865,90549.289
294,0.488167,90002.789
295,0.489833,90002.789
296,0.4915,88953.07799999999
297,0.493167,87452.156
298,0.494833,87452.156
299,0.4965,85558.891
300,0.498167,83328.859
301,0.499833,80812.125
302,0.5014999999999999,80812.125
303,0.503167,78073.07000000001
304,0.504833,75159.594
305,0.5065,72122.664
306,0.508167,72122.664
307,0.509833,69011.227
308,0.5115,65860.602
309,0.51315,62706.621
310,0.514933,62706.621
311,0.516483,59582.367
312,0.51815,56514.891
313,0.519817,56514.891
314,0.521483,53520.574
315,0.52315,50618.129
316,0.524817,47824.234
317,0.526483,47824.234
318,0.52815,45148.879
319,0.529817,42599.664
320,0.531483,40181.652
321,0.53315,40181.652
322,0.534817,37890.746
323,0.536483,35728.738
324,0.53815,33694.133
325,0.539817,33694.133
326,0.541483,31783.73
327,0.543167,29997.006
328,0.544817,28323.232
329,0.546517,28323.232
330,0.54815,26760.92
331,0.549817,25306.568
332,0.5514829999999999,25306.568
333,0.55315,23947.582
334,0.554817,22680.09
335,0.5564829999999999,21496.861
336,0.55815,21496.861
337,0.559817,20392.91
338,0.561483,19362.941
339,0.56315,18402.264
340,0.564817,18402.264
341,0.566483,17507.225
342,0.56815,16667.246
343,0.569817,15885.233
344,0.571483,15885.233
345,0.573133,15153.587
346,0.5748,14469.4
347,0.576467,14469.4
348,0.578133,13830.587
349,0.5798,13228.804
350,0.581467,12663.305
351,0.583133,12663.305
352,0.5848,12130.29
353,0.586467,11625.662
354,0.588133,11152.699
355,0.5898,11152.699
356,0.591467,10705.665
357,0.593133,10284.558
358,0.5948,9891.316000000001
359,0.596467,9891.316000000001
360,0.598133,9517.744000000001
361,0.5998,9166.076999999999
362,0.601467,8830.056
363,0.603133,8830.056
364,0.6048,8511.245000000001
365,0.606467,8208.528
366,0.608133,8208.528
367,0.6098,7922.053
368,0.611467,7652.044
369,0.613133,7394.627
370,0.6148,7394.627
371,0.616467,7152.707
372,0.618133,6921.813
373,0.6198,6703.288
374,0.621467,6703.288
375,0.623133,6495.565
376,0.6248,6293.505
377,0.626467,6099.939
378,0.6281330000000001,6099.939
379,0.6298,5915.91
380,0.63145,5738.661
381,0.633233,5570.203
382,0.634783,5570.203
383,0.63645,5411.059
384,0.638117,5259.514
385,0.639783,5259.514
386,0.64145,5115.271
387,0.643117,4978.776
388,0.644783,4844.963
389,0.64645,4844.963
390,0.6481170000000001,4713.312
391,0.649783,4588.216
392,0.65145,4464.313
393,0.6531169999999999,4464.313
394,0.654783,4347.041
395,0.65645,4239.753
396,0.658117,4133.433
397,0.659783,4133.433
398,0.66145,4031.658
399,0.663117,3932.938
400,0.664783,3932.938
401,0.66645,3832.132
402,0.668117,3739.446
403,0.669783,3654.063
404,0.67145,3654.063
405,0.673117,3572.777
406,0.674783,3496.632
407,0.67645,3419.295
408,0.678117,3419.295
409,0.679783,3344.566
410,0.68145,3272.22
411,0.683117,3201.514
412,0.684783,3201.514
413,0.68645,3135.875
414,0.688117,3071.874
415,0.689783,3071.874
416,0.69145,3008.619
417,0.6931,2950.281
418,0.694767,2893.209
419,0.696433,2893.209
420,0.6981000000000001,2836.51
421,0.699767,2782.643
422,0.701433,2728.179
423,0.7030999999999999,2728.179
424,0.70475,2673.566
425,0.706417,2623.424
426,0.708083,2577.677
427,0.70975,2577.677
428,0.711417,2533.346
429,0.713083,2492.89
430,0.71475,2492.89
431,0.716417,2448.708
432,0.7181,2406.985
433,0.71975,2364.516
434,0.721417,2364.516
435,0.723083,2324.06
436,0.72475,2289.936
437,0.726417,2252.758
438,0.728083,2252.758
439,0.72975,2219.304
440,0.731417,2186.447
441,0.733083,2156.124
442,0.73475,2156.124
443,0.736417,2130.419
444,0.738083,2102.405
445,0.73975,2077.147
446,0.741417,2077.147
447,0.743083,2046.227
448,0.74475,2015.159
449,0.746417,2015.159
450,0.7480830000000001,1989.156
451,0.74975,1958.758
452,0.7514999999999999,1935.363
453,0.753067,1935.363
454,0.754733,1913.16
455,0.7564,1890.957
456,0.758067,1871.437
457,0.759733,1871.437
458,0.7614,1849.011
459,0.7630670000000001,1825.392
460,0.76475,1803.339
461,0.766483,1803.339
462,0.7680670000000001,1782.924
463,0.769733,1763.701
464,0.7714,1763.701
465,0.7730669999999999,1746.044
466,0.774733,1729.131
467,0.7764,1711.026
468,0.778067,1711.026
469,0.779733,1695.156
470,0.7814,1679.435
471,0.783067,1663.789
472,0.784733,1663.789
473,0.7864,1651.794
474,0.788067,1637.563
475,0.789733,1623.854
476,0.7914,1623.854
477,0.793067,1608.729
478,0.794733,1595.691
479,0.7964,1586.005
480,0.798067,1586.005
481,0.799733,1576.915
482,0.8014,1569.837
483,0.803067,1569.837
484,0.804733,1558.438
485,0.8064,1545.995
486,0.808067,1534.224
487,0.809733,1534.224
488,0.8114,1524.538
489,0.8130500000000001,1515.821
490,0.814717,1507.625
491,0.816383,1507.625
492,0.8180500000000001,1499.727
493,0.819717,1489.669
494,0.821383,1476.929
495,0.8230499999999999,1476.929
496,0.824717,1464.188
497,0.826383,1455.024
498,0.828067,1455.024
499,0.829783,1445.04
500,0.831383,1439.974
501,0.83305,1434.535
502,0.834717,1434.535
503,0.836383,1427.531
504,0.83805,1422.837
505,0.839717,1415.759
506,0.841383,1415.759
507,0.84305,1408.681
508,0.8447170000000001,1401.603
509,0.846383,1394.376
510,0.84805,1394.376
511,0.8497169999999999,1387.149
512,0.851383,1382.306
513,0.8531,1376.271
514,0.8547169999999999,1376.271
515,0.856383,1367.331
516,0.85805,1360.7
517,0.859717,1360.7
518,0.861383,1355.037
519,0.86305,1350.79
520,0.864717,1350.343
521,0.866383,1350.343
522,0.86805,1347.81
523,0.869733,1344.979
524,0.871367,1340.657
525,0.8730329999999999,1340.657
526,0.8747,1334.846
527,0.876367,1330.599
528,0.878033,1323.521
529,0.8797,1323.521
530,0.881367,1318.455
531,0.883033,1317.412
532,0.8847,1317.412
533,0.886417,1315.325
534,0.888033,1313.91
535,0.8897,1313.835
536,0.891367,1313.835
537,0.893033,1309.44
538,0.8947000000000001,1308.024
539,0.896367,1306.683
540,0.898033,1306.683
541,0.8997000000000001,1300.499
542,0.901383,1297.444
543,0.90305,1291.335
544,0.9046999999999999,1291.335
545,0.906367,1286.939
546,0.908033,1284.108
547,0.909717,1279.116
548,0.911367,1279.116
549,0.913033,1278.892
550,0.9147,1276.955
551,0.916367,1276.955
552,0.918033,1276.284
553,0.9197,1275.316
554,0.921367,1272.261
555,0.923033,1272.261
556,0.9247,1270.995
557,0.9263670000000001,1270.398
558,0.928033,1268.759
559,0.9297,1268.759
560,0.9313669999999999,1265.779
561,0.933017,1262.575
562,0.934683,1262.054
563,0.93635,1262.054
564,0.938017,1260.415
565,0.939683,1259.297
566,0.94135,1259.297
567,0.943017,1257.286
568,0.9446830000000001,1255.348
569,0.94635,1255.646
570,0.948017,1255.646
571,0.9496830000000001,1255.199
572,0.95135,1257.36
573,0.953017,1253.486
574,0.9547330000000001,1253.486
575,0.95635,1251.921
576,0.958017,1251.176
577,0.959683,1248.866
578,0.96135,1248.866
579,0.963017,1248.643
580,0.964683,1244.992
581,0.96635,1244.992
582,0.968017,1242.906
583,0.9697170000000001,1241.118
584,0.9714,1238.734
585,0.973017,1238.734
586,0.974683,1238.063
587,0.9763500000000001,1237.467
588,0.978017,1236.349
589,0.979683,1236.349
590,0.9813499999999999,1236.051
591,0.983017,1235.902
592,0.984683,1231.506
593,0.9863499999999999,1231.506
594,0.988067,1231.134
595,0.989683,1230.314
596,0.99135,1228.228
597,0.993,1228.228
598,0.994667,1228.899
599,0.996317,1228.675
600,0.997983,1228.675
601,0.99965,1227.781
602,1.001317,1228.005
603,1.002983,1228.452
604,1.004783,1228.452
605,1.006317,1227.111
606,1.007983,1225.323
607,1.00965,1223.534
608,1.011317,1223.534
609,1.012983,1221.15
610,1.01465,1216.307
611,1.016317,1215.86
612,1.017983,1215.86
613,1.01965,1218.021
614,1.021317,1218.84
615,1.022983,1218.84
616,1.02465,1220.554
617,1.026317,1220.331
618,1.027983,1217.872
619,1.02965,1217.872
620,1.031317,1214.892
621,1.032983,1213.774
622,1.03465,1210.868
623,1.036317,1210.868
624,1.037983,1210.198
625,1.03965,1212.954
626,1.041317,1214.445
627,1.042983,1214.445
628,1.04465,1217.723
629,1.046317,1216.382
630,1.047983,1212.284
631,1.04965,1212.284
632,1.0513,1209.08
633,1.052967,1207.888
634,1.054633,1207.888
635,1.0563,1208.186
636,1.057967,1210.198
637,1.059633,1211.613
638,1.0613,1211.613
639,1.062967,1210.272
640,1.064633,1209.304
641,1.0663,1207.516
642,1.067967,1207.516
643,1.069633,1206.398
644,1.0713,1204.386
645,1.072967,1206.696
646,1.074633,1206.696
647,1.0763,1204.982
648,1.077967,1204.312
649,1.079633,1204.312
650,1.0813,1206.1
651,1.082967,1202.3
652,1.08465,1203.865
653,1.0863,1203.865
654,1.087967,1203.865
655,1.0897,1202.449
656,1.0913,1202.971
657,1.092967,1202.971
658,1.094633,1203.045
659,1.0963,1201.704
660,1.097967,1201.406
661,1.099633,1201.406
662,1.1013,1200.512
663,1.102967,1202.226
664,1.104633,1202.226
665,1.10635,1203.269
666,1.107967,1205.28
667,1.109633,1205.131
668,1.111317,1205.131
669,1.11295,1202.449
670,1.114617,1201.853
671,1.116283,1202.077
672,1.11795,1202.077
673,1.119617,1202.375
674,1.121283,1200.438
675,1.123083,1201.257
676,1.124617,1201.257
677,1.126283,1199.022
678,1.12795,1199.543
679,1.129617,1201.779
680,1.131283,1201.779
681,1.13295,1199.916
682,1.134617,1198.947
683,1.136283,1198.947
684,1.13795,1197.681
685,1.139617,1197.532
686,1.141283,1196.563
687,1.142967,1196.563
688,1.144617,1195.595
689,1.146283,1196.489
690,1.14795,1196.936
691,1.149617,1196.936
692,1.151283,1198.128
693,1.15295,1197.159
694,1.154617,1193.434
695,1.156283,1193.434
696,1.15795,1192.242
697,1.159617,1189.113
698,1.161283,1189.113
699,1.16295,1192.018
700,1.164617,1195.967
701,1.166283,1195.818
702,1.16795,1195.818
703,1.169617,1197.681
704,1.171283,1195.967
705,1.172933,1196.414
706,1.1746,1196.414
707,1.176267,1194.104
708,1.177933,1192.614
709,1.1796,1192.912
710,1.181283,1192.912
711,1.182933,1191.497
712,1.1846,1194.999
713,1.186267,1194.999
714,1.187933,1194.999
715,1.1896,1195.073
716,1.191267,1193.807
717,1.192933,1193.807
718,1.1946,1193.062
719,1.196267,1196.265
720,1.197933,1195.893
721,1.1996,1195.893
722,1.201267,1196.191
723,1.202933,1196.787
724,1.2046,1193.807
725,1.206267,1193.807
726,1.207983,1192.316
727,1.2096,1192.763
728,1.211267,1190.677
729,1.212933,1190.677
730,1.2146,1192.018
731,1.216267,1190.901
732,1.217933,1190.901
733,1.219617,1187.921
734,1.221267,1189.56
735,1.222933,1188.517
736,1.2246,1188.517
737,1.226267,1191.795
738,1.227933,1195.148
739,1.2296,1192.018
740,1.231267,1192.018
741,1.232917,1191.199
742,1.2346,1188.964
743,1.23625,1187.026
744,1.237917,1187.026
745,1.239583,1189.187
746,1.241383,1189.858
747,1.242917,1190.23
748,1.244583,1190.23
749,1.24625,1190.305
750,1.247917,1189.709
751,1.249583,1189.709
752,1.25125,1188.517
753,1.252917,1186.654
754,1.254583,1185.238
755,1.25625,1185.238
756,1.257933,1183.599
757,1.259583,1186.43
758,1.26125,1190.305
759,1.262917,1190.305
760,1.264583,1191.646
761,1.26625,1191.944
762,1.267917,1188.517
763,1.269583,1188.517
764,1.27125,1187.324
765,1.272917,1187.474
766,1.274583,1187.474
767,1.27625,1187.399
768,1.277917,1189.783
769,1.279583,1189.932
770,1.28125,1189.932
771,1.282917,1190.975
772,1.284583,1190.826
773,1.28625,1187.324
774,1.2879,1187.324
775,1.289567,1185.015
776,1.291233,1186.356
777,1.292883,1187.026
778,1.29455,1187.026
779,1.296217,1191.497
780,1.297883,1194.775
781,1.29955,1194.775
782,1.301217,1192.093
783,1.302883,1190.23
784,1.30455,1187.846
785,1.306217,1187.846
786,1.307883,1187.474
787,1.30955,1189.262
788,1.311217,1192.763
789,1.312883,1192.763
790,1.31455,1196.265
791,1.316217,1192.987
792,1.317883,1190.305
793,1.31955,1190.305
794,1.321217,1189.187
795,1.322883,1185.164
796,1.32455,1188.368
797,1.326233,1188.368
798,1.327883,1188.964
799,1.32955,1186.579
800,1.331217,1186.579
801,1.332883,1188.219
802,1.33455,1185.089
803,1.336217,1183.674
804,1.337883,1183.674
805,1.33955,1184.791
806,1.341217,1185.909
807,1.342883,1186.43
808,1.34455,1186.43
809,1.346217,1187.399
810,1.347883,1186.058
811,1.34955,1183.301
812,1.351217,1183.301
813,1.352867,1184.344
814,1.354533,1186.132
815,1.3562,1186.132
816,1.357867,1189.262
817,1.35965,1189.858
818,1.3612,1187.995
819,1.362867,1187.995
820,1.364533,1184.344
821,1.3662,1181.141
822,1.367867,1181.439
823,1.369533,1181.439
824,1.3712,1180.768
825,1.372867,1178.756
826,1.374533,1181.96
827,1.3762,1181.96
828,1.377867,1182.407
829,1.379533,1183.376
830,1.3812,1186.803
831,1.382867,1186.803
832,1.384533,1183.972
833,1.3862,1182.258
834,1.387867,1182.258
835,1.389533,1181.96
836,1.3912,1182.631
837,1.392867,1182.854
838,1.394533,1182.854
839,1.3962,1184.866
840,1.397867,1184.791
841,1.39955,1183.376
842,1.4012,1183.376
843,1.402867,1183.599
844,1.404533,1183.525
845,1.4062,1185.834
846,1.407867,1185.834
847,1.409533,1188.591
848,1.411183,1188.442
849,1.41285,1188.442
850,1.414517,1184.121
851,1.416183,1183.227
852,1.41785,1182.035
853,1.419517,1182.035
854,1.421183,1181.96
855,1.42285,1187.25
856,1.424517,1188.293
857,1.426183,1188.293
858,1.42785,1186.654
859,1.429517,1186.132
860,1.431183,1182.854
861,1.43285,1182.854
862,1.434517,1182.556
863,1.436183,1181.439
864,1.43785,1182.631
865,1.439517,1182.631
866,1.441183,1183.823
867,1.44285,1183.301
868,1.444567,1183.301
869,1.446183,1187.101
870,1.44785,1186.207
871,1.449517,1187.697
872,1.451183,1187.697
873,1.45285,1189.485
874,1.454517,1187.474
875,1.456183,1187.921
876,1.45785,1187.921
877,1.459517,1184.121
878,1.4612,1180.172
879,1.462867,1179.501
880,1.464517,1179.501
881,1.466183,1180.545
882,1.467867,1182.258
883,1.469567,1182.929
884,1.471183,1182.929
885,1.472833,1183.152
886,1.4745,1181.29
887,1.476167,1181.29
888,1.477967,1183.45
889,1.4795,1183.897
890,1.481167,1183.525
891,1.482833,1183.525
892,1.4845,1182.929
893,1.486167,1180.768
894,1.48785,1181.364
895,1.4895,1181.364
896,1.491167,1183.376
897,1.492833,1184.568
898,1.4945,1184.344
899,1.496167,1184.344
900,1.497833,1184.493
901,1.4995,1182.333
902,1.501167,1182.333
903,1.502833,1184.866
904,1.5045,1184.121
905,1.506167,1182.556
906,1.507833,1182.556
907,1.5095,1182.556
908,1.511167,1181.439
