"ID","sea_time","fid_signal"
1,0,150.047
2,0.001667,150.114
3,0.003333,150.003
4,0.005067,150.003
5,0.006667,149.697
6,0.008333,148.721
7,0.01,148.721
8,0.011667,147.767
9,0.013333,147.179
10,0.014983,147.082
11,0.01665,147.082
12,0.018317,147.313
13,0.019983,147.656
14,0.02165,147.991
15,0.023317,147.991
16,0.024983,147.894
17,0.02665,147.916
18,0.028317,147.894
19,0.029983,147.894
20,0.03165,147.946
21,0.033317,147.991
22,0.034983,147.969
23,0.03665,147.969
24,0.038317,147.954
25,0.039983,147.7
26,0.04165,147.7
27,0.043317,147.641
28,0.044983,147.648
29,0.04665,147.693
30,0.048317,147.693
31,0.049983,147.991
32,0.05165,148.185
33,0.053317,148.274
34,0.054983,148.274
35,0.05665,148.259
36,0.058317,148.289
37,0.059983,148.237
38,0.06165,148.237
39,0.063317,148.103
40,0.065,148.252
41,0.06665,148.252
42,0.068317,148.207
43,0.069983,148.177
44,0.07165000000000001,148.311
45,0.07331699999999999,148.311
46,0.07496700000000001,148.229
47,0.07663300000000001,148.214
48,0.07829999999999999,148.244
49,0.079967,148.244
50,0.081633,148.304
51,0.0833,148.11
52,0.084967,147.976
53,0.086633,147.976
54,0.0883,147.983
55,0.090017,147.805
56,0.09163300000000001,147.775
57,0.09329999999999999,147.775
58,0.09495000000000001,147.916
59,0.09661699999999999,147.939
60,0.098283,147.939
61,0.09995,148.088
62,0.101617,148.371
63,0.103283,148.155
64,0.10495,148.155
65,0.106617,147.998
66,0.108283,147.901
67,0.10995,147.857
68,0.111617,147.857
69,0.113283,148.043
70,0.11495,148.475
71,0.116617,148.669
72,0.118283,148.669
73,0.11995,148.773
74,0.121617,148.661
75,0.123383,148.125
76,0.12495,148.125
77,0.126617,148.058
78,0.128283,148.199
79,0.12995,148.199
80,0.131617,148.192
81,0.133283,148.304
82,0.134933,148.289
83,0.1366,148.289
84,0.138267,148.319
85,0.139933,148.393
86,0.1416,148.363
87,0.143267,148.363
88,0.144933,148.289
89,0.1466,148.222
90,0.148267,148.222
91,0.149933,148.319
92,0.1516,148.147
93,0.153267,148.229
94,0.154933,148.229
95,0.156617,148.095
96,0.158267,147.976
97,0.159933,148.252
98,0.1616,148.252
99,0.163267,148.08
100,0.164933,148.088
101,0.1666,148.103
102,0.168267,148.103
103,0.169933,147.946
104,0.1716,147.998
105,0.173267,148.125
106,0.174933,148.125
107,0.1766,148.177
108,0.178267,148.617
109,0.179933,148.617
110,0.1816,148.714
111,0.183267,148.624
112,0.184933,148.587
113,0.1866,148.587
114,0.188267,148.416
115,0.189933,148.326
116,0.191583,148.058
117,0.19325,148.058
118,0.194917,147.887
119,0.196583,147.782
120,0.19825,147.752
121,0.199917,147.752
122,0.201583,147.827
123,0.20325,148.311
124,0.204917,148.311
125,0.206583,148.296
126,0.208317,148.311
127,0.209917,148.304
128,0.211583,148.304
129,0.21325,148.162
130,0.214917,148.267
131,0.216583,148.237
132,0.21825,148.237
133,0.219917,148.453
134,0.221583,148.326
135,0.22325,148.207
136,0.224917,148.207
137,0.226583,148.416
138,0.22825,148.222
139,0.229917,148.073
140,0.231583,148.073
141,0.23325,148.214
142,0.234917,148.252
143,0.236583,148.252
144,0.23825,148.341
145,0.239917,148.386
146,0.24165,148.326
147,0.24325,148.326
148,0.244917,148.192
149,0.246583,148.401
150,0.24825,148.416
151,0.249917,148.416
152,0.251583,148.319
153,0.25325,148.267
154,0.2549,147.916
155,0.256567,147.916
156,0.258233,147.693
157,0.2599,147.685
158,0.261567,147.685
159,0.263233,147.723
160,0.2649,147.901
161,0.266567,148.162
162,0.26825,148.162
163,0.2699,148.445
164,0.271567,148.363
165,0.273233,148.244
166,0.2749,148.244
167,0.276567,148.11
168,0.278233,147.641
169,0.2799,147.417
170,0.281567,147.417
171,0.283233,147.313
172,0.2849,147.343
173,0.286567,147.291
174,0.288233,147.291
175,0.2899,147.283
176,0.291567,147.149
177,0.293233,147.149
178,0.2949,147.194
179,0.296567,147.253
180,0.298233,147.164
181,0.2999,147.164
182,0.301567,147.194
183,0.303233,147.052
184,0.3049,147.358
185,0.306567,147.358
186,0.308233,147.894
187,0.3099,148.222
188,0.311567,148.274
189,0.313233,148.274
190,0.3149,148.177
191,0.31655,148.103
192,0.318217,148.103
193,0.319883,148.028
194,0.32155,148.341
195,0.323233,148.371
196,0.324883,148.371
197,0.326617,148.699
198,0.328233,149.243
199,0.329883,149.727
200,0.33155,149.727
201,0.333217,150.718
202,0.334883,151.731
203,0.33655,153.176
204,0.338217,153.176
205,0.339883,155.382
206,0.34155,158.273
207,0.343217,162.147
208,0.344883,162.147
209,0.34655,166.93
210,0.348217,172.704
211,0.349883,172.704
212,0.35155,179.872
213,0.353217,188.485
214,0.354883,199.251
215,0.356567,199.251
216,0.358217,212.483
217,0.360017,227.749
218,0.36155,245.787
219,0.363217,245.787
220,0.364883,266.127
221,0.36655,289.917
222,0.368217,317.454
223,0.369883,317.454
224,0.37155,348.866
225,0.373217,385.225
226,0.374867,385.225
227,0.376533,426.33
228,0.3782,473.298
229,0.379867,526.8680000000001
230,0.381533,526.8680000000001
231,0.3832,588.231
232,0.384867,658.289
233,0.386517,738.978
234,0.388183,738.978
235,0.38985,832.766
236,0.391517,942.29
237,0.393183,1071.587
238,0.39485,1071.587
239,0.396517,1224.816
240,0.398183,1406.908
241,0.399867,1406.908
242,0.401517,1623.713
243,0.403183,1881.167
244,0.40485,2186.127
245,0.406517,2186.127
246,0.408183,2544.843
247,0.40985,2963.625
248,0.411517,3446.951
249,0.413183,3446.951
250,0.41485,3998.682
251,0.416517,4620.857
252,0.418183,5313.762
253,0.41985,5313.762
254,0.421517,6077.141
255,0.423183,6908.275
256,0.42485,7803.567
257,0.426517,7803.567
258,0.428183,8758.105
259,0.42985,9764.879999999999
260,0.431517,9764.879999999999
261,0.433183,10816.365
262,0.434833,11903.956
263,0.4365,13017.646
264,0.438167,13017.646
265,0.439833,14145.062
266,0.4415,15271.56
267,0.443167,16380.422
268,0.444867,16380.422
269,0.4465,17452.129
270,0.448167,18469.088
271,0.449833,19413.018
272,0.4515,19413.018
273,0.453167,20266.316
274,0.454833,21014.445
275,0.4565,21014.445
276,0.458167,21644.936
277,0.459833,22148.408
278,0.4615,22519.662
279,0.463167,22519.662
280,0.464833,22756.859
281,0.4665,22860.17
282,0.468167,22834.338
283,0.469867,22834.338
284,0.4715,22686.34
285,0.473183,22425.205
286,0.474833,22062.711
287,0.4765,22062.711
288,0.478267,21611.139
289,0.479833,21082.908
290,0.4815,20491.414
291,0.483167,20491.414
292,0.484833,19849.754
293,0.4865,19169.449
294,0.488167,19169.449
295,0.489833,18462.277
296,0.4915,17738.604
297,0.493167,17007.045
298,0.494817,17007.045
299,0.496483,16275.532
300,0.49815,15551.247
301,0.499817,14839.352
302,0.501483,14839.352
303,0.50315,14144.361
304,0.504817,13469.6
305,0.506483,12817.599
306,0.50815,12817.599
307,0.509817,12189.91
308,0.511483,11587.463
309,0.51315,11587.463
310,0.514817,11011.34
311,0.516483,10461.227
312,0.51815,9936.98
313,0.519817,9936.98
314,0.521483,9438.225
315,0.52315,8964.441000000001
316,0.524817,8514.971
317,0.526483,8514.971
318,0.52815,8088.946
319,0.529817,7685.624
320,0.5315,7304.05
321,0.53315,7304.05
322,0.534817,6943.002
323,0.536483,6601.729
324,0.53815,6279.528
325,0.539817,6279.528
326,0.5415,5974.993
327,0.54315,5687.706
328,0.544817,5687.706
329,0.5464830000000001,5416.564
330,0.54815,5160.443
331,0.549817,4918.813
332,0.5515,4918.813
333,0.55315,4690.505
334,0.5548,4475.094
335,0.556467,4271.642
336,0.558133,4271.642
337,0.5598,4079.573
338,0.561467,3897.987
339,0.563133,3726.318
340,0.5648,3726.318
341,0.5664670000000001,3563.903
342,0.568133,3410.242
343,0.5698,3410.242
344,0.5714669999999999,3264.695
345,0.573133,3126.86
346,0.5748,2996.549
347,0.576467,2996.549
348,0.578133,2872.817
349,0.5799,2755.657
350,0.581467,2644.487
351,0.583133,2644.487
352,0.5848,2538.897
353,0.586467,2438.687
354,0.588133,2343.029
355,0.5898,2343.029
356,0.591467,2251.953
357,0.593133,2165.183
358,0.5948,2165.183
359,0.596567,2082.817
360,0.598133,2004.772
361,0.5998,1930.49
362,0.601467,1930.49
363,0.603133,1859.352
364,0.6048,1791.418
365,0.606467,1726.679
366,0.608133,1726.679
367,0.6098,1664.542
368,0.611467,1605.257
369,0.61325,1548.514
370,0.614783,1548.514
371,0.6164500000000001,1494.132
372,0.618133,1442.73
373,0.619783,1393.519
374,0.6214499999999999,1393.519
375,0.623117,1346.551
376,0.624783,1301.78
377,0.62645,1301.78
378,0.628117,1258.679
379,0.629783,1217.492
380,0.63145,1177.892
381,0.633117,1177.892
382,0.634783,1140.043
383,0.63645,1103.826
384,0.638117,1069.188
385,0.639783,1069.188
386,0.64145,1036.063
387,0.643117,1004.018
388,0.6448,973.612
389,0.64645,973.612
390,0.6481170000000001,944.681
391,0.649783,916.667
392,0.65145,916.667
393,0.6531169999999999,889.979
394,0.654783,864.1849999999999
395,0.65645,839.271
396,0.658117,839.271
397,0.659783,815.66
398,0.66145,792.883
399,0.663117,771.061
400,0.664783,771.061
401,0.66645,749.99
402,0.668117,730.015
403,0.669783,711.024
404,0.67145,711.024
405,0.673117,692.33
406,0.674767,674.553
407,0.676433,657.059
408,0.678083,657.059
409,0.67975,640.333
410,0.6814170000000001,624.716
411,0.683083,624.716
412,0.68475,609.823
413,0.6864170000000001,595.547
414,0.688083,581.674
415,0.68975,581.674
416,0.6914169999999999,568.256
417,0.693083,555.143
418,0.69475,542.76
419,0.696417,542.76
420,0.698083,530.832
421,0.69975,519.201
422,0.701417,508.353
423,0.703083,508.353
424,0.70475,497.624
425,0.706433,487.521
426,0.708083,487.521
427,0.70975,477.575
428,0.711417,467.896
429,0.713083,458.896
430,0.7148,458.896
431,0.716417,449.978
432,0.718083,441.872
433,0.71975,434.063
434,0.721417,434.063
435,0.723083,426.076
436,0.72475,418.589
437,0.726417,411.242
438,0.728083,411.242
439,0.72975,404.142
440,0.731467,397.347
441,0.733083,390.783
442,0.734733,390.783
443,0.7364000000000001,384.539
444,0.738067,378.408
445,0.739733,378.408
446,0.7413999999999999,372.7
447,0.743067,366.949
448,0.744733,361.465
449,0.7464,361.465
450,0.748067,356.168
451,0.749733,350.937
452,0.7514,346.325
453,0.753067,346.325
454,0.754733,341.497
455,0.7564,336.938
456,0.758067,332.624
457,0.759733,332.624
458,0.7614,328.146
459,0.7630670000000001,324.011
460,0.764733,324.011
461,0.7664,319.988
462,0.7680670000000001,316.218
463,0.769733,312.448
464,0.7714,312.448
465,0.7730669999999999,308.394
466,0.774733,304.624
467,0.7764,301.264
468,0.778067,301.264
469,0.779733,297.979
470,0.7814,295.274
471,0.783067,292.473
472,0.784733,292.473
473,0.7864,289.597
474,0.788067,286.758
475,0.789733,286.758
476,0.7914,283.718
477,0.79305,281.021
478,0.794717,278.004
479,0.796383,278.004
480,0.79805,275.15
481,0.799717,272.587
482,0.801383,270.24
483,0.80305,270.24
484,0.804717,268.146
485,0.806383,266.194
486,0.80805,264.131
487,0.809717,264.131
488,0.811383,261.828
489,0.8130500000000001,259.66
490,0.814717,257.79
491,0.816433,257.79
492,0.8180500000000001,255.913
493,0.819717,253.908
494,0.8214,253.908
495,0.823067,252.105
496,0.824717,250.287
497,0.826383,248.536
498,0.82805,248.536
499,0.829717,247.076
500,0.831383,245.452
501,0.8331,243.545
502,0.834717,243.545
503,0.836383,242.01
504,0.83805,240.311
505,0.839717,238.858
506,0.841383,238.858
507,0.84305,237.755
508,0.8447170000000001,236.459
509,0.846383,236.459
510,0.84805,235.304
511,0.8498329999999999,234.097
512,0.851383,232.838
513,0.853033,232.838
514,0.8547,231.482
515,0.856367,230.104
516,0.858033,228.658
517,0.8597,228.658
518,0.861367,227.094
519,0.8630330000000001,225.835
520,0.8647,224.561
521,0.866367,224.561
522,0.8680330000000001,223.48
523,0.8697,222.69
524,0.871367,221.692
525,0.8730329999999999,221.692
526,0.8747,220.91
527,0.876367,219.859
528,0.878033,219.859
529,0.8797,218.764
530,0.881367,217.944
531,0.883033,216.79
532,0.8847,216.79
533,0.886367,215.97
534,0.888033,215.128
535,0.8897,214.234
536,0.891367,214.234
537,0.893033,213.362
538,0.894717,212.513
539,0.896367,211.507
540,0.898033,211.507
541,0.8997000000000001,210.434
542,0.901367,209.838
543,0.903033,209.838
544,0.9046999999999999,208.996
545,0.906367,208.274
546,0.908033,207.677
547,0.9097,207.677
548,0.911367,207.104
549,0.913033,206.634
550,0.914683,206.12
551,0.91635,206.12
552,0.918017,205.323
553,0.919683,204.392
554,0.92135,203.453
555,0.923017,203.453
556,0.924683,202.641
557,0.92635,202.335
558,0.928017,202.015
559,0.929683,202.015
560,0.93135,201.583
561,0.933017,201.27
562,0.934733,201.27
563,0.93635,200.301
564,0.938017,199.489
565,0.939683,198.938
566,0.94135,198.938
567,0.943017,198.2
568,0.9446830000000001,197.947
569,0.94635,197.44
570,0.948017,197.44
571,0.9496830000000001,196.815
572,0.95135,196.427
573,0.953017,195.973
574,0.9546829999999999,195.973
575,0.95635,195.652
576,0.958017,195.377
577,0.959683,195.377
578,0.96135,194.728
579,0.963017,194.542
580,0.964683,194.095
581,0.96635,194.095
582,0.968083,193.737
583,0.9696669999999999,193.328
584,0.971317,192.53
585,0.973,192.53
586,0.97465,191.808
587,0.976317,191.122
588,0.977983,190.638
589,0.97965,190.638
590,0.981317,190.28
591,0.9829830000000001,190.035
592,0.98465,190.035
593,0.986317,189.64
594,0.9879829999999999,189.215
595,0.98965,188.909
596,0.991317,188.909
597,0.9929829999999999,188.41
598,0.99465,188.231
599,0.996317,188.075
600,0.997983,188.075
601,0.99965,187.673
602,1.001317,187.457
603,1.002983,186.861
604,1.00465,186.861
605,1.006317,186.369
606,1.007983,186.205
607,1.00965,186.078
608,1.011317,186.078
609,1.012983,186.086
610,1.01465,186.041
611,1.016317,186.041
612,1.017983,185.855
613,1.01965,185.408
614,1.021317,185.02
615,1.022983,185.02
616,1.02465,184.722
617,1.026317,184.461
618,1.027983,184.35
619,1.02965,184.35
620,1.031317,184.32
621,1.032983,183.895
622,1.034667,183.292
623,1.036317,183.292
624,1.037967,182.822
625,1.039633,182.219
626,1.0413,182.219
627,1.042967,182.152
628,1.044633,182.062
629,1.0463,181.884
630,1.047967,181.884
631,1.049633,181.72
632,1.0513,181.198
633,1.053033,180.647
634,1.054633,180.647
635,1.0563,180.312
636,1.057967,180.118
637,1.059633,180.028
638,1.0613,180.028
639,1.062967,179.85
640,1.064633,179.417
641,1.0663,179.291
642,1.067967,179.291
643,1.069633,179.149
644,1.0713,179.343
645,1.072967,179.343
646,1.074633,179.425
647,1.0763,179.112
648,1.077967,178.762
649,1.079633,178.762
650,1.0813,178.128
651,1.082967,177.704
652,1.084633,177.257
653,1.0864,177.257
654,1.087967,177.033
655,1.089633,176.743
656,1.0913,176.72
657,1.092967,176.72
658,1.094617,176.482
659,1.096283,176.348
660,1.09795,176.348
661,1.099617,176.258
662,1.101283,176.117
663,1.10295,175.923
664,1.104617,175.923
665,1.106283,175.864
666,1.10795,175.625
667,1.109633,175.223
668,1.111283,175.223
669,1.11295,175.238
670,1.114617,175.141
671,1.116283,174.88
672,1.11795,174.88
673,1.119617,174.895
674,1.121283,174.806
675,1.12295,174.291
676,1.124617,174.291
677,1.1263,174.448
678,1.12795,174.463
679,1.129617,174.463
680,1.131283,174.128
681,1.13295,174.031
682,1.134617,173.621
683,1.136283,173.621
684,1.13795,173.286
685,1.139617,173.137
686,1.141283,173.233
687,1.14295,173.233
688,1.144617,173.122
689,1.146283,172.809
690,1.14795,172.742
691,1.149617,172.742
692,1.151283,172.593
693,1.15295,172.652
694,1.1546,172.652
695,1.156267,172.496
696,1.157933,172.272
697,1.1596,172.071
698,1.161267,172.071
699,1.162933,171.699
700,1.1646,171.706
701,1.166267,171.52
702,1.167933,171.52
703,1.1696,171.05
704,1.171333,170.872
705,1.17295,170.521
706,1.1746,170.521
707,1.176267,170.581
708,1.177933,170.469
709,1.1796,170.469
710,1.181267,170.372
711,1.182933,170.395
712,1.1846,170.328
713,1.186267,170.328
714,1.187933,170.566
715,1.1896,170.566
716,1.191267,170.611
717,1.192933,170.611
718,1.1946,170.313
719,1.196267,169.985
720,1.197933,170.052
721,1.1996,170.052
722,1.201267,169.791
723,1.202933,169.434
724,1.204683,169.3
725,1.206267,169.3
726,1.207933,169.069
727,1.2096,169.143
728,1.211267,169.143
729,1.212933,169.277
730,1.214583,169.158
731,1.2163,168.718
732,1.217917,168.718
733,1.219583,168.048
734,1.22125,167.705
735,1.222917,167.407
736,1.224583,167.407
737,1.22625,167.452
738,1.227917,167.571
739,1.229583,167.608
740,1.23125,167.608
741,1.232917,167.765
742,1.234583,167.571
743,1.23625,167.571
744,1.237917,167.377
745,1.239583,167.221
746,1.24125,166.945
747,1.242917,166.945
748,1.244583,166.774
749,1.24625,166.975
750,1.247933,166.722
751,1.249583,166.722
752,1.25125,166.632
753,1.252917,166.677
754,1.254583,166.275
755,1.25625,166.275
756,1.257917,166.193
757,1.259583,166.357
758,1.261233,166.453
759,1.2629,166.453
760,1.264567,166.468
761,1.266233,166.595
762,1.2679,166.595
763,1.269567,166.252
764,1.271233,165.887
765,1.272883,166.006
766,1.27455,166.006
767,1.276217,165.917
768,1.277883,165.91
769,1.27955,165.977
770,1.281217,165.977
771,1.282883,165.664
772,1.284567,165.433
773,1.286217,165.179
774,1.287883,165.179
775,1.289617,164.904
776,1.291217,164.829
777,1.292883,164.829
778,1.29455,164.844
779,1.296217,164.74
780,1.297883,164.74
781,1.29955,164.74
782,1.301217,164.501
783,1.302883,164.36
784,1.30455,164.643
785,1.306217,164.643
786,1.307883,164.39
787,1.30955,164.39
788,1.311217,164.583
789,1.312883,164.583
790,1.31455,164.382
791,1.316217,164.591
792,1.317883,164.65
793,1.31955,164.65
794,1.321217,164.509
795,1.322983,164.285
796,1.32455,164.285
797,1.326217,164.039
798,1.327883,163.898
799,1.32955,163.406
800,1.331217,163.406
801,1.332883,163.458
802,1.334533,163.481
803,1.3362,163.317
804,1.337867,163.317
805,1.339533,163.577
806,1.3412,163.16
807,1.342867,163.086
808,1.344533,163.086
809,1.3462,163.086
810,1.347867,162.639
811,1.349533,162.639
812,1.3512,162.452
813,1.352867,162.065
814,1.354533,161.871
815,1.3562,161.871
816,1.357867,161.886
817,1.359533,162.147
818,1.3612,162.318
819,1.362867,162.318
820,1.364533,162.251
821,1.3662,162.356
822,1.367867,162.46
823,1.369533,162.46
824,1.3712,162.311
825,1.372867,162.214
826,1.374533,162.214
827,1.3762,162.147
828,1.377867,162.02
829,1.379533,162.035
830,1.3812,162.035
831,1.382867,162.147
832,1.384533,161.991
833,1.3862,162.11
834,1.387867,162.11
835,1.389567,162.102
836,1.3912,161.946
837,1.392867,162.147
838,1.394533,162.147
839,1.396183,161.864
840,1.39785,161.611
841,1.399517,161.439
842,1.401183,161.439
843,1.40285,161.052
844,1.404517,160.985
845,1.406183,160.985
846,1.407867,161
847,1.409517,161.171
848,1.411183,161.394
849,1.41285,161.394
850,1.414517,161.342
851,1.416183,161.402
852,1.41785,161.111
853,1.419517,161.111
854,1.421183,160.784
855,1.42285,160.493
856,1.4246,160.463
857,1.426183,160.463
858,1.42785,160.769
859,1.429517,160.612
860,1.431183,160.612
861,1.43285,160.567
862,1.434517,160.486
863,1.436183,160.091
864,1.43785,160.091
865,1.439517,159.897
866,1.441233,159.867
867,1.44285,159.673
868,1.444517,159.673
869,1.446183,159.703
870,1.44785,159.957
871,1.449517,160.098
872,1.451183,160.098
873,1.452833,160.471
874,1.4545,160.605
875,1.456167,160.657
876,1.457967,160.657
877,1.4595,160.411
878,1.461167,160.202
879,1.462833,160.202
880,1.4645,160.113
881,1.46625,160.068
882,1.467833,159.793
883,1.4695,159.793
884,1.471167,159.271
885,1.472833,159.189
886,1.4745,158.995
887,1.476167,158.995
888,1.477833,159.234
889,1.4795,159.271
890,1.481167,159.331
891,1.482833,159.331
892,1.4845,159.428
893,1.486167,159.577
894,1.487833,159.577
895,1.4895,159.86
896,1.491167,159.718
897,1.492833,159.644
898,1.4945,159.644
899,1.496167,159.442
900,1.497833,159.07
901,1.4995,159.055
902,1.501167,159.055
903,1.502833,159.137
904,1.5045,159.323
905,1.506167,159.383
906,1.507833,159.383
907,1.5095,159.152
908,1.511167,158.779
909,1.512833,158.392
910,1.514483,158.392
911,1.51615,158.362
912,1.517817,158.317
913,1.519483,158.317
914,1.52115,158.489
915,1.522817,158.615
916,1.524483,158.63
917,1.526183,158.63
918,1.527817,158.586
919,1.529483,158.451
920,1.53115,158.019
921,1.532817,158.019
922,1.534483,157.952
923,1.53615,157.811
924,1.537817,157.692
925,1.539483,157.692
926,1.54115,157.848
927,1.542867,157.788
928,1.544483,157.788
929,1.54615,158.064
930,1.547817,158.049
931,1.549483,158.25
932,1.55115,158.25
933,1.5528,158.139
934,1.554467,157.863
935,1.556133,157.796
936,1.5578,157.796
937,1.559533,157.55
938,1.561133,157.61
939,1.5628,157.423
940,1.564467,157.423
941,1.566133,157.289
942,1.5678,157.304
943,1.569467,157.304
944,1.571133,157.446
945,1.572783,157.729
946,1.57445,157.677
947,1.576233,157.677
948,1.577783,157.58
949,1.57945,157.483
950,1.581117,157.498
