"ID","sea_time","fid_signal"
1,0,1221.448
2,0.001667,1218.095
3,0.003333,1217.127
4,0.005,1217.127
5,0.0067,1214.445
6,0.008333,1215.637
7,0.01,1216.605
8,0.011667,1216.605
9,0.013333,1215.488
10,0.015117,1215.562
11,0.016667,1212.954
12,0.018333,1212.954
13,0.019983,1215.413
14,0.02165,1218.692
15,0.023317,1218.692
16,0.024983,1218.095
17,0.02665,1216.605
18,0.028317,1215.488
19,0.029983,1215.488
20,0.03165,1213.402
21,0.033317,1213.402
22,0.034983,1212.88
23,0.03665,1212.88
24,0.038317,1212.954
25,0.039983,1212.507
26,0.04165,1211.39
27,0.043317,1211.39
28,0.044983,1215.19
29,0.04665,1215.041
30,0.048317,1216.382
31,0.049983,1216.382
32,0.05165,1216.382
33,0.053333,1215.19
34,0.054983,1215.19
35,0.05665,1215.86
36,0.058317,1213.923
37,0.059983,1214.817
38,0.06165,1214.817
39,0.063317,1215.488
40,0.064983,1215.115
41,0.06665,1216.456
42,0.068317,1216.456
43,0.069983,1213.998
44,0.07165000000000001,1211.017
45,0.07331699999999999,1210.719
46,0.07498299999999999,1210.719
47,0.07665,1209.304
48,0.078333,1212.507
49,0.079967,1212.507
50,0.081633,1215.637
51,0.0833,1215.935
52,0.084967,1216.531
53,0.086633,1216.531
54,0.0883,1217.723
55,0.08996700000000001,1219.884
56,0.09163300000000001,1219.064
57,0.09329999999999999,1219.064
58,0.094967,1219.287
59,0.096633,1214.743
60,0.0983,1210.272
61,0.100017,1210.272
62,0.101633,1208.633
63,0.1033,1206.398
64,0.104967,1205.355
65,0.106633,1205.355
66,0.1083,1205.429
67,0.109967,1208.782
68,0.111633,1208.782
69,0.1133,1207.814
70,0.114967,1209.825
71,0.116633,1211.837
72,0.1183,1211.837
73,0.119967,1210.943
74,0.121633,1213.104
75,0.1233,1215.86
76,0.124967,1215.86
77,0.126633,1214.445
78,0.1283,1214.445
79,0.129967,1213.774
80,0.131633,1213.774
81,0.1334,1211.39
82,0.134967,1214.072
83,0.136633,1214.072
84,0.1383,1211.539
85,0.13995,1212.806
86,0.141617,1213.849
87,0.1433,1213.849
88,0.14495,1211.911
89,0.146617,1214.072
90,0.148283,1213.104
91,0.14995,1213.104
92,0.151617,1213.402
93,0.153267,1212.359
94,0.15495,1212.806
95,0.1566,1212.806
96,0.158267,1213.476
97,0.159933,1213.551
98,0.1616,1213.551
99,0.163267,1212.209
100,0.164933,1212.209
101,0.1666,1213.178
102,0.168267,1213.178
103,0.169933,1210.496
104,0.1716,1213.327
105,0.173267,1211.092
106,0.174933,1211.092
107,0.1766,1211.241
108,0.178267,1211.613
109,0.179933,1211.464
110,0.1816,1211.464
111,0.183267,1212.731
112,0.184933,1212.284
113,0.1866,1213.625
114,0.188267,1213.625
115,0.189933,1213.476
116,0.1916,1213.029
117,0.193267,1213.029
118,0.194933,1213.327
119,0.1966,1210.198
120,0.198267,1208.484
121,0.199917,1208.484
122,0.201583,1209.006
123,0.20325,1206.473
124,0.204917,1209.378
125,0.206583,1209.378
126,0.20825,1211.762
127,0.209917,1211.017
128,0.211583,1213.625
129,0.21325,1213.625
130,0.214917,1213.998
131,0.216583,1210.421
132,0.21825,1210.421
133,0.219917,1208.633
134,0.2216,1207.516
135,0.22325,1208.782
136,0.224917,1208.782
137,0.226583,1209.751
138,0.22825,1211.837
139,0.229917,1210.347
140,0.231583,1210.347
141,0.23325,1207.739
142,0.234917,1206.771
143,0.236583,1204.908
144,0.23825,1204.908
145,0.239917,1205.578
146,0.241583,1205.429
147,0.24325,1205.876
148,0.244917,1205.876
149,0.246583,1209.08
150,0.24825,1210.049
151,0.249917,1210.049
152,0.251683,1211.166
153,0.25325,1210.272
154,0.254917,1206.398
155,0.256583,1206.398
156,0.258233,1206.845
157,0.259917,1204.759
158,0.261567,1207.069
159,0.263233,1207.069
160,0.2649,1208.633
161,0.266567,1208.708
162,0.268233,1212.06
163,0.2699,1212.06
164,0.271567,1215.264
165,0.273233,1216.978
166,0.2749,1216.978
167,0.276567,1213.998
168,0.278233,1210.272
169,0.2799,1204.312
170,0.281567,1204.312
171,0.283233,1203.79
172,0.2849,1206.771
173,0.286567,1208.708
174,0.288233,1208.708
175,0.2899,1211.837
176,0.291567,1211.613
177,0.293233,1208.186
178,0.294933,1208.186
179,0.2966,1209.155
180,0.298233,1207.367
181,0.2999,1204.014
182,0.301567,1204.014
183,0.303233,1206.398
184,0.3049,1204.684
185,0.306567,1204.684
186,0.308233,1206.622
187,0.3099,1207.516
188,0.311567,1205.653
189,0.313233,1205.653
190,0.3149,1205.951
191,0.316567,1203.641
192,0.318217,1206.1
193,0.319883,1206.1
194,0.32155,1208.261
195,0.323217,1210.496
196,0.324883,1212.359
197,0.32655,1212.359
198,0.328217,1213.774
199,0.329883,1212.582
200,0.33155,1212.582
201,0.333217,1210.868
202,0.334883,1211.464
203,0.336567,1211.613
204,0.338217,1211.613
205,0.339883,1213.178
206,0.34155,1215.637
207,0.343217,1218.095
208,0.344883,1218.095
209,0.34655,1222.044
210,0.348217,1228.154
211,0.349883,1234.263
212,0.35155,1234.263
213,0.353267,1243.874
214,0.354883,1251.772
215,0.356567,1261.16
216,0.358217,1261.16
217,0.359883,1274.794
218,0.36155,1288.429
219,0.363217,1288.429
220,0.364883,1306.757
221,0.366567,1329.631
222,0.368267,1355.484
223,0.369983,1355.484
224,0.37155,1383.126
225,0.373217,1418.665
226,0.374883,1458.898
227,0.37655,1458.898
228,0.378217,1504.645
229,0.379883,1558.885
230,0.381533,1621.47
231,0.3832,1621.47
232,0.384867,1698.285
233,0.38665,1792.386
234,0.3882,1792.386
235,0.389867,1910.031
236,0.391533,2057.85
237,0.3932,2249.777
238,0.394867,2249.777
239,0.396533,2495.646
240,0.3982,2818.555
241,0.399867,3232.732
242,0.401533,3232.732
243,0.4032,3763.661
244,0.404867,4438.013
245,0.406533,5281.642
246,0.4082,5281.642
247,0.409867,6322.637
248,0.411533,7593.333
249,0.4132,7593.333
250,0.414867,9124.129999999999
251,0.416533,10956.601
252,0.4182,13142.898
253,0.419867,13142.898
254,0.421533,15744.12
255,0.4232,18830.82
256,0.424867,22461.713
257,0.426533,22461.713
258,0.4282,26682.393
259,0.429867,31495.318
260,0.431533,36867.113
261,0.4332,36867.113
262,0.434867,42731.762
263,0.436533,48987.566
264,0.4382,55509.879
265,0.439867,55509.879
266,0.441517,62169.879
267,0.443183,68824.81299999999
268,0.444833,68824.81299999999
269,0.446517,75334.461
270,0.448167,81573.875
271,0.449833,87425.633
272,0.4515,87425.633
273,0.453167,92785.359
274,0.454833,97579.586
275,0.4565,101735.07
276,0.458167,101735.07
277,0.459833,105208.758
278,0.4615,107978.063
279,0.463167,110023.391
280,0.464833,110023.391
281,0.4665,111350.938
282,0.468167,111979.023
283,0.469833,111979.023
284,0.47155,111927.688
285,0.473167,111238.953
286,0.474833,109962.898
287,0.4765,109962.898
288,0.478167,108147.117
289,0.479833,105851.219
290,0.4815,103134.734
291,0.483167,103134.734
292,0.484833,100059.586
293,0.4865,96685.43799999999
294,0.48825,93071.609
295,0.489833,93071.609
296,0.4915,89271.516
297,0.493167,85337.383
298,0.494833,81323.31299999999
299,0.4965,81323.31299999999
300,0.498167,77277.42200000001
301,0.499817,73240.773
302,0.501483,73240.773
303,0.50315,69251.359
304,0.50495,65335.48
305,0.506483,61522.051
306,0.50815,61522.051
307,0.509817,57833.941
308,0.5115,54290.445
309,0.51315,50909.445
310,0.514817,50909.445
311,0.516483,47698.395
312,0.51815,44665.633
313,0.519817,41812.508
314,0.521483,41812.508
315,0.52315,39137.082
316,0.524817,36641.285
317,0.526483,36641.285
318,0.52815,34315.586
319,0.529817,32158.494
320,0.5315,30163.824
321,0.53315,30163.824
322,0.534817,28318.613
323,0.536483,26617.646
324,0.53815,25050.342
325,0.539817,25050.342
326,0.541483,23608.654
327,0.54315,22284.24
328,0.544817,21064.877
329,0.5464830000000001,21064.877
330,0.54815,19941.404
331,0.549817,18901.676
332,0.5514829999999999,18901.676
333,0.55315,17940.551
334,0.554817,17053.559
335,0.5564829999999999,16232.58
336,0.55815,16232.58
337,0.5598,15472.919
338,0.561467,14766.604
339,0.563133,14112.294
340,0.5648,14112.294
341,0.5664670000000001,13497.546
342,0.568133,12920.35
343,0.5698,12379.438
344,0.5714669999999999,12379.438
345,0.573133,11871.904
346,0.5748,11394.769
347,0.576467,10947.734
348,0.578133,10947.734
349,0.5798,10525.51
350,0.581467,10121.092
351,0.583133,10121.092
352,0.5848,9742.379000000001
353,0.586467,9380.727999999999
354,0.588133,9036.809999999999
355,0.589867,9036.809999999999
356,0.591467,8712.335999999999
357,0.593133,8401.572
358,0.5948,8110.106
359,0.596467,8110.106
360,0.598133,7831.231
361,0.5998,7563.904
362,0.601467,7307.008
363,0.603133,7307.008
364,0.6048,7062.405
365,0.6065,6830.692
366,0.608133,6830.692
367,0.6098,6607.771
368,0.611467,6400.049
369,0.613133,6195.158
370,0.6148,6195.158
371,0.616467,6000.772
372,0.618133,5814.358
373,0.619783,5632.639
374,0.6214499999999999,5632.639
375,0.623233,5461.275
376,0.624783,5295.947
377,0.62645,5138.144
378,0.6281330000000001,5138.144
379,0.629783,4984.662
380,0.63145,4836.172
381,0.633117,4695.43
382,0.634783,4695.43
383,0.63645,4561.32
384,0.638117,4432.351
385,0.639783,4432.351
386,0.64145,4310.608
387,0.643117,4193.336
388,0.644783,4081.652
389,0.64645,4081.652
390,0.6481170000000001,3976.673
391,0.649783,3874.376
392,0.65145,3774.911
393,0.653133,3774.911
394,0.654783,3679.171
395,0.65645,3583.655
396,0.658117,3493.652
397,0.659783,3493.652
398,0.66145,3408.641
399,0.663117,3330.335
400,0.664783,3330.335
401,0.66645,3257.096
402,0.668117,3185.868
403,0.669783,3115.609
404,0.67145,3115.609
405,0.673117,3042.966
406,0.674783,2976.879
407,0.67645,2912.804
408,0.678117,2912.804
409,0.679783,2849.325
410,0.681433,2794.191
411,0.6831,2738.833
412,0.684767,2738.833
413,0.686433,2686.605
414,0.6881,2639.741
415,0.689767,2588.555
416,0.691433,2588.555
417,0.6931,2541.84
418,0.694767,2498.925
419,0.696433,2498.925
420,0.6981000000000001,2455.86
421,0.699767,2416.223
422,0.701433,2374.053
423,0.703117,2374.053
424,0.704767,2332.628
425,0.706433,2291.575
426,0.7081,2254.695
427,0.709767,2254.695
428,0.711433,2223.775
429,0.7131,2193.451
430,0.714767,2166.48
431,0.716433,2166.48
432,0.7181,2138.838
433,0.719767,2109.93
434,0.721433,2109.93
435,0.7231,2082.959
436,0.7247670000000001,2056.956
437,0.726433,2034.009
438,0.7281,2034.009
439,0.7297670000000001,2009.347
440,0.731433,1985.654
441,0.7331,1963.153
442,0.7347669999999999,1963.153
443,0.736417,1935.884
444,0.738083,1911.595
445,0.739733,1891.777
446,0.741517,1891.777
447,0.743067,1868.904
448,0.744733,1850.203
449,0.7464,1850.203
450,0.748067,1835.376
451,0.749733,1817.271
452,0.7514,1800.954
453,0.753067,1800.954
454,0.754733,1785.457
455,0.7564,1769.885
456,0.758067,1753.42
457,0.759733,1753.42
458,0.7614,1738.817
459,0.7630670000000001,1727.194
460,0.764733,1711.175
461,0.7664,1711.175
462,0.7680670000000001,1696.125
463,0.769733,1681.149
464,0.7714,1665.13
465,0.7730669999999999,1665.13
466,0.774733,1653.507
467,0.7764,1643.3
468,0.778067,1643.3
469,0.779733,1634.955
470,0.7814,1628.473
471,0.783067,1620.278
472,0.784733,1620.278
473,0.7864,1610.741
474,0.788067,1603.365
475,0.789733,1590.922
476,0.7914,1590.922
477,0.793067,1580.79
478,0.794767,1570.806
479,0.7964,1560.599
480,0.798067,1560.599
481,0.799733,1554.713
482,0.801383,1547.784
483,0.80305,1547.784
484,0.804717,1542.047
485,0.806383,1533.18
486,0.80805,1524.165
487,0.809717,1524.165
488,0.811383,1517.981
489,0.8130500000000001,1511.052
490,0.814717,1508.594
491,0.816383,1508.594
492,0.8180500000000001,1507.029
493,0.819717,1500.621
494,0.821383,1491.904
495,0.8230499999999999,1491.904
496,0.824717,1484.826
497,0.82645,1474.693
498,0.82805,1469.255
499,0.829717,1469.255
500,0.831383,1468.211
501,0.83305,1462.4
502,0.834717,1462.4
503,0.836383,1458.004
504,0.83805,1452.267
505,0.839717,1446.381
506,0.841383,1446.381
507,0.84305,1440.868
508,0.8447170000000001,1436.323
509,0.846383,1435.429
510,0.84805,1435.429
511,0.8497169999999999,1432.896
512,0.851383,1432.821
513,0.85305,1430.064
514,0.8547169999999999,1430.064
515,0.856383,1424.178
516,0.85805,1420.304
517,0.8598170000000001,1414.94
518,0.861367,1414.94
519,0.8630330000000001,1411.661
520,0.8647,1408.905
521,0.866367,1408.905
522,0.8680330000000001,1404.062
523,0.8697,1399.815
524,0.8714,1393.706
525,0.8730329999999999,1393.706
526,0.8747,1388.416
527,0.876367,1383.722
528,0.878033,1382.157
529,0.8797,1382.157
530,0.881367,1382.381
531,0.883033,1382.083
532,0.8847,1383.573
533,0.886367,1383.573
534,0.888033,1379.922
535,0.8897,1378.73
536,0.891367,1378.73
537,0.893033,1373.515
538,0.8947000000000001,1369.193
539,0.896367,1368.821
540,0.898033,1368.821
541,0.8997000000000001,1366.511
542,0.901367,1365.021
543,0.903033,1364.574
544,0.9046999999999999,1364.574
545,0.906367,1358.464
546,0.908033,1353.025
547,0.9097,1351.982
548,0.911367,1351.982
549,0.913033,1346.245
550,0.9147,1344.308
551,0.916367,1344.308
552,0.918033,1344.979
553,0.919683,1344.234
554,0.92135,1344.085
555,0.923017,1344.085
556,0.924683,1347.288
557,0.92635,1343.787
558,0.928017,1342.669
559,0.929683,1342.669
560,0.93135,1344.234
561,0.933017,1339.614
562,0.9347,1338.646
563,0.93635,1338.646
564,0.938017,1337.901
565,0.939683,1333.654
566,0.94135,1330.227
567,0.943017,1330.227
568,0.944733,1328.513
569,0.94635,1326.054
570,0.948017,1326.054
571,0.9496830000000001,1324.266
572,0.95135,1326.352
573,0.953017,1324.564
574,0.9546829999999999,1324.564
575,0.95635,1320.317
576,0.958017,1320.094
577,0.959683,1319.125
578,0.961433,1319.125
579,0.963017,1319.945
580,0.964683,1320.392
581,0.96635,1319.721
582,0.968017,1319.721
583,0.969683,1315.847
584,0.97135,1314.58
585,0.973017,1314.58
586,0.974683,1315.251
587,0.9763500000000001,1313.165
588,0.978117,1311.675
589,0.979667,1311.675
590,0.981333,1307.651
591,0.983,1302.585
592,0.984667,1297.519
593,0.986333,1297.519
594,0.988,1297.817
595,0.989667,1298.189
596,0.991333,1299.307
597,0.993,1299.307
598,0.994667,1303.703
599,0.996333,1304.746
600,0.998,1304.746
601,0.999667,1304.597
602,1.001333,1302.138
603,1.003,1298.562
604,1.004667,1298.562
605,1.00635,1296.028
606,1.008,1293.719
607,1.009667,1296.997
608,1.011333,1296.997
609,1.013,1296.401
610,1.014667,1295.507
611,1.016333,1296.923
612,1.018,1296.923
613,1.019667,1292.527
614,1.021333,1291.484
615,1.023,1290.068
