"ID","sea_time","fid_signal"
1,0,144.877
2,0.001667,145.048
3,0.003333,145.048
4,0.005,145.338
5,0.006667,145.525
6,0.008333,145.085
7,0.01,145.085
8,0.011667,144.638
9,0.013333,143.968
10,0.015,143.416
11,0.016667,143.416
12,0.018333,143.386
13,0.02,143.565
14,0.021683,143.588
15,0.0234,143.588
16,0.025,144.035
17,0.026667,144.027
18,0.028333,144.027
19,0.03,144.199
20,0.031667,144.593
21,0.033333,144.146
22,0.034983,144.146
23,0.03665,144.191
24,0.038317,144.131
25,0.040067,143.789
26,0.04165,143.789
27,0.043317,144.102
28,0.044983,143.953
29,0.04665,143.878
30,0.048317,143.878
31,0.049983,143.886
32,0.05165,143.699
33,0.053317,143.699
34,0.054983,143.588
35,0.056683,143.61
36,0.058317,143.714
37,0.059983,143.714
38,0.06165,143.617
39,0.063317,143.848
40,0.064983,144.117
41,0.06665,144.117
42,0.068317,144.169
43,0.069983,144.355
44,0.071683,144.348
45,0.07331699999999999,144.348
46,0.07498299999999999,144.072
47,0.07665,144.064
48,0.078317,144.064
49,0.079983,144.333
50,0.08165,144.489
51,0.083317,144.616
52,0.084983,144.616
53,0.08665,144.668
54,0.08831700000000001,144.519
55,0.08998299999999999,144.266
56,0.09165,144.266
57,0.093317,144.228
58,0.094967,144.295
59,0.096633,144.206
60,0.0983,144.206
61,0.09995,144.34
62,0.101617,144.28
63,0.103283,144.206
64,0.10495,144.206
65,0.106617,144.109
66,0.108283,143.923
67,0.10995,143.923
68,0.111617,144.102
69,0.113283,144.34
70,0.11495,144.526
71,0.116617,144.526
72,0.118283,144.795
73,0.11995,144.601
74,0.121617,144.266
75,0.123283,144.266
76,0.124967,144.184
77,0.126617,144.199
78,0.128283,144.087
79,0.12995,144.087
80,0.131617,144.199
81,0.133283,144.273
82,0.13495,144.273
83,0.136617,144.288
84,0.138283,144.638
85,0.13995,144.675
86,0.141667,144.675
87,0.143283,144.713
88,0.144967,144.564
89,0.146617,144.348
90,0.148283,144.348
91,0.14995,144.4
92,0.151617,144.154
93,0.153283,144.117
94,0.154933,144.117
95,0.1566,144.206
96,0.158383,143.833
97,0.159933,144.087
98,0.1616,144.087
99,0.163267,144.266
100,0.164933,143.945
101,0.1666,143.945
102,0.168267,144.221
103,0.169933,144.266
104,0.1716,144.012
105,0.173267,144.012
106,0.17505,144.534
107,0.1766,144.69
108,0.178267,144.489
109,0.179933,144.489
110,0.1816,144.579
111,0.183267,144.504
112,0.184933,144.415
113,0.1866,144.415
114,0.188267,144.4
115,0.189933,144.251
116,0.1917,143.982
117,0.193267,143.982
118,0.194933,143.662
119,0.196617,143.573
120,0.198267,143.573
121,0.199933,143.602
122,0.201617,143.789
123,0.203267,144.131
124,0.204933,144.131
125,0.2066,144.161
126,0.208267,144.228
127,0.209933,143.982
128,0.2116,143.982
129,0.21325,143.833
130,0.214917,143.878
131,0.216583,143.878
132,0.21825,144.079
133,0.219917,144.444
134,0.221583,144.601
135,0.22325,144.601
136,0.224917,144.854
137,0.226583,144.623
138,0.22825,144.638
139,0.229917,144.638
140,0.231583,144.601
141,0.23325,144.43
142,0.234933,144.668
143,0.236583,144.668
144,0.23825,144.526
145,0.239917,144.221
146,0.241583,143.997
147,0.24325,143.997
148,0.244917,143.617
149,0.246583,143.699
150,0.24825,143.699
151,0.249917,143.953
152,0.251583,144.34
153,0.25325,144.66
154,0.254917,144.66
155,0.256583,144.75
156,0.25825,144.966
157,0.259917,144.891
158,0.261583,144.891
159,0.26325,144.579
160,0.264917,144.169
161,0.266583,143.923
162,0.26825,143.923
163,0.269917,143.64
164,0.271583,143.953
165,0.27325,143.953
166,0.2749,144.34
167,0.27665,144.243
168,0.278233,144.444
169,0.2799,144.444
170,0.281567,144.444
171,0.283233,144.556
172,0.2849,144.802
173,0.286567,144.802
174,0.288233,144.675
175,0.2899,144.348
176,0.291567,143.886
177,0.2933,143.886
178,0.2949,143.707
179,0.296567,143.901
180,0.298233,144.131
181,0.2999,144.131
182,0.301567,144.251
183,0.303233,144.407
184,0.3049,144.407
185,0.306567,144.467
186,0.308233,144.392
187,0.31,144.586
188,0.311567,144.586
189,0.313233,144.467
190,0.3149,144.146
191,0.316567,143.96
192,0.318233,143.96
193,0.3199,143.908
194,0.321567,143.774
195,0.32325,144.035
196,0.3249,144.035
197,0.326567,144.37
198,0.328233,144.348
199,0.3299,144.348
200,0.331567,144.154
201,0.333217,143.945
202,0.334883,143.61
203,0.33655,143.61
204,0.338217,143.357
205,0.339883,143.632
206,0.3416,143.893
207,0.343217,143.893
208,0.344883,144.191
209,0.34655,144.154
210,0.348217,144.37
211,0.349883,144.37
212,0.35155,144.348
213,0.353217,144.355
214,0.354883,144.69
215,0.35655,144.69
216,0.358217,144.571
217,0.359883,144.459
218,0.36155,144.459
219,0.363217,144.728
220,0.364883,144.802
221,0.36655,144.757
222,0.368217,144.757
223,0.369883,144.862
224,0.37155,144.698
225,0.373217,144.556
226,0.374883,144.556
227,0.37655,144.713
228,0.378217,144.772
229,0.379883,145.033
230,0.38155,145.033
231,0.383217,145.815
232,0.384883,146.575
233,0.38655,146.575
234,0.388217,147.089
235,0.389883,147.693
236,0.391533,148.326
237,0.3932,148.326
238,0.394933,149.28
239,0.396517,150.554
240,0.398183,151.858
241,0.39985,151.858
242,0.401517,153.147
243,0.403183,154.525
244,0.40485,156.432
245,0.406517,156.432
246,0.408183,158.779
247,0.40985,161.409
248,0.4116,164.263
249,0.413183,164.263
250,0.41485,167.534
251,0.416517,171.125
252,0.418183,171.125
253,0.41985,175.402
254,0.421517,180.17
255,0.423183,185.736
256,0.42485,185.736
257,0.426517,192.411
258,0.428283,200.026
259,0.42985,208.728
260,0.431517,208.728
261,0.433183,218.794
262,0.43485,230.238
263,0.436517,244.252
264,0.438183,244.252
265,0.43985,261.575
266,0.441517,282.817
267,0.443183,282.817
268,0.44485,309.4
269,0.446517,342.362
270,0.448183,384.308
271,0.44985,384.308
272,0.451517,438.109
273,0.453183,506.818
274,0.454833,594.981
275,0.4565,594.981
276,0.458167,707.023
277,0.459833,848.442
278,0.4615,1025.774
279,0.463167,1025.774
280,0.464833,1245.99
281,0.4665,1516.409
282,0.468167,1516.409
283,0.469833,1844.555
284,0.4715,2238.683
285,0.473167,2705.514
286,0.474833,2705.514
287,0.476517,3252.417
288,0.478233,3884.822
289,0.479833,4606.977
290,0.4815,4606.977
291,0.483167,5421.996
292,0.484833,6330.744
293,0.4865,7333.331
294,0.488167,7333.331
295,0.489833,8427.566999999999
296,0.4915,9610.064
297,0.493167,10875.858
298,0.494833,10875.858
299,0.4965,12217.455
300,0.498167,13626.031
301,0.499833,13626.031
302,0.5014999999999999,15091.776
303,0.503167,16601.965
304,0.504833,18143.102
305,0.5065,18143.102
306,0.508167,19699.186
307,0.509833,21252.922
308,0.5115,22787.318
309,0.513167,22787.318
310,0.514817,24284.207
311,0.516483,25727.168
312,0.51815,27099.342
313,0.519817,27099.342
314,0.521483,28385.4
315,0.52315,29572.055
316,0.524817,29572.055
317,0.526483,30648.416
318,0.52815,31605.721
319,0.529817,32437.473
320,0.531483,32437.473
321,0.53315,33140.594
322,0.534817,33713.551
323,0.536483,34156.891
324,0.53815,34156.891
325,0.539817,34473.484
326,0.541483,34667.848
327,0.54315,34745.895
328,0.544817,34745.895
329,0.546583,34714.98
330,0.54815,34583.105
331,0.549817,34358.859
332,0.5514829999999999,34358.859
333,0.55315,34050.746
334,0.554817,33667.996
335,0.5565330000000001,33667.996
336,0.55815,33219.574
337,0.559817,32714.152
338,0.561483,32160.723
339,0.56315,32160.723
340,0.564817,31566.793
341,0.566483,30940.438
342,0.56815,30288.012
343,0.569817,30288.012
344,0.571483,29614.717
345,0.573133,28926.625
346,0.5748,28228
347,0.576467,28228
348,0.578133,27523.154
349,0.5798,26816.48
350,0.581467,26816.48
351,0.583133,26110.783
352,0.5848,25409.4
353,0.586467,24715.395
354,0.588133,24715.395
355,0.5898,24030.395
356,0.591467,23356.26
357,0.593133,22694.17
358,0.5948,22694.17
359,0.596467,22045.016
360,0.598133,21410.354
361,0.599817,20790.6
362,0.601467,20790.6
363,0.603133,20186.484
364,0.6048,19597.934
365,0.606467,19024.648
366,0.608133,19024.648
367,0.6098,18467.441
368,0.611467,17925.955
369,0.613133,17925.955
370,0.6148,17400.258
371,0.616467,16890.533
372,0.618133,16395.881
373,0.6198,16395.881
374,0.621467,15916.728
375,0.623133,15452.69
376,0.6248,15002.757
377,0.626467,15002.757
378,0.6281330000000001,14567.227
379,0.6298,14144.979
380,0.631583,13735.92
381,0.633117,13735.92
382,0.634783,13339.862
383,0.63645,12956.396
384,0.638117,12956.396
385,0.639783,12584.798
386,0.64145,12224.831
387,0.643117,11876.039
388,0.644783,11876.039
389,0.64645,11537.708
390,0.6481170000000001,11210.002
391,0.649783,10892.361
392,0.65145,10892.361
393,0.6531169999999999,10584.824
394,0.654783,10286.957
395,0.65645,9998.508
396,0.658117,9998.508
397,0.659783,9719.066000000001
398,0.66145,9447.879999999999
399,0.663117,9447.879999999999
400,0.664883,9185.098
401,0.66645,8930.027
402,0.668117,8682.549000000001
403,0.669783,8682.549000000001
404,0.67145,8442.565000000001
405,0.673117,8209.892
406,0.674783,7984.064
407,0.67645,7984.064
408,0.678117,7765.129
409,0.679783,7552.862
410,0.681433,7346.913
411,0.6831,7346.913
412,0.684767,7147.297
413,0.686433,6953.59
414,0.6881,6765.544
415,0.689767,6765.544
416,0.691433,6582.856
417,0.6931,6405.555
418,0.69475,6405.555
419,0.69645,6233.372
420,0.698083,6065.741
421,0.69975,5903.4
422,0.701417,5903.4
423,0.703083,5745.776
424,0.70475,5592.563
425,0.706417,5444.236
426,0.708083,5444.236
427,0.70975,5299.523
428,0.711417,5159.147
429,0.713083,5022.556
430,0.71475,5022.556
431,0.716417,4890.047
432,0.718083,4761.569
433,0.71975,4761.569
434,0.721417,4636.623
435,0.723083,4515.238
436,0.72475,4396.856
437,0.726417,4396.856
438,0.728083,4282.05
439,0.72975,4170.329
440,0.731417,4061.863
441,0.733083,4061.863
442,0.73475,3956.497
443,0.736417,3854.044
444,0.738083,3754.556
445,0.73975,3754.556
446,0.741417,3657.788
447,0.743083,3563.814
448,0.74475,3472.157
449,0.746417,3472.157
450,0.7480830000000001,3383.07
451,0.7498,3296.778
452,0.751417,3296.778
453,0.7530829999999999,3212.817
454,0.754733,3131.196
455,0.7564,3051.542
456,0.758067,3051.542
457,0.759733,2974.16
458,0.7614,2898.909
459,0.7630670000000001,2825.663
460,0.764733,2825.663
461,0.7664,2754.755
462,0.7680670000000001,2685.599
463,0.769733,2618.551
464,0.7714,2618.551
465,0.7730669999999999,2553.396
466,0.77475,2490.036
467,0.7764,2490.036
468,0.778067,2428.472
469,0.779733,2368.391
470,0.7814,2309.904
471,0.7831669999999999,2309.904
472,0.784733,2253.137
473,0.7864,2197.832
474,0.788067,2143.949
475,0.789733,2143.949
476,0.7914,2091.661
477,0.793067,2040.453
478,0.794733,1990.728
479,0.7964,1990.728
480,0.798067,1942.724
481,0.799733,1896.203
482,0.8014,1851.186
483,0.803067,1851.186
484,0.804733,1807.109
485,0.8064,1764.163
486,0.808067,1764.163
487,0.809733,1722.224
488,0.8114,1681.253
489,0.813067,1641.817
490,0.814717,1641.817
491,0.816383,1603.208
492,0.8180500000000001,1565.777
493,0.819717,1529.53
494,0.821383,1529.53
495,0.8230499999999999,1493.998
496,0.824717,1459.427
497,0.826383,1425.751
498,0.82805,1425.751
499,0.829717,1393.035
500,0.831383,1361.296
501,0.83305,1361.296
502,0.834717,1330.771
503,0.8364,1300.737
504,0.838117,1271.091
505,0.839717,1271.091
506,0.841383,1242.496
507,0.84305,1214.519
508,0.8447170000000001,1187.347
509,0.846383,1187.347
510,0.84805,1161.069
511,0.8497169999999999,1135.416
512,0.851383,1110.382
513,0.85305,1110.382
514,0.8547169999999999,1086.317
515,0.856383,1062.989
516,0.85805,1062.989
517,0.859717,1040.28
518,0.861383,1018.286
519,0.86305,996.828
520,0.864717,996.828
521,0.866383,975.639
522,0.8681,954.971
523,0.869717,934.8390000000001
524,0.871383,934.8390000000001
525,0.87305,915.155
526,0.8747,896.364
527,0.876367,877.939
528,0.878033,877.939
529,0.8797,859.961
530,0.881367,842.467
531,0.883033,825.256
532,0.884767,825.256
533,0.886367,808.716
534,0.888033,792.645
535,0.8897,792.645
536,0.891367,777.133
537,0.893033,762.336
538,0.8947000000000001,747.398
539,0.896367,747.398
540,0.898033,733.1369999999999
541,0.8997000000000001,719.1
542,0.901467,705.078
543,0.903033,705.078
544,0.9046999999999999,691.95
545,0.906367,678.778
546,0.908033,665.925
547,0.9097,665.925
548,0.911367,653.543
549,0.913033,641.4059999999999
550,0.9147,641.4059999999999
551,0.9163829999999999,629.611
552,0.918033,618.272
553,0.9197,607.364
554,0.921367,607.364
555,0.923033,596.665
556,0.9247,586.405
557,0.9263670000000001,576.288
558,0.928033,576.288
559,0.9297,566.237
560,0.9313669999999999,556.432
561,0.933017,547.044
562,0.934683,547.044
563,0.93635,537.79
564,0.938017,529.1849999999999
565,0.939683,520.408
566,0.94135,520.408
567,0.943017,511.751
568,0.9446830000000001,503.592
569,0.94635,503.592
570,0.948017,495.523
571,0.9496830000000001,488.006
572,0.95135,480.518
573,0.953017,480.518
574,0.9546829999999999,473.097
575,0.95635,465.915
576,0.958017,458.814
577,0.959683,458.814
578,0.96135,451.781
579,0.963017,445.053
580,0.964683,438.236
581,0.96635,438.236
582,0.968017,431.754
583,0.969683,425.585
584,0.97135,425.585
585,0.973,419.535
586,0.974667,413.947
587,0.976333,408.418
588,0.978,408.418
589,0.979667,402.905
590,0.981333,397.57
591,0.983017,392.087
592,0.984683,392.087
593,0.986333,386.737
594,0.988,381.857
595,0.989667,376.821
596,0.991333,376.821
597,0.993,371.858
598,0.99465,367.045
599,0.996317,367.045
600,0.997983,362.262
601,0.99965,357.814
602,1.001317,353.687
603,1.003117,353.687
604,1.00465,349.857
605,1.006317,345.826
606,1.007983,341.84
607,1.00965,341.84
608,1.011317,338.1
609,1.012983,334.345
610,1.01465,330.806
611,1.016317,330.806
612,1.017983,327.222
613,1.019767,323.623
614,1.021317,319.853
615,1.022983,319.853
616,1.02465,316.195
617,1.026317,312.977
618,1.027983,312.977
619,1.02965,309.922
620,1.031317,306.852
621,1.032983,303.835
622,1.03465,303.835
623,1.036317,300.951
624,1.037983,297.688
625,1.03965,294.864
626,1.041317,294.864
627,1.042983,292.085
628,1.04465,289.381
629,1.046317,286.721
630,1.047983,286.721
631,1.04965,283.994
632,1.051317,281.475
633,1.052983,281.475
634,1.054633,278.831
635,1.0563,276.61
636,1.057967,274.383
637,1.059633,274.383
638,1.061317,272.602
639,1.063033,270.56
640,1.064633,268.236
641,1.0663,268.236
642,1.067967,266.269
643,1.069633,263.661
644,1.0713,261.612
645,1.072967,261.612
646,1.074633,259.914
647,1.0763,258.267
648,1.077967,256.501
649,1.079633,256.501
650,1.0813,254.691
651,1.082967,252.478
652,1.084633,252.478
653,1.0863,250.295
654,1.087967,248.715
655,1.089633,247.084
656,1.0913,247.084
657,1.092967,245.817
658,1.094633,244.364
659,1.0963,242.814
660,1.097967,242.814
661,1.099633,241.287
662,1.1013,239.603
663,1.102967,238.091
664,1.104633,238.091
665,1.1063,236.794
666,1.107967,235.334
667,1.109633,235.334
668,1.1113,234.351
669,1.11295,233.3
670,1.114617,231.907
671,1.116283,231.907
672,1.11795,230.774
673,1.119617,229.344
674,1.12135,228.055
675,1.12295,228.055
676,1.124617,226.833
677,1.126283,225.216
678,1.12795,223.711
679,1.129617,223.711
680,1.131283,222.281
681,1.132983,221.156
682,1.134683,220.388
683,1.136283,220.388
684,1.138017,219.412
685,1.139617,218.242
686,1.141283,218.242
687,1.14295,217.05
688,1.144617,216.193
689,1.146283,215.463
690,1.14795,215.463
691,1.149617,214.845
692,1.151283,214.048
693,1.15295,212.893
694,1.154717,212.893
695,1.156283,212.044
696,1.15795,211.164
697,1.159617,210.337
698,1.161283,210.337
699,1.16295,209.451
700,1.164617,208.564
701,1.166283,208.564
702,1.16795,207.804
703,1.169617,206.918
704,1.171283,205.949
705,1.17295,205.949
706,1.1746,205.241
707,1.176267,204.429
708,1.17795,203.848
709,1.1796,203.848
710,1.181267,203.408
711,1.182933,202.499
712,1.1846,201.65
713,1.186267,201.65
714,1.187933,200.965
715,1.1896,200.056
716,1.191267,199.541
717,1.192933,199.541
718,1.1946,198.632
719,1.196267,197.627
720,1.197933,197.627
721,1.1996,197.023
722,1.201283,195.98
723,1.202933,195.593
724,1.2046,195.593
725,1.206267,195.354
726,1.207933,195.011
727,1.2096,194.982
728,1.211267,194.982
729,1.212933,194.579
730,1.2146,193.976
731,1.216267,193.201
732,1.217933,193.201
733,1.2196,192.277
734,1.221267,191.674
735,1.222933,191.674
736,1.2246,190.899
737,1.226267,190.578
738,1.227933,190.273
739,1.2296,190.273
740,1.231267,189.58
741,1.232917,189.103
742,1.234583,188.529
743,1.23625,188.529
744,1.237917,187.822
745,1.23965,187.322
746,1.24125,186.779
747,1.242917,186.779
748,1.244583,186.272
749,1.24625,186.041
750,1.247917,186.041
751,1.249583,185.713
752,1.25125,185.467
753,1.252917,185.385
754,1.254583,185.385
755,1.256267,184.923
756,1.257917,184.894
757,1.259583,184.707
758,1.26125,184.707
759,1.262917,184.275
760,1.264567,184.163
761,1.266233,183.657
762,1.2679,183.657
763,1.269567,183.307
764,1.271233,182.696
765,1.273017,182.085
766,1.274567,182.085
767,1.276233,181.861
768,1.2779,181.6
769,1.279567,181.6
770,1.281233,181.317
771,1.282917,181.369
772,1.284567,180.863
773,1.286233,180.863
774,1.2879,180.185
775,1.289567,180.051
776,1.291233,179.559
777,1.2929,179.559
778,1.29455,179.365
779,1.296217,178.903
780,1.297883,178.538
781,1.29955,178.538
782,1.301217,178.091
783,1.302883,177.853
784,1.30455,177.853
785,1.306217,177.927
786,1.307883,177.525
787,1.30955,177.033
788,1.311217,177.033
789,1.312883,176.78
790,1.31455,176.646
791,1.316217,176.325
792,1.317883,176.325
793,1.31955,176.199
794,1.321217,175.811
795,1.322883,175.61
796,1.32455,175.61
797,1.326217,175.364
798,1.327883,175.059
799,1.32955,174.522
800,1.331217,174.522
801,1.332883,174.142
802,1.33455,174.314
803,1.336217,174.314
804,1.337883,174.157
805,1.33955,174.098
806,1.341217,174.068
807,1.342883,174.068
808,1.34455,173.487
809,1.346217,173.353
810,1.347883,173.181
811,1.34955,173.181
812,1.351217,172.578
813,1.352883,172.354
814,1.354533,171.982
815,1.3562,171.982
816,1.3579,171.728
817,1.359533,171.356
818,1.3612,171.356
819,1.362867,171.289
820,1.364533,171.572
821,1.3662,171.363
822,1.367867,171.363
823,1.369533,171.483
824,1.3712,171.199
825,1.372867,170.648
826,1.374567,170.648
827,1.3762,170.626
828,1.377867,170.343
829,1.379533,170.179
830,1.3812,170.179
831,1.382867,170.171
832,1.384533,169.829
833,1.3862,169.612
834,1.387867,169.612
835,1.389533,169.411
836,1.391317,168.845
837,1.392867,168.845
838,1.394533,168.607
839,1.3962,168.718
840,1.397867,168.592
841,1.399533,168.592
842,1.4012,168.495
843,1.402867,168.435
844,1.404533,168.085
845,1.4062,168.085
846,1.407867,168.13
847,1.409533,168.279
848,1.4112,168.115
849,1.41285,168.115
850,1.414517,168.234
851,1.416183,167.832
852,1.41785,167.832
853,1.419517,167.482
854,1.421183,167.333
855,1.42285,167.072
856,1.424517,167.072
857,1.426217,166.863
858,1.42785,166.625
859,1.429517,166.528
860,1.431183,166.528
861,1.43285,166.23
862,1.434517,166.021
863,1.436183,166.103
864,1.43785,166.103
865,1.439517,166.036
866,1.441183,165.991
867,1.44285,165.991
868,1.444517,165.969
869,1.446183,165.842
870,1.44785,165.53
871,1.449517,165.53
872,1.451183,165.328
873,1.45285,165.157
874,1.454517,165.246
875,1.456183,165.246
876,1.45785,165.366
877,1.459517,165.641
878,1.461183,165.701
879,1.46285,165.701
880,1.464517,165.567
881,1.466183,165.336
882,1.46785,164.77
883,1.469517,164.77
884,1.471183,164.524
885,1.47285,164.069
886,1.4745,164.069
887,1.476183,163.823
888,1.477833,163.749
889,1.4795,163.637
890,1.481167,163.637
891,1.482833,163.51
892,1.4845,163.503
893,1.486167,163.265
894,1.487833,163.265
895,1.4895,163.347
896,1.491167,163.309
897,1.4929,163.138
898,1.4945,163.138
899,1.496167,163.488
900,1.497833,163.428
901,1.4995,163.428
902,1.501167,163.198
903,1.502833,163.13
904,1.5045,162.996
905,1.506167,162.996
906,1.507833,162.616
907,1.509583,162.594
908,1.511167,162.721
909,1.512833,162.721
910,1.5145,162.147
911,1.516167,162.281
912,1.517833,162.207
913,1.5195,162.207
914,1.521167,161.663
915,1.522833,161.834
916,1.5245,161.596
917,1.526167,161.596
918,1.527833,161.618
919,1.5295,161.685
920,1.531167,161.685
921,1.532817,161.499
922,1.534483,161.447
923,1.53615,161.223
924,1.537817,161.223
925,1.539483,161.35
926,1.54115,161.186
927,1.542817,161.067
928,1.544483,161.067
929,1.54615,160.97
930,1.547817,160.664
931,1.549483,160.791
932,1.55115,160.791
933,1.552817,160.806
934,1.554483,160.642
935,1.556133,160.642
936,1.5578,160.545
937,1.559483,160.567
938,1.561133,160.56
939,1.5628,160.56
940,1.564467,160.709
941,1.566133,160.761
942,1.5678,160.404
943,1.569467,160.404
944,1.571133,160.187
945,1.5728,160.038
946,1.574467,159.994
