"ID","sea_time","fid_signal"
1,0,141.636
2,0.001667,141.844
3,0.003333,142.127
4,0.005,142.127
5,0.006667,142.016
6,0.008333,141.934
7,0.01,141.814
8,0.011667,141.814
9,0.013333,141.539
10,0.015,141.248
11,0.016667,141.546
12,0.018333,141.546
13,0.0201,141.874
14,0.021667,141.948
15,0.023333,142.239
16,0.025,142.239
17,0.026667,142.217
18,0.028333,142.038
19,0.03,142.038
20,0.031667,142.127
21,0.033333,142.179
22,0.035,142.261
23,0.036667,142.261
24,0.038333,142.008
25,0.04,141.747
26,0.041667,141.405
27,0.043317,141.405
28,0.044983,141.174
29,0.04665,141.412
30,0.048317,141.598
31,0.049983,141.598
32,0.05165,141.963
33,0.053317,142.023
34,0.054983,142.023
35,0.05665,142.217
36,0.058317,142.232
37,0.059983,142.224
38,0.06165,142.224
39,0.063317,142.306
40,0.064983,141.963
41,0.06665,142.187
42,0.068317,142.187
43,0.069983,141.971
44,0.07165000000000001,141.926
45,0.07331699999999999,142.179
46,0.07498299999999999,142.179
47,0.07665,141.926
48,0.078317,141.919
49,0.079983,141.792
50,0.08165,141.792
51,0.083317,141.829
52,0.084983,141.926
53,0.08665,141.926
54,0.08831700000000001,141.986
55,0.08998299999999999,142.254
56,0.09165,142.12
57,0.093317,142.12
58,0.094983,142.336
59,0.096667,142.5
60,0.098317,142.224
61,0.099983,142.224
62,0.101633,142.261
63,0.1033,141.934
64,0.105017,141.68
65,0.106633,141.68
66,0.1083,141.546
67,0.109967,141.323
68,0.111633,141.323
69,0.1133,141.382
70,0.114967,141.427
71,0.116633,141.546
72,0.1183,141.546
73,0.119967,141.419
74,0.121717,141.36
75,0.1233,141.3
76,0.124967,141.3
77,0.126633,141.382
78,0.1283,141.345
79,0.129967,141.3
80,0.131633,141.3
81,0.1333,141.3
82,0.134967,141.121
83,0.136633,141.494
84,0.138417,141.494
85,0.139967,141.725
86,0.141633,141.755
87,0.1433,141.755
88,0.144967,142.016
89,0.146633,141.844
90,0.1483,141.68
91,0.149967,141.68
92,0.151633,141.636
93,0.1533,141.673
94,0.154967,141.859
95,0.156633,141.859
96,0.1583,141.807
97,0.159967,141.725
98,0.161617,141.457
99,0.1633,141.457
100,0.16495,141.092
101,0.166617,141.017
102,0.168283,141.017
103,0.16995,141.382
104,0.171633,141.628
105,0.173333,142.016
106,0.17495,142.016
107,0.176617,142.001
108,0.178283,141.881
109,0.17995,141.814
110,0.181617,141.814
111,0.183283,141.68
112,0.18495,141.852
113,0.186617,141.941
114,0.188283,141.941
115,0.18995,141.829
116,0.191617,141.703
117,0.193283,141.829
118,0.19495,141.829
119,0.196617,141.799
120,0.198283,141.859
121,0.19995,141.859
122,0.201617,142.038
123,0.203283,142.105
124,0.20495,141.926
125,0.206617,141.926
126,0.208283,141.867
127,0.20995,141.74
128,0.211617,141.308
129,0.213283,141.308
130,0.21495,141.39
131,0.216617,141.464
132,0.218283,141.68
133,0.21995,141.68
134,0.221617,142.001
135,0.223283,141.881
136,0.224933,141.881
137,0.2266,141.755
138,0.228267,141.695
139,0.229933,141.65
140,0.2316,141.65
141,0.233267,141.867
142,0.234933,142.187
143,0.2366,142.276
144,0.238267,142.276
145,0.24,142.358
146,0.2416,142.217
147,0.243267,142.306
148,0.244933,142.306
149,0.2466,142.165
150,0.248267,142.165
151,0.249933,142.165
152,0.2516,141.993
153,0.253267,141.636
154,0.254933,141.747
155,0.25665,141.747
156,0.258267,141.881
157,0.259933,142.44
158,0.2616,142.597
159,0.263267,142.597
160,0.264933,142.395
161,0.2666,142.328
162,0.268267,142.127
163,0.269933,142.127
164,0.2716,142.016
165,0.273383,142.045
166,0.274933,141.963
167,0.276583,141.963
168,0.27825,141.852
169,0.279917,142.053
170,0.281567,142.053
171,0.283233,142.127
172,0.2849,142.075
173,0.286567,141.919
174,0.288233,141.919
175,0.2899,141.576
176,0.291567,141.531
177,0.293233,141.442
178,0.2949,141.442
179,0.296567,141.516
180,0.298233,141.889
181,0.2999,141.717
182,0.301567,141.717
183,0.303233,141.658
184,0.3049,141.606
185,0.306583,141.606
186,0.308233,141.412
187,0.3099,141.449
188,0.311567,141.71
189,0.313233,141.71
190,0.3149,141.807
191,0.316567,141.993
192,0.318233,142.127
193,0.3199,142.127
194,0.321567,142.395
195,0.323233,142.701
196,0.3249,143.386
197,0.326567,143.386
198,0.32825,144.348
199,0.3299,145.242
200,0.331567,146.538
201,0.333233,146.538
202,0.3349,147.983
203,0.336567,149.965
204,0.338233,149.965
205,0.3399,152.506
206,0.34155,155.672
207,0.343217,159.338
208,0.344883,159.338
209,0.34655,163.89
210,0.348217,169.531
211,0.349883,176.713
212,0.35155,176.713
213,0.353217,185.512
214,0.354883,195.757
215,0.35655,207.759
216,0.358267,207.759
217,0.359883,221.439
218,0.36155,236.802
219,0.363217,236.802
220,0.364883,255.011
221,0.36655,275.284
222,0.368217,298.247
223,0.369883,298.247
224,0.37155,324.07
225,0.373217,352.39
226,0.3749,383.928
227,0.37655,383.928
228,0.378217,418.581
229,0.379883,456.832
230,0.38155,498.392
231,0.383217,498.392
232,0.384883,543.192
233,0.38655,591.561
234,0.388217,643.3200000000001
235,0.389883,643.3200000000001
236,0.391633,698.984
237,0.393217,758.439
238,0.394883,758.439
239,0.39655,821.516
240,0.398217,888.862
241,0.399883,959.903
242,0.401533,959.903
243,0.4032,1035.519
244,0.404867,1115.821
245,0.406533,1200.281
246,0.4082,1200.281
247,0.409867,1289.718
248,0.411533,1383.752
249,0.4132,1482.837
250,0.414867,1482.837
251,0.416533,1587.406
252,0.4182,1697.786
253,0.419883,1697.786
254,0.421533,1814.395
255,0.4232,1937.509
256,0.424867,2067.648
257,0.426533,2067.648
258,0.4282,2205.141
259,0.429867,2350.643
260,0.431533,2503.969
261,0.4332,2503.969
262,0.434867,2665.587
263,0.436533,2835.892
264,0.4382,3014.885
265,0.439867,3014.885
266,0.441533,3202.379
267,0.4432,3398.582
268,0.444867,3398.582
269,0.446533,3602.393
270,0.4482,3812.931
271,0.449867,4030.354
272,0.451533,4030.354
273,0.4532,4252.285
274,0.454867,4477.419
275,0.456533,4704.423
276,0.4582,4704.423
277,0.459867,4930.832
278,0.461533,5154.871
279,0.463183,5374.395
280,0.46485,5374.395
281,0.466517,5587.012
282,0.468183,5790.375
283,0.46985,5981.84
284,0.471517,5981.84
285,0.473183,6159.291
286,0.47485,6320.633
287,0.476533,6320.633
288,0.478183,6463.841
289,0.47985,6587.513
290,0.481517,6690.532
291,0.483183,6690.532
292,0.48485,6771.498
293,0.486517,6829.806
294,0.488183,6865.255
295,0.48985,6865.255
296,0.491517,6877.653
297,0.493233,6867.379
298,0.49485,6834.902
299,0.496517,6834.902
300,0.498183,6781.094
301,0.49985,6707.109
302,0.501517,6707.109
303,0.503183,6614.052
304,0.50485,6503.776
305,0.506517,6377.988
306,0.5081830000000001,6377.988
307,0.51,6238.215
308,0.511517,6086.342
309,0.5131829999999999,5923.994
310,0.51485,5923.994
311,0.516517,5752.608
312,0.5181829999999999,5574.167
313,0.51985,5390.689
314,0.5215,5390.689
315,0.523167,5203.396
316,0.524833,5013.883
317,0.5265,4823.357
318,0.5282,4823.357
319,0.529833,4632.972
320,0.5315,4443.966
321,0.5331669999999999,4443.966
322,0.534833,4257.418
323,0.5365,4073.925
324,0.538167,3894.351
325,0.539833,3894.351
326,0.5415,3719.255
327,0.543167,3549.3
328,0.544833,3385.142
329,0.5465,3385.142
330,0.548167,3226.474
331,0.549833,3073.677
332,0.5515,2927.125
333,0.553167,2927.125
334,0.554833,2786.875
335,0.5565,2652.787
336,0.558167,2652.787
337,0.559833,2525.158
338,0.5615,2403.975
339,0.563167,2288.543
340,0.564833,2288.543
341,0.5665,2179.719
342,0.56815,2076.514
343,0.569817,1978.226
344,0.571483,1978.226
345,0.57315,1885.392
346,0.574817,1797.639
347,0.576483,1714.729
348,0.5781500000000001,1714.729
349,0.579817,1636.818
350,0.581483,1563.355
351,0.583133,1563.355
352,0.5848,1493.752
353,0.586467,1428.716
354,0.588133,1367.487
355,0.5898,1367.487
356,0.591467,1309.44
357,0.593133,1254.842
358,0.5948830000000001,1203.09
359,0.596467,1203.09
360,0.598167,1154.155
361,0.5998,1108.333
362,0.601467,1065.314
363,0.603133,1065.314
364,0.6048,1024.932
365,0.606467,986.472
366,0.608133,950.515
367,0.6098,950.515
368,0.611483,916.258
369,0.613133,883.467
370,0.6148,883.467
371,0.616467,852.697
372,0.618133,823.297
373,0.6198,795.439
374,0.621467,795.439
375,0.623133,769.444
376,0.6248,744.864
377,0.626467,721.03
378,0.62825,721.03
379,0.6298,698.596
380,0.631467,677.139
381,0.6331329999999999,656.59
382,0.6348,656.59
383,0.636467,637.718
384,0.638133,619.657
385,0.6398,619.657
386,0.641467,602.141
387,0.643117,585.6079999999999
388,0.644783,569.239
389,0.64645,569.239
390,0.6481170000000001,553.451
391,0.649783,538.647
392,0.65145,524.603
393,0.6531169999999999,524.603
394,0.654783,511.289
395,0.65645,498.638
396,0.658117,486.158
397,0.659783,486.158
398,0.66145,473.812
399,0.663117,462.122
400,0.664783,451.237
401,0.66645,451.237
402,0.668117,440.709
403,0.669817,430.74
404,0.67145,430.74
405,0.673117,421.248
406,0.674783,411.734
407,0.67645,403.166
408,0.678117,403.166
409,0.679783,394.814
410,0.68145,386.596
411,0.683117,378.683
412,0.684783,378.683
413,0.68645,370.681
414,0.688117,363.357
415,0.689783,356.376
416,0.69145,356.376
417,0.693117,349.656
418,0.694783,342.995
419,0.69645,342.995
420,0.698117,336.52
421,0.699783,330.605
422,0.70145,324.659
423,0.7030999999999999,324.659
424,0.704767,319.22
425,0.706433,313.766
426,0.7081,308.305
427,0.709767,308.305
428,0.711433,303.254
429,0.713167,298.262
430,0.714767,293.523
431,0.716433,293.523
432,0.7181,288.807
433,0.719767,284.329
434,0.721433,280.023
435,0.7231,280.023
436,0.7247670000000001,275.619
437,0.726433,271.589
438,0.7281,271.589
439,0.729817,267.804
440,0.731433,264.026
441,0.7331,260.673
442,0.7347669999999999,260.673
443,0.736433,257.418
444,0.7381,254.154
445,0.739767,250.936
446,0.741433,250.936
447,0.7431,247.978
448,0.744767,244.789
449,0.74655,241.615
450,0.7481,241.615
451,0.749767,238.709
452,0.751433,235.64
453,0.7531,235.64
454,0.754767,232.913
455,0.756433,230.156
456,0.7581,227.757
457,0.759767,227.757
458,0.761433,225.32
459,0.763083,222.802
460,0.76475,220.783
461,0.766417,220.783
462,0.768083,218.496
463,0.76975,216.544
464,0.771417,214.554
465,0.773083,214.554
466,0.77475,212.61
467,0.776417,210.516
468,0.778083,208.758
469,0.7797500000000001,208.758
470,0.781417,206.888
471,0.783083,204.712
472,0.7847499999999999,204.712
473,0.786417,203.453
474,0.788083,202.045
475,0.78975,200.912
476,0.791417,200.912
477,0.793083,199.929
478,0.794767,198.372
479,0.796417,196.539
480,0.798083,196.539
481,0.79975,195.079
482,0.801417,193.544
483,0.803083,192.001
484,0.80475,192.001
485,0.8064170000000001,190.549
486,0.808083,188.88
487,0.80975,188.88
488,0.811433,187.539
489,0.813083,186.488
490,0.814767,185.564
491,0.8164169999999999,185.564
492,0.818083,184.834
493,0.81975,183.895
494,0.8214,182.74
495,0.823067,182.74
496,0.824733,181.757
497,0.8264,180.729
498,0.828067,179.946
499,0.8297330000000001,179.946
500,0.831483,179.149
501,0.833067,178.21
502,0.8347329999999999,178.21
503,0.8364,177.607
504,0.838067,176.802
505,0.839733,175.916
506,0.8414,175.916
507,0.843067,175.074
508,0.844733,173.844
509,0.8464,172.69
510,0.848067,172.69
511,0.849733,172.086
512,0.8514,171.371
513,0.853067,170.618
514,0.854733,170.618
515,0.8564000000000001,170.134
516,0.858067,169.359
517,0.859717,169.046
518,0.861383,169.046
519,0.86305,168.607
520,0.864833,167.795
521,0.866383,167.795
522,0.86805,167.154
523,0.869717,166.394
524,0.871383,166.118
525,0.87305,166.118
526,0.874717,165.753
527,0.876383,165.462
528,0.87805,165.232
529,0.879717,165.232
530,0.881367,164.784
531,0.883033,164.457
532,0.8847,164.226
533,0.886367,164.226
534,0.888033,163.697
535,0.8897,163.056
536,0.891367,163.056
537,0.8930670000000001,162.84
538,0.8947000000000001,162.244
539,0.896367,161.827
540,0.898033,161.827
541,0.8997000000000001,161.551
542,0.901367,160.925
543,0.903033,160.59
544,0.9046999999999999,160.59
545,0.906367,160.284
546,0.908033,159.957
547,0.9097,160.128
548,0.911367,160.128
549,0.913033,160.053
550,0.9147,159.539
551,0.916367,159.01
552,0.918033,159.01
553,0.9197,158.302
554,0.921367,157.915
555,0.923033,157.915
556,0.9247,157.744
557,0.9263670000000001,157.52
558,0.928033,157.401
559,0.9297,157.401
560,0.9313669999999999,157.095
561,0.933033,156.932
562,0.9347,156.738
563,0.9363669999999999,156.738
564,0.938033,156.336
565,0.9397,155.844
566,0.941367,155.263
567,0.943017,155.263
568,0.9446830000000001,155.166
569,0.94635,155.099
570,0.948017,155.099
571,0.94975,155.233
572,0.95135,155.248
573,0.953017,154.726
574,0.9546829999999999,154.726
575,0.95635,154.391
576,0.958017,153.936
577,0.9597,153.743
578,0.961433,153.743
579,0.963017,153.989
580,0.964683,153.989
581,0.96635,153.661
582,0.968017,153.661
583,0.9697,153.117
584,0.97135,152.729
585,0.973017,152.335
586,0.974683,152.335
587,0.9763500000000001,152.223
588,0.978017,152.178
589,0.979683,152.178
590,0.9813499999999999,151.791
591,0.983117,151.567
592,0.984683,151.448
593,0.9863499999999999,151.448
594,0.988017,151.56
595,0.989683,151.694
596,0.99135,151.85
597,0.993017,151.85
598,0.994683,152.014
599,0.99635,151.984
600,0.998017,151.753
601,0.999683,151.753
602,1.00135,151.448
603,1.003,150.986
604,1.004667,150.986
605,1.006333,151.008
606,1.008,150.956
607,1.009667,150.748
608,1.011333,150.748
609,1.013,150.8
610,1.014667,150.397
611,1.016333,150.368
612,1.018,150.368
613,1.019667,150.338
614,1.021333,150.271
615,1.023,150.241
616,1.024667,150.241
617,1.026333,150.338
618,1.028,150.39
619,1.029667,150.39
620,1.031333,150.323
621,1.033,150.271
622,1.034683,149.921
623,1.036333,149.921
624,1.038,149.876
625,1.039667,150.032
626,1.041333,149.988
627,1.043,149.988
628,1.044667,150.241
629,1.046333,150.204
630,1.048,150.01
631,1.049667,150.01
632,1.051333,150.174
633,1.053,150.01
634,1.054667,149.928
635,1.056333,149.928
636,1.058,149.682
637,1.05965,149.496
638,1.061317,149.496
639,1.062983,149.168
640,1.06465,148.967
641,1.066317,148.885
642,1.068017,148.885
643,1.06965,148.699
644,1.071317,148.676
645,1.072983,148.408
646,1.07465,148.408
647,1.076317,148.244
648,1.077983,147.998
649,1.07965,147.916
650,1.081317,147.916
651,1.082983,148.036
652,1.084733,147.857
653,1.086317,147.857
654,1.087983,147.79
655,1.08965,147.685
656,1.091317,147.678
657,1.092983,147.678
658,1.09465,147.693
659,1.096317,147.738
660,1.097983,147.969
661,1.09965,147.969
662,1.101383,148.103
663,1.102983,148.214
664,1.104683,147.969
665,1.106317,147.969
666,1.107983,147.611
667,1.10965,147.127
668,1.111317,147.037
669,1.112983,147.037
670,1.11465,147.276
671,1.116317,147.283
672,1.117983,147.283
673,1.11965,147.507
674,1.121317,147.782
675,1.122967,147.775
676,1.124633,147.775
677,1.1263,147.685
678,1.127967,147.715
679,1.129633,147.328
680,1.1313,147.328
681,1.132967,147.06
682,1.134633,146.985
683,1.1363,146.382
684,1.137967,146.382
685,1.139633,146.344
686,1.1413,146.404
687,1.142967,146.404
688,1.144633,146.627
689,1.1463,146.97
690,1.147967,146.933
691,1.149633,146.933
692,1.151283,146.627
693,1.15295,146.337
694,1.154617,146.285
695,1.156283,146.285
696,1.15795,146.411
697,1.159617,146.717
698,1.161283,146.918
699,1.16295,146.918
700,1.164617,146.858
701,1.166283,146.583
702,1.16795,146.583
703,1.169617,146.583
704,1.171283,146.68
705,1.172967,147.022
706,1.174617,147.022
707,1.176283,147.201
708,1.17795,146.993
709,1.179617,146.776
710,1.181283,146.776
711,1.182933,146.359
712,1.1846,146.233
713,1.186333,146.456
714,1.187933,146.456
715,1.1896,146.203
716,1.191267,146.098
717,1.192933,145.845
718,1.1946,145.845
719,1.196267,145.502
720,1.197933,145.473
721,1.1996,145.473
722,1.201267,145.316
723,1.202983,145.279
724,1.2046,145.435
725,1.206267,145.435
726,1.207933,145.473
727,1.2096,145.763
728,1.211267,145.838
729,1.212933,145.838
730,1.2146,145.748
731,1.216267,145.696
732,1.217933,145.406
733,1.219633,145.406
734,1.221267,145.674
735,1.222933,145.51
736,1.2246,145.51
737,1.226267,145.577
738,1.227933,146.016
739,1.2296,145.86
740,1.231267,145.86
741,1.232933,146.203
742,1.2346,146.113
743,1.236367,145.748
744,1.237933,145.748
745,1.2396,145.569
746,1.24125,145.152
747,1.242917,145.048
748,1.244583,145.048
749,1.24625,144.936
750,1.247917,144.631
751,1.249583,144.437
752,1.2513,144.437
753,1.252917,144.735
754,1.254583,145.085
755,1.25625,145.085
756,1.257917,145.577
757,1.259583,145.659
758,1.26125,145.063
759,1.262917,145.063
760,1.264583,144.66
761,1.26625,144.817
762,1.267917,144.906
763,1.269583,144.906
764,1.27125,145.011
765,1.272917,145.122
766,1.274583,145.011
767,1.27625,145.011
768,1.277917,145.122
769,1.279583,145.338
770,1.28125,145.338
771,1.282917,145.301
772,1.284583,145.115
773,1.28625,145.234
774,1.287917,145.234
775,1.289583,145.093
776,1.29125,145.093
777,1.292917,144.958
778,1.294583,144.958
779,1.29625,144.824
780,1.297917,144.944
781,1.299583,145.033
782,1.30125,145.033
783,1.3029,145.003
784,1.304567,144.824
785,1.306233,144.78
786,1.3079,144.78
787,1.309567,144.586
788,1.311233,144.407
789,1.31295,144.407
790,1.314567,144.742
791,1.316233,144.929
792,1.3179,145.048
793,1.319567,145.048
794,1.321283,145.137
795,1.3229,144.817
796,1.324567,144.482
797,1.326233,144.482
798,1.3279,144.511
799,1.329567,144.608
800,1.331233,144.72
801,1.3329,144.72
802,1.334567,144.646
803,1.336233,144.228
804,1.337933,144.228
805,1.339567,143.96
806,1.341233,143.848
807,1.3429,143.96
808,1.344567,143.96
809,1.346233,144.087
810,1.3479,144.497
811,1.349567,144.415
812,1.351233,144.415
813,1.3529,144.355
814,1.354683,144.683
815,1.356233,144.802
816,1.3579,144.802
817,1.359583,145.219
818,1.361217,145.383
819,1.362883,144.951
820,1.36455,144.951
821,1.366217,144.698
822,1.367883,144.117
823,1.36955,144.117
824,1.371217,143.982
825,1.3729,144.571
826,1.37455,144.519
827,1.376217,144.519
828,1.377883,144.877
829,1.37955,144.966
830,1.381217,144.742
831,1.382883,144.742
832,1.38455,144.742
833,1.386233,144.69
834,1.387883,144.839
835,1.38955,144.839
836,1.391217,144.996
837,1.392883,145.011
838,1.39455,145.011
839,1.396217,144.571
840,1.397883,144.146
841,1.39955,143.923
842,1.401217,143.923
843,1.402883,144.012
844,1.40455,144.474
845,1.406217,144.66
846,1.407883,144.66
847,1.40955,144.519
848,1.411217,144.452
849,1.412883,144.482
850,1.41455,144.482
851,1.416217,144.355
852,1.417883,144.4
853,1.41955,144.4
854,1.4212,144.236
855,1.422867,144.176
856,1.424533,144.273
857,1.4262,144.273
858,1.427867,144.415
859,1.429533,144.482
860,1.4312,144.497
861,1.432867,144.497
862,1.434533,144.258
863,1.4362,143.96
864,1.437883,144.035
865,1.439617,144.035
866,1.4412,143.938
867,1.44285,143.908
868,1.444517,143.67
869,1.446183,143.67
870,1.44785,143.439
871,1.449517,143.148
872,1.451183,143.148
873,1.45285,143.588
874,1.454517,143.953
875,1.45625,143.863
876,1.45785,143.863
877,1.459517,143.833
878,1.461183,143.431
879,1.46285,143.126
880,1.464517,143.126
881,1.466183,143.312
882,1.46785,143.699
883,1.469517,144.005
884,1.471183,144.005
885,1.472967,144.251
886,1.474517,144.377
887,1.476183,144.377
888,1.47785,144.206
889,1.479517,143.93
890,1.481167,143.699
891,1.482833,143.699
892,1.4845,143.453
893,1.486167,143.491
894,1.487833,143.848
895,1.4895,143.848
896,1.491167,144.295
897,1.492833,144.482
898,1.4945,144.631
899,1.496167,144.631
900,1.497833,144.497
901,1.4995,144.154
902,1.501167,143.893
903,1.502833,143.893
904,1.5045,143.565
905,1.506167,143.252
906,1.507833,143.252
907,1.5095,143.2
908,1.511167,143.357
909,1.512833,143.699
910,1.5145,143.699
911,1.516167,143.826
912,1.517833,143.766
913,1.5195,143.707
914,1.521167,143.707
915,1.522833,143.372
916,1.5245,143.215
917,1.526167,143.208
918,1.527833,143.208
919,1.5295,143.141
920,1.5312,143.006
921,1.532833,143.006
922,1.5345,143.051
923,1.536167,143.118
924,1.537833,143.074
925,1.5395,143.074
926,1.54115,143.304
927,1.542817,143.334
928,1.544483,143.513
929,1.54615,143.513
930,1.547833,143.632
931,1.549483,143.61
932,1.55115,143.632
933,1.552817,143.632
934,1.554483,143.707
935,1.55615,143.573
936,1.557867,143.237
937,1.559483,143.237
938,1.56115,142.91
939,1.562817,142.552
940,1.564483,142.552
941,1.56615,142.217
942,1.567817,142.284
943,1.569483,142.708
944,1.57115,142.708
945,1.572817,142.865
946,1.574483,143.185
947,1.57615,143.237
948,1.577817,143.237
949,1.579483,143.118
950,1.58115,142.895
951,1.582817,143.014
952,1.584483,143.014
953,1.58615,143.021
954,1.587817,143.111
955,1.589483,143.111
956,1.59125,143.297
957,1.592817,143.342
958,1.594483,143.647
959,1.59615,143.647
960,1.597817,143.662
