"ID","sea_time","fid_signal"
1,0,142.932
2,0.001667,142.85
3,0.003333,142.775
4,0.005,142.775
5,0.006667,142.775
6,0.008333,142.477
7,0.01,142.217
8,0.0117,142.217
9,0.013333,141.963
10,0.015,141.717
11,0.016667,141.717
12,0.018333,141.524
13,0.020017,141.852
14,0.021667,142.299
15,0.023333,142.299
16,0.025,142.656
17,0.026667,142.954
18,0.028367,142.835
19,0.03,142.835
20,0.031667,142.656
21,0.033333,142.589
22,0.035,142.403
23,0.036667,142.403
24,0.038333,142.552
25,0.04,142.507
26,0.041667,142.507
27,0.043333,142.79
28,0.045117,142.82
29,0.046667,142.671
30,0.048333,142.671
31,0.05,142.872
32,0.051667,142.656
33,0.053333,142.679
34,0.055,142.679
35,0.056667,142.872
36,0.058333,142.932
37,0.060017,142.932
38,0.06165,142.932
39,0.063317,143.148
40,0.064983,143.178
41,0.06665,143.178
42,0.068317,143.163
43,0.069983,143.051
44,0.07165000000000001,142.895
45,0.07331699999999999,142.895
46,0.07498299999999999,142.79
47,0.07665,142.634
48,0.078317,142.939
49,0.079983,142.939
50,0.08165,142.939
51,0.083317,142.701
52,0.084983,142.626
53,0.08665,142.626
54,0.08831700000000001,142.448
55,0.08998299999999999,142.261
56,0.09165,142.567
57,0.093317,142.567
58,0.094983,142.969
59,0.09665,143.036
60,0.098317,143.036
61,0.099983,143.155
62,0.10165,143.29
63,0.103317,143.051
64,0.104983,143.051
65,0.10665,142.895
66,0.108317,142.895
67,0.109983,142.857
68,0.11165,142.857
69,0.113317,142.798
70,0.114983,142.857
71,0.11665,142.895
72,0.1183,142.895
73,0.119967,142.723
74,0.121633,142.746
75,0.1233,142.746
76,0.124967,142.939
77,0.126633,142.865
78,0.1283,143.051
79,0.130017,143.051
80,0.131617,142.984
81,0.133283,142.686
82,0.13495,143.051
83,0.136617,143.051
84,0.138283,143.088
85,0.13995,143.021
86,0.141617,143.17
87,0.143283,143.17
88,0.14495,142.843
89,0.146617,142.448
90,0.148283,142.552
91,0.14995,142.552
92,0.151617,142.455
93,0.153283,142.463
94,0.15495,142.463
95,0.156617,142.619
96,0.158283,142.753
97,0.15995,142.954
98,0.161617,142.954
99,0.16335,143.029
100,0.16495,142.649
101,0.166617,142.634
102,0.168283,142.634
103,0.16995,142.671
104,0.171617,142.351
105,0.173283,142.507
106,0.17495,142.507
107,0.176617,142.284
108,0.178283,142.12
109,0.179933,142.12
110,0.1816,142.373
111,0.183267,142.746
112,0.184933,142.954
113,0.1866,142.954
114,0.188267,142.954
115,0.189933,143.178
116,0.1916,143.133
117,0.193267,143.133
118,0.19495,143.148
119,0.1966,143.29
120,0.198267,142.902
121,0.199933,142.902
122,0.2016,143.036
123,0.203267,143.014
124,0.204933,142.85
125,0.2066,142.85
126,0.208267,143.029
127,0.209933,142.85
128,0.2116,142.85
129,0.213267,142.53
130,0.214933,142.612
131,0.2166,142.559
132,0.218267,142.559
133,0.219933,142.649
134,0.2216,142.91
135,0.223267,142.872
136,0.224933,142.872
137,0.2266,142.902
138,0.228267,142.82
139,0.229933,142.85
140,0.2316,142.85
141,0.233267,142.694
142,0.234933,142.656
143,0.2366,142.656
144,0.238283,142.433
145,0.239917,142.358
146,0.241583,142.597
147,0.24325,142.597
148,0.244917,142.708
149,0.246583,142.992
150,0.248317,142.88
151,0.249917,142.88
152,0.251583,142.694
153,0.25325,142.321
154,0.254917,142.097
155,0.256583,142.097
156,0.25825,142.075
157,0.259917,142.097
158,0.261583,142.097
159,0.26325,142.373
160,0.264917,142.537
161,0.266583,142.664
162,0.26825,142.664
163,0.269917,142.492
164,0.271583,142.351
165,0.27325,142.314
166,0.274917,142.314
167,0.276583,142.381
168,0.27825,142.515
169,0.279917,142.731
170,0.281683,142.731
171,0.28325,142.597
172,0.284917,142.612
173,0.286583,142.589
174,0.28825,142.589
175,0.289917,142.567
176,0.291583,142.589
177,0.29325,142.589
178,0.294917,142.403
179,0.296583,142.589
180,0.298233,142.403
181,0.2999,142.403
182,0.301567,142.455
183,0.303233,142.254
184,0.3049,142.157
185,0.306567,142.157
186,0.308233,142.09
187,0.3099,142.291
188,0.311567,142.708
189,0.313233,142.708
190,0.3149,142.649
191,0.316567,142.753
192,0.318233,142.753
193,0.3199,142.41
194,0.321567,142.522
195,0.323233,142.723
196,0.3249,142.723
197,0.326567,142.753
198,0.328233,142.865
199,0.3299,142.589
200,0.331567,142.589
201,0.333233,142.597
202,0.3349,142.649
203,0.336567,142.701
204,0.338233,142.701
205,0.3399,142.805
206,0.341567,142.857
207,0.343233,142.865
208,0.3449,142.865
209,0.346567,142.88
210,0.348233,143.141
211,0.3499,143.141
212,0.351567,142.977
213,0.353233,143.401
214,0.3549,143.394
215,0.356567,143.394
216,0.358233,143.282
217,0.359883,143.409
218,0.36155,143.111
219,0.363217,143.111
220,0.364883,143.103
221,0.366583,142.962
222,0.368217,142.954
223,0.369883,142.954
224,0.37155,142.962
225,0.373217,142.783
226,0.374883,142.783
227,0.376567,142.88
228,0.378217,142.865
229,0.379883,143.282
230,0.38155,143.282
231,0.383317,143.699
232,0.384883,144.206
233,0.38655,144.839
234,0.388217,144.839
235,0.389883,145.264
236,0.39155,145.875
237,0.393217,146.307
238,0.394883,146.307
239,0.39655,146.94
240,0.398217,147.805
241,0.399983,148.892
242,0.40155,148.892
243,0.403217,150.099
244,0.404883,150.941
245,0.40655,150.941
246,0.408217,151.433
247,0.409883,152.215
248,0.41155,152.953
249,0.413217,152.953
250,0.414883,154.167
251,0.41655,155.62
252,0.418217,156.716
253,0.419867,156.716
254,0.421533,157.699
255,0.423183,158.869
256,0.42485,159.882
257,0.426517,159.882
258,0.428183,161.238
259,0.42985,162.348
260,0.431517,162.348
261,0.433183,163.078
262,0.43485,163.95
263,0.436517,164.457
264,0.438183,164.457
265,0.43985,165.232
266,0.441517,166.245
267,0.443183,166.908
268,0.44485,166.908
269,0.446517,167.474
270,0.448183,168.093
271,0.44985,168.428
272,0.451533,168.428
273,0.453183,168.897
274,0.45485,169.151
275,0.456517,169.151
276,0.458183,169.203
277,0.45985,169.113
278,0.461517,168.674
279,0.463183,168.674
280,0.46485,168.16
281,0.466533,167.809
282,0.468183,167.146
283,0.46985,167.146
284,0.471517,166.655
285,0.473183,166.595
286,0.47485,165.947
287,0.476517,165.947
288,0.478183,165.485
289,0.479833,164.941
290,0.4815,164.405
291,0.483167,164.405
292,0.48485,163.965
293,0.4865,163.466
294,0.488167,163.466
295,0.489833,163.026
296,0.4915,162.46
297,0.493167,161.916
298,0.494833,161.916
299,0.4965,161.469
300,0.498167,160.992
301,0.499833,160.843
302,0.501567,160.843
303,0.503167,160.694
304,0.504833,160.731
305,0.5065,160.918
306,0.508167,160.918
307,0.509833,160.992
308,0.5115,161.797
309,0.513167,161.797
310,0.514833,162.736
311,0.5165,164.188
312,0.51825,165.969
313,0.519833,165.969
314,0.5215,168.383
315,0.523183,171.326
316,0.524833,174.984
317,0.5265,174.984
318,0.5281670000000001,179.82
319,0.529833,185.631
320,0.5315,192.732
321,0.5331669999999999,192.732
322,0.5349,201.091
323,0.536483,211.038
324,0.53815,222.206
325,0.539817,222.206
326,0.541483,235.803
327,0.54315,251.606
328,0.544817,251.606
329,0.5464830000000001,269.853
330,0.54815,291.198
331,0.549817,315.286
332,0.5514829999999999,315.286
333,0.55315,342.607
334,0.554817,373.423
335,0.5564829999999999,408.366
336,0.55815,408.366
337,0.559817,447.586
338,0.561483,492.059
339,0.56315,541.292
340,0.564817,541.292
341,0.566483,595.845
342,0.56815,655.696
343,0.569817,655.696
344,0.571483,721.3200000000001
345,0.57315,793.308
346,0.574817,871.919
347,0.576483,871.919
348,0.5781500000000001,957.37
349,0.579817,1049.809
350,0.581483,1149.647
351,0.5831499999999999,1149.647
352,0.584817,1256.823
353,0.586483,1371.883
354,0.58815,1494.654
355,0.589817,1494.654
356,0.591483,1625.106
357,0.593167,1763.053
358,0.594817,1909.092
359,0.596467,1909.092
360,0.59815,2062.686
361,0.5998,2223.752
362,0.601467,2223.752
363,0.60315,2392.448
364,0.6048,2567.604
365,0.606467,2749.89
366,0.608133,2749.89
367,0.6098,2938.792
368,0.611467,3134.005
369,0.613133,3334.969
370,0.6148,3334.969
371,0.616467,3540.956
372,0.618133,3751.464
373,0.619833,3965.72
374,0.621467,3965.72
375,0.623133,4184.06
376,0.6248,4405.245
377,0.626467,4405.245
378,0.6281330000000001,4628.889
379,0.6298,4854.389
380,0.631467,5080.916
381,0.6331329999999999,5080.916
382,0.6348,5308.129
383,0.636517,5535.528
384,0.638133,5762.383
385,0.6398,5762.383
386,0.641467,5987.883
387,0.643133,6211.207
388,0.6448,6432.153
389,0.646467,6432.153
390,0.648133,6650.023
391,0.6498,6864.168
392,0.651467,6864.168
393,0.653233,7074.065
394,0.6548,7279.143
395,0.65645,7478.915
396,0.658117,7478.915
397,0.659783,7673.234
398,0.66145,7862.27
399,0.663117,8044.727
400,0.664783,8044.727
401,0.66645,8220.852000000001
402,0.668117,8389.957
403,0.669783,8551.762000000001
404,0.6714830000000001,8551.762000000001
405,0.673117,8706.361000000001
406,0.674783,8853.242
407,0.67645,8992.508
408,0.678117,8992.508
409,0.679783,9123.787
410,0.68145,9247.705
411,0.683117,9247.705
412,0.684783,9363.755999999999
413,0.68645,9472.653
414,0.688117,9573.847
415,0.689783,9573.847
416,0.69145,9666.688
417,0.693117,9751.998
418,0.694783,9829.208000000001
419,0.69645,9829.208000000001
420,0.698117,9899.064
421,0.699783,9961.903
422,0.70145,10017.529
423,0.703117,10017.529
424,0.704783,10066.167
425,0.70645,10107.606
426,0.708117,10107.606
427,0.7097830000000001,10142.4
428,0.71145,10170.184
429,0.713117,10191.344
430,0.714767,10191.344
431,0.716433,10206.714
432,0.718117,10215.953
433,0.71975,10219.85
434,0.72145,10219.85
435,0.723083,10218.434
436,0.72475,10211.654
437,0.726417,10199.964
438,0.728083,10199.964
439,0.72975,10183.855
440,0.731417,10163.322
441,0.733083,10138.399
442,0.73475,10138.399
443,0.736417,10109.514
444,0.738133,10076.746
445,0.73975,10076.746
446,0.741417,10040.269
447,0.743083,10000.729
448,0.74475,9957.708000000001
449,0.746417,9957.708000000001
450,0.7480830000000001,9911.135
451,0.74975,9862.073
452,0.751417,9809.822
453,0.7530829999999999,9809.822
454,0.754783,9755.402
455,0.756417,9699.092000000001
456,0.758083,9640.692999999999
457,0.75975,9640.692999999999
458,0.761417,9580.611999999999
459,0.763083,9518.311
460,0.76475,9518.311
461,0.766417,9454.227999999999
462,0.768083,9388.326999999999
463,0.76975,9320.84
464,0.771517,9320.84
465,0.773083,9252.548000000001
466,0.77475,9182.996999999999
467,0.776417,9112.135
468,0.778083,9112.135
469,0.779733,9040.272999999999
470,0.7814,8967.183999999999
471,0.783067,8893.459999999999
472,0.784733,8893.459999999999
473,0.7864,8819.066000000001
474,0.788067,8744.321
475,0.789733,8669.004000000001
476,0.7914,8669.004000000001
477,0.793067,8593.484
478,0.794733,8517.683000000001
479,0.7964,8517.683000000001
480,0.798067,8441.493
481,0.799733,8365.393
482,0.8014,8288.741
483,0.803067,8288.741
484,0.804733,8211.754000000001
485,0.8064,8134.827
486,0.808083,8057.564
487,0.80975,8057.564
488,0.8114,7980.436
489,0.813067,7903.427
490,0.814733,7826.716
491,0.8164,7826.716
492,0.818067,7750.37
493,0.819733,7674.418
494,0.8214,7674.418
495,0.823067,7599.153
496,0.824733,7523.664
497,0.826417,7448.83
498,0.828067,7448.83
499,0.8297330000000001,7374.332
500,0.8314,7299.84
501,0.833067,7225.819
502,0.8347329999999999,7225.819
503,0.8364,7152.147
504,0.83805,7078.834
505,0.839717,7006.452
506,0.841383,7006.452
507,0.84305,6934.449
508,0.8447170000000001,6862.618
509,0.846383,6862.618
510,0.84805,6791.502
511,0.8497169999999999,6720.662
512,0.851383,6650.582
513,0.85305,6650.582
514,0.8547169999999999,6580.912
515,0.856383,6511.427
516,0.85805,6442.771
517,0.859717,6442.771
518,0.861383,6374.225
519,0.86305,6306.566
520,0.864717,6239.519
521,0.866383,6239.519
522,0.86805,6172.717
523,0.869717,6106.898
524,0.871383,6041.765
525,0.8731,6041.765
526,0.874717,5977.273
527,0.876383,5913.429
528,0.87805,5913.429
529,0.879717,5850.345
530,0.881383,5787.201
531,0.88305,5724.691
532,0.884717,5724.691
533,0.886383,5662.896
534,0.88805,5601.689
535,0.889833,5541.421
536,0.891383,5541.421
537,0.89305,5481.988
538,0.894717,5423.397
539,0.896367,5365.007
540,0.898033,5365.007
541,0.8997000000000001,5307.235
542,0.901367,5249.925
543,0.903033,5249.925
544,0.9046999999999999,5192.92
545,0.906367,5136.803
546,0.908033,5081.549
547,0.9097,5081.549
548,0.911367,5026.534
549,0.913033,4972.242
550,0.9147,4918.419
551,0.916367,4918.419
552,0.918033,4864.946
553,0.9197,4812.263
554,0.921367,4759.99
555,0.923033,4759.99
556,0.9247,4708.29
557,0.9263670000000001,4657.38
558,0.928033,4607.014
559,0.9297,4607.014
560,0.9313669999999999,4557.207
561,0.933033,4507.832
562,0.9347,4507.832
563,0.9363669999999999,4459.046
564,0.938033,4410.766
565,0.9397,4363.157
566,0.941367,4363.157
567,0.943033,4315.958
568,0.9447,4269.384
569,0.946367,4223.063
570,0.9480499999999999,4223.063
571,0.9497,4177.101
572,0.951367,4132.233
573,0.953033,4087.374
574,0.9547,4087.374
575,0.956367,4043.564
576,0.958033,3999.77
577,0.959683,3999.77
578,0.96135,3956.169
579,0.963017,3913.209
580,0.964683,3870.427
581,0.96635,3870.427
582,0.968017,3828.578
583,0.969683,3787.302
584,0.97135,3746.778
585,0.973017,3746.778
586,0.974733,3706.567
587,0.9763500000000001,3666.468
588,0.978017,3626.764
589,0.979683,3626.764
590,0.9813499999999999,3587.149
591,0.983017,3548.622
592,0.984683,3510.691
593,0.9863499999999999,3510.691
594,0.988017,3473.342
595,0.989683,3436.334
596,0.99135,3436.334
597,0.993017,3399.007
598,0.994683,3362.514
599,0.99635,3326.2
600,0.998017,3326.2
601,0.999683,3290.482
602,1.00135,3255.494
603,1.003017,3220.752
604,1.004683,3220.752
605,1.006333,3186.472
606,1.008117,3152.415
607,1.009667,3118.828
608,1.011333,3118.828
609,1.013,3085.33
610,1.014667,3052.264
611,1.016333,3052.264
612,1.017983,3019.624
613,1.01965,2987.116
614,1.021317,2955.154
615,1.023017,2955.154
616,1.02465,2923.69
617,1.026317,2892.353
618,1.027983,2861.701
619,1.02965,2861.701
620,1.031317,2831.355
621,1.032983,2801.076
622,1.03465,2771.594
623,1.036317,2771.594
624,1.037983,2742.179
625,1.03965,2713.122
626,1.041317,2713.122
627,1.042983,2684.481
628,1.04465,2656.184
629,1.046317,2627.984
630,1.047983,2627.984
631,1.04965,2600.491
632,1.051317,2572.998
633,1.052983,2545.856
634,1.05465,2545.856
635,1.056317,2519.168
636,1.057983,2492.234
637,1.05965,2466.09
638,1.061317,2466.09
639,1.062983,2439.968
640,1.06465,2414.256
641,1.066317,2389.066
642,1.067983,2389.066
643,1.06965,2363.645
644,1.071317,2338.655
645,1.072983,2338.655
646,1.07465,2314.135
647,1.0763,2289.757
648,1.077967,2266.087
649,1.079633,2266.087
650,1.0813,2242.595
651,1.082967,2218.917
652,1.084633,2195.746
653,1.0863,2195.746
654,1.087967,2172.82
655,1.08965,2149.805
656,1.0913,2127.699
657,1.093017,2127.699
658,1.094633,2105.549
659,1.0963,2083.763
660,1.097967,2083.763
661,1.099633,2062.671
662,1.1013,2041.221
663,1.102967,2020.24
664,1.104633,2020.24
665,1.1063,1999.117
666,1.107967,1977.973
667,1.109633,1957.61
668,1.1113,1957.61
669,1.112967,1937.292
670,1.114633,1917.496
671,1.1163,1898.102
672,1.117967,1898.102
673,1.119633,1878.336
674,1.1213,1858.897
675,1.122967,1839.697
676,1.124633,1839.697
677,1.126417,1820.639
678,1.127967,1802.109
679,1.129633,1802.109
680,1.1313,1783.609
681,1.132967,1764.998
682,1.134633,1746.789
683,1.1363,1746.789
684,1.13795,1728.818
685,1.13965,1711.071
686,1.141333,1693.718
687,1.14295,1693.718
688,1.144617,1676.559
689,1.146283,1659.617
690,1.14795,1643.032
691,1.149617,1643.032
692,1.151283,1626.492
693,1.15295,1609.862
694,1.154617,1609.862
695,1.156283,1593.433
696,1.15795,1577.035
697,1.159617,1561.321
698,1.161283,1561.321
699,1.162983,1545.727
700,1.164617,1530.074
701,1.166283,1514.569
702,1.16795,1514.569
703,1.169617,1499.116
704,1.171283,1484.193
705,1.17295,1469.404
706,1.174617,1469.404
707,1.176283,1455.002
708,1.17795,1440.369
709,1.179617,1425.803
710,1.181283,1425.803
711,1.18295,1411.52
712,1.184617,1397.021
713,1.186283,1397.021
714,1.18795,1382.843
715,1.189617,1368.694
716,1.191283,1354.761
717,1.19295,1354.761
718,1.194617,1341.455
719,1.196283,1328.535
720,1.197933,1315.579
721,1.1996,1315.579
722,1.201267,1302.756
723,1.202933,1289.807
724,1.2046,1276.895
725,1.206267,1276.895
726,1.207933,1264.17
727,1.2096,1251.66
728,1.211333,1239.292
729,1.212933,1239.292
730,1.2146,1226.768
731,1.216267,1214.802
732,1.217933,1214.802
733,1.2196,1202.762
734,1.221267,1190.871
735,1.222933,1179.658
736,1.224617,1179.658
737,1.226267,1168.035
738,1.227933,1156.434
739,1.229617,1144.864
740,1.231267,1144.864
741,1.232933,1133.211
742,1.2346,1121.819
743,1.236267,1110.71
744,1.23795,1110.71
745,1.2396,1100.078
746,1.241267,1089.327
747,1.242933,1089.327
748,1.244717,1078.963
749,1.246267,1068.83
750,1.247933,1058.444
751,1.2496,1058.444
752,1.251267,1048.461
753,1.252933,1038.395
754,1.2546,1028.351
755,1.256267,1028.351
756,1.257917,1018.509
757,1.259583,1008.674
758,1.26125,999.026
759,1.262917,999.026
760,1.264583,989.668
761,1.26625,980.333
762,1.267917,980.333
763,1.269583,970.908
764,1.27125,962.0119999999999
765,1.272917,952.914
766,1.274583,952.914
767,1.27625,943.877
768,1.277917,935.018
769,1.279583,925.668
770,1.28125,925.668
771,1.282917,916.615
772,1.284583,907.876
773,1.28625,899.24
774,1.287917,899.24
775,1.289583,890.918
776,1.29125,882.737
777,1.292917,882.737
778,1.294583,874.475
779,1.29625,866.622
780,1.2979,858.672
781,1.299567,858.672
782,1.301233,850.7
783,1.3029,842.921
784,1.304567,834.987
785,1.306233,834.987
786,1.307917,826.962
787,1.309567,819.311
788,1.31125,811.756
789,1.3129,811.756
790,1.314567,804.253
791,1.316233,797.048
792,1.3179,789.568
793,1.31955,789.568
794,1.321217,782.527
795,1.322883,775.65
796,1.32455,775.65
797,1.326217,768.751
798,1.327883,761.881
799,1.329583,754.751
800,1.331217,754.751
801,1.332883,747.547
802,1.33455,740.9160000000001
803,1.336217,734.6420000000001
804,1.337883,734.6420000000001
805,1.33955,728.317
806,1.341217,722.08
807,1.342883,715.777
808,1.34455,715.777
809,1.346217,709.28
810,1.347883,702.9400000000001
811,1.34955,702.9400000000001
812,1.351217,696.5549999999999
813,1.352883,689.946
814,1.35455,683.717
815,1.356217,683.717
816,1.357883,677.66
817,1.35955,672.087
818,1.361217,666.395
819,1.363,666.395
820,1.36455,660.375
821,1.366217,654.452
822,1.367883,648.402
823,1.36955,648.402
824,1.371217,642.7089999999999
825,1.372883,637.01
826,1.37455,631.407
827,1.376217,631.407
828,1.377867,625.938
829,1.37965,620.522
830,1.3812,620.522
831,1.382867,615.455
832,1.384533,610.471
833,1.3862,605.546
834,1.387883,605.546
835,1.389583,600.837
836,1.3912,595.9349999999999
837,1.392867,590.965
838,1.394533,590.965
839,1.3962,586.107
840,1.397867,580.966
841,1.399533,575.9450000000001
842,1.4012,575.9450000000001
843,1.402867,570.975
844,1.40455,565.73
845,1.4062,565.73
846,1.407867,560.85
847,1.409533,556.014
848,1.4112,551.619
849,1.412867,551.619
850,1.414533,547.3200000000001
851,1.4162,542.894
852,1.417867,538.811
853,1.419533,538.811
854,1.4212,534.311
855,1.422867,530.042
856,1.424533,525.601
857,1.4262,525.601
858,1.427867,521.228
859,1.429533,517.242
860,1.4312,517.242
861,1.432867,513.196
862,1.434533,509.366
863,1.4362,505.634
864,1.43785,505.634
865,1.439517,501.446
866,1.441183,497.304
867,1.44285,493.422
868,1.444517,493.422
869,1.446183,489.078
870,1.447867,484.943
871,1.449517,481.33
872,1.451183,481.33
873,1.452867,477.821
874,1.454517,474.826
875,1.456183,471.607
876,1.45785,471.607
877,1.459517,467.978
878,1.461183,464.179
879,1.46285,464.179
880,1.464617,460.379
881,1.466183,456.847
882,1.46785,453.398
883,1.469517,453.398
884,1.471183,449.97
885,1.47285,446.565
886,1.474517,443.272
887,1.476183,443.272
888,1.47785,440.009
889,1.479517,436.619
890,1.48125,433.408
891,1.48285,433.408
892,1.484517,430.033
893,1.486183,426.829
894,1.48785,426.829
895,1.489517,423.856
896,1.491183,420.794
897,1.49285,417.568
898,1.494517,417.568
899,1.496183,414.826
900,1.497933,411.823
901,1.4995,408.88
902,1.501167,408.88
903,1.502833,406.295
904,1.5045,403.374
905,1.506167,400.744
906,1.507833,400.744
907,1.5095,397.682
908,1.511167,394.918
909,1.512833,392.132
910,1.5145,392.132
911,1.516167,389.405
912,1.517833,386.946
913,1.5195,386.946
914,1.521167,384.562
915,1.522833,381.999
916,1.524517,379.376
917,1.526167,379.376
918,1.527833,377.066
919,1.5295,374.243
920,1.531167,371.777
921,1.532833,371.777
922,1.5345,369.184
923,1.536167,366.457
924,1.537833,364.073
925,1.5395,364.073
926,1.541167,361.316
927,1.542833,359.17
