"ID","sea_time","fid_signal"
1,0,159.226
2,0.001667,159.07
3,0.003333,158.66
4,0.005017,158.66
5,0.006667,158.325
6,0.008333,158.243
7,0.01,157.341
8,0.011667,157.341
9,0.013333,156.291
10,0.015,155.3
11,0.016667,154.562
12,0.018333,154.562
13,0.020017,154.793
14,0.021667,155.531
15,0.023333,155.531
16,0.025,155.889
17,0.026667,155.926
18,0.028333,155.866
19,0.03,155.866
20,0.031667,155.553
21,0.033333,155.784
22,0.035,155.933
23,0.036667,155.933
24,0.038333,155.911
25,0.04,156
26,0.041667,155.993
27,0.043433,155.993
28,0.045,156.082
29,0.046667,156.194
30,0.048333,156.641
31,0.05,156.641
32,0.051667,156.611
33,0.053317,156.589
34,0.054983,156.589
35,0.05665,156.425
36,0.058317,155.71
37,0.059983,155.658
38,0.06165,155.658
39,0.063317,155.963
40,0.064983,156.35
41,0.06665,156.73
42,0.068317,156.73
43,0.069983,156.745
44,0.07165000000000001,156.417
45,0.07331699999999999,156.082
46,0.07498299999999999,156.082
47,0.07665,156.239
48,0.078317,156.373
49,0.079983,156.373
50,0.081667,156.44
51,0.083317,156.701
52,0.084983,156.641
53,0.08665,156.641
54,0.08835,156.425
55,0.08998299999999999,156.492
56,0.09165,156.477
57,0.093317,156.477
58,0.094983,156.35
59,0.09665,156.485
60,0.098317,156.365
61,0.099983,156.365
62,0.10165,156.41
63,0.103317,156.73
64,0.104983,156.73
65,0.10665,156.82
66,0.108317,157.088
67,0.109983,156.805
68,0.111633,156.805
69,0.1133,156.336
70,0.114967,156.492
71,0.116633,156.179
72,0.1183,156.179
73,0.119967,155.985
74,0.121633,156.038
75,0.1233,155.68
76,0.124967,155.68
77,0.126633,155.799
78,0.12835,155.903
79,0.129967,156.231
80,0.131633,156.231
81,0.1333,156.492
82,0.134967,156.321
83,0.136633,156.321
84,0.1383,156.164
85,0.139967,155.903
86,0.141633,155.605
87,0.1433,155.605
88,0.14505,155.725
89,0.146633,155.956
90,0.1483,155.859
91,0.149967,155.859
92,0.151633,156.149
93,0.1533,156.373
94,0.154967,156.373
95,0.156633,156.373
96,0.1583,156.701
97,0.159967,156.499
98,0.16175,156.499
99,0.1633,156.499
100,0.164967,156.611
101,0.166633,156.462
102,0.1683,156.462
103,0.169983,156.336
104,0.171683,155.911
105,0.173283,155.546
106,0.17495,155.546
107,0.176617,155.427
108,0.178283,155.427
109,0.17995,155.486
110,0.181617,155.486
111,0.183283,155.658
112,0.18495,155.658
113,0.186617,155.672
114,0.188283,155.672
115,0.18995,155.874
116,0.191617,155.821
117,0.193283,155.821
118,0.19495,155.68
119,0.196617,155.851
120,0.198283,155.918
121,0.19995,155.918
122,0.201617,156.388
123,0.203283,156.887
124,0.20495,157.066
125,0.206617,157.066
126,0.208283,156.671
127,0.20995,156.313
128,0.211617,155.732
129,0.213283,155.732
130,0.21495,155.307
131,0.216617,155.501
132,0.218283,155.501
133,0.21995,155.672
134,0.221617,155.941
135,0.223283,156.127
136,0.22495,156.127
137,0.226617,156.164
138,0.228283,155.754
139,0.22995,155.665
140,0.231617,155.665
141,0.233267,155.419
142,0.234933,155.3
143,0.2366,155.486
144,0.238283,155.486
145,0.239933,155.24
146,0.2416,155.479
147,0.243267,155.665
148,0.244933,155.665
149,0.24665,155.702
150,0.248267,155.777
151,0.249933,155.777
152,0.251617,155.523
153,0.253267,155.151
154,0.254917,155.076
155,0.2566,155.076
156,0.25825,155.285
157,0.259917,155.531
158,0.261583,155.769
159,0.263367,155.769
160,0.264917,155.896
161,0.266583,155.747
162,0.26825,155.762
163,0.269917,155.762
164,0.271583,155.926
165,0.27325,155.948
166,0.274917,155.948
167,0.276583,155.836
168,0.27825,155.643
169,0.280033,155.546
170,0.281583,155.546
171,0.28325,155.389
172,0.284917,155.412
173,0.286583,155.352
174,0.28825,155.352
175,0.289917,154.965
176,0.291583,154.86
177,0.293233,154.763
178,0.2949,154.763
179,0.296567,154.555
180,0.298233,154.734
181,0.2999,154.734
182,0.301567,154.838
183,0.303233,154.883
184,0.3049,154.853
185,0.306567,154.853
186,0.308233,155.076
187,0.3099,155.263
188,0.311583,155.292
189,0.313233,155.292
190,0.3149,155.479
191,0.316567,155.106
192,0.318233,154.637
193,0.3199,154.637
194,0.321567,154.488
195,0.323233,154.361
196,0.3249,154.585
197,0.326567,154.585
198,0.328233,154.763
199,0.3299,155.158
200,0.331567,155.158
201,0.333233,155.605
202,0.3349,155.62
203,0.336583,155.449
204,0.338233,155.449
205,0.3399,155.173
206,0.341567,154.86
207,0.343233,154.875
208,0.3449,154.875
209,0.346567,154.778
210,0.348233,154.473
211,0.3499,154.48
212,0.351567,154.48
213,0.353217,154.257
214,0.354883,154.354
215,0.35655,154.354
216,0.358217,154.614
217,0.359883,154.883
218,0.36155,155.233
219,0.363217,155.233
220,0.364883,155.523
221,0.36655,155.471
222,0.368217,154.972
223,0.369883,154.972
224,0.37155,154.786
225,0.373217,154.495
226,0.374883,154.503
227,0.37655,154.503
228,0.378217,154.622
229,0.379883,154.51
230,0.381633,154.86
231,0.383217,154.86
232,0.384883,154.95
233,0.38655,155.024
234,0.388217,155.024
235,0.389883,155.263
236,0.39155,155.3
237,0.393217,155.65
238,0.394883,155.65
239,0.39655,155.717
240,0.398283,155.523
241,0.399883,155.352
242,0.40155,155.352
243,0.403217,155.114
244,0.404883,155.412
245,0.40655,156.067
246,0.408217,156.067
247,0.409883,156.85
248,0.411533,157.952
249,0.4132,157.952
250,0.414983,159.763
251,0.416533,163.011
252,0.4182,169.307
253,0.419867,169.307
254,0.421533,180.155
255,0.4232,198.387
256,0.424867,228.226
257,0.426533,228.226
258,0.4282,274.315
259,0.429867,343.561
260,0.431533,443.846
261,0.4332,443.846
262,0.434867,583.313
263,0.436533,771.768
264,0.4382,1019.12
265,0.439867,1019.12
266,0.441533,1333.244
267,0.4432,1721.919
268,0.444867,1721.919
269,0.446533,2190.702
270,0.4482,2741.59
271,0.449867,3374.979
272,0.451533,3374.979
273,0.4532,4087.426
274,0.454867,4872.225
275,0.456533,5720.869
276,0.4582,5720.869
277,0.459867,6622.203
278,0.461533,7562.883
279,0.4632,8528.464
280,0.464867,8528.464
281,0.466533,9503.141
282,0.4682,10471.105
283,0.469867,10471.105
284,0.471517,11417.516
285,0.473183,12327.857
286,0.47485,13188.668
287,0.476517,13188.668
288,0.478183,13986.997
289,0.47985,14711.634
290,0.481517,15354.037
291,0.483183,15354.037
292,0.484867,15908.13
293,0.486517,16370.073
294,0.488183,16738.84
295,0.48985,16738.84
296,0.491517,17013.945
297,0.493183,17197.273
298,0.49485,17293.014
299,0.496517,17293.014
300,0.498183,17305.121
301,0.4999,17239.996
302,0.501533,17239.996
303,0.503183,17104.537
304,0.50485,16905.904
305,0.506517,16652.436
306,0.5081830000000001,16652.436
307,0.50985,16351.655
308,0.511517,16011.186
309,0.5131829999999999,15637.875
310,0.51485,15637.875
311,0.516567,15238.024
312,0.5181829999999999,14818.064
313,0.51985,14383.331
314,0.521517,14383.331
315,0.5232,13938.665
316,0.52485,13488.576
317,0.526517,13488.576
318,0.528183,13037.168
319,0.52985,12587.368
320,0.5315,12142.323
321,0.5333,12142.323
322,0.534833,11704.355
323,0.5365,11274.927
324,0.538167,10855.66
325,0.539833,10855.66
326,0.5415,10447.517
327,0.543167,10051.116
328,0.544833,9667.344999999999
329,0.5464830000000001,9667.344999999999
330,0.54815,9296.663
331,0.549817,8939.304
332,0.5514829999999999,8939.304
333,0.55315,8595.653
334,0.554817,8265.212
335,0.5564829999999999,7948.085
336,0.55815,7948.085
337,0.559817,7644.154
338,0.561483,7353.03
339,0.56315,7074.557
340,0.564817,7074.557
341,0.566483,6808.296
342,0.56815,6553.814
343,0.569817,6310.806
344,0.571483,6310.806
345,0.57315,6079.115
346,0.574817,5858.056
347,0.576483,5647.063
348,0.5781500000000001,5647.063
349,0.579817,5445.488
350,0.581483,5252.793
351,0.5831499999999999,5252.793
352,0.584817,5068.831
353,0.586483,4892.938
354,0.58815,4725.233
355,0.589817,4725.233
356,0.591483,4564.785
357,0.593167,4411.042
358,0.5948,4264.556
359,0.596467,4264.556
360,0.598133,4124.045
361,0.5998,3989.883
362,0.601467,3861.912
363,0.603133,3861.912
364,0.6048,3739.513
365,0.606467,3622.316
366,0.608133,3622.316
367,0.6098,3510.244
368,0.611467,3402.494
369,0.613133,3299.154
370,0.6148,3299.154
371,0.616467,3200.367
372,0.618133,3105.178
373,0.6198,3014.021
374,0.621467,3014.021
375,0.623133,2926.335
376,0.6248,2842.054
377,0.626467,2761.506
378,0.6281330000000001,2761.506
379,0.6298,2683.945
380,0.631467,2609.327
381,0.6331329999999999,2537.631
382,0.6348,2537.631
383,0.636467,2468.66
384,0.638133,2402.559
385,0.6398,2402.559
386,0.641467,2338.894
387,0.643133,2277.635
388,0.6448,2218.239
389,0.646467,2218.239
390,0.648133,2160.825
391,0.6498,2105.81
392,0.651583,2052.27
393,0.6531169999999999,2052.27
394,0.654783,2001.114
395,0.65645,1951.784
396,0.658117,1903.892
397,0.6598000000000001,1903.892
398,0.66145,1858.093
399,0.663117,1813.665
400,0.664783,1813.665
401,0.66645,1770.601
402,0.668183,1728.944
403,0.669783,1688.391
404,0.67145,1688.391
405,0.673117,1649.38
406,0.674783,1611.888
407,0.67645,1575.589
408,0.678117,1575.589
409,0.679783,1540.579
410,0.68145,1506.574
411,0.683117,1473.509
412,0.684783,1473.509
413,0.68645,1441.889
414,0.688117,1411.021
415,0.689783,1381.002
416,0.69145,1381.002
417,0.693117,1351.953
418,0.694783,1323.387
419,0.69645,1323.387
420,0.698117,1296.177
421,0.699783,1269.884
422,0.70145,1244.225
423,0.703117,1244.225
424,0.704783,1219.571
425,0.70645,1195.49
426,0.708117,1172.215
427,0.7097830000000001,1172.215
428,0.71145,1149.677
429,0.7131,1127.668
430,0.714767,1106.366
431,0.716433,1106.366
432,0.7181,1085.326
433,0.719767,1065.113
434,0.721433,1065.113
435,0.7231,1045.704
436,0.7247670000000001,1026.772
437,0.726433,1008.555
438,0.7281,1008.555
439,0.7297670000000001,990.659
440,0.731433,972.845
441,0.7331,955.671
442,0.7347669999999999,955.671
443,0.736483,938.825
444,0.7381,922.441
445,0.739767,906.989
446,0.741433,906.989
447,0.7431,892.073
448,0.744767,877.425
449,0.746433,877.425
450,0.7481,863.4109999999999
451,0.749767,849.359
452,0.751433,835.292
453,0.7531,835.292
454,0.754767,821.814
455,0.756433,808.731
456,0.7581,796.266
457,0.759767,796.266
458,0.761433,784.129
459,0.7631,772.461
460,0.764767,761.256
461,0.766433,761.256
462,0.7681,750.072
463,0.769883,739.314
464,0.771417,728.592
465,0.773083,728.592
466,0.77475,717.655
467,0.776417,707.366
468,0.778083,707.366
469,0.7797500000000001,697.196
470,0.781417,687.413
471,0.783083,677.824
472,0.7847499999999999,677.824
473,0.786417,668.176
474,0.788083,658.87
475,0.78975,649.9589999999999
476,0.791417,649.9589999999999
477,0.793083,641.383
478,0.79475,633.352
479,0.796417,625.245
480,0.798083,625.245
481,0.79975,617.4450000000001
482,0.801417,609.8150000000001
483,0.803083,609.8150000000001
484,0.80475,601.999
485,0.8064170000000001,594.668
486,0.808083,587.106
487,0.80975,587.106
488,0.8114170000000001,579.64
489,0.8131,572.301
490,0.81475,565.402
491,0.8164169999999999,565.402
492,0.818083,558.808
493,0.81975,552.438
494,0.821417,546.12
495,0.823083,546.12
496,0.82475,539.854
497,0.826417,533.774
498,0.828083,528.298
499,0.82975,528.298
500,0.8314,522.994
501,0.833067,517.681
502,0.8347329999999999,517.681
503,0.8364,512.16
504,0.83805,506.386
505,0.839717,500.895
506,0.841383,500.895
507,0.84305,495.426
508,0.8447170000000001,490.375
509,0.846383,485.495
510,0.84805,485.495
511,0.8497169999999999,480.503
512,0.851383,475.831
513,0.85305,471.137
514,0.8547670000000001,471.137
515,0.856383,466.309
516,0.85805,461.698
517,0.859717,461.698
518,0.861383,456.966
519,0.86305,452.399
520,0.864717,448.257
521,0.866383,448.257
522,0.86805,444.166
523,0.869717,440.493
524,0.8714,436.641
525,0.87305,436.641
526,0.874717,432.663
527,0.876383,428.818
528,0.87805,425.033
529,0.879717,425.033
530,0.881383,421.323
531,0.883067,417.62
532,0.884717,417.62
533,0.886383,414.141
534,0.88815,410.564
535,0.889717,407.204
536,0.891383,407.204
537,0.893033,404
538,0.8947000000000001,400.767
539,0.896367,397.474
540,0.898033,397.474
541,0.8997000000000001,394.575
542,0.901367,391.99
543,0.903033,389.166
544,0.9046999999999999,389.166
545,0.906367,386.462
546,0.908033,383.601
547,0.9097,380.337
548,0.911367,380.337
549,0.913033,377.23
550,0.9147,374.556
551,0.916367,374.556
552,0.918033,371.695
553,0.9197,369.266
554,0.921367,366.837
555,0.923033,366.837
556,0.9247,363.827
557,0.9263670000000001,361.122
558,0.928033,358.373
559,0.9297,358.373
560,0.9313669999999999,355.735
561,0.933033,353.388
562,0.9347,351.146
563,0.9363669999999999,351.146
564,0.938033,349.09
565,0.9397,347.108
566,0.941367,347.108
567,0.943033,344.738
568,0.9447,342.66
569,0.946367,340.246
570,0.948033,340.246
571,0.9497,337.809
572,0.951367,335.813
573,0.953017,333.488
574,0.954717,333.488
575,0.9564,331.797
576,0.958017,330.023
577,0.959683,328.176
578,0.96135,328.176
579,0.963017,326.499
580,0.964683,324.473
581,0.96635,322.662
582,0.968017,322.662
583,0.969683,321.105
584,0.97135,319.339
585,0.973067,319.339
586,0.974683,317.678
587,0.9763500000000001,316.024
588,0.978017,314.169
589,0.979683,314.169
590,0.9813499999999999,312.671
591,0.983017,311.039
592,0.984683,309.43
593,0.9863499999999999,309.43
594,0.988017,307.806
595,0.98975,305.779
596,0.99135,304.066
597,0.993017,304.066
598,0.994683,302.531
599,0.99635,300.84
600,0.998017,300.84
601,0.999683,299.476
602,1.00135,297.956
603,1.003017,296.377
604,1.004683,296.377
605,1.00645,295.281
606,1.008017,293.799
607,1.009683,292.704
608,1.01135,292.704
609,1.013,291.504
610,1.014667,289.82
611,1.016333,288.427
612,1.018,288.427
613,1.019667,286.78
614,1.021333,285.335
615,1.023,284.202
616,1.024667,284.202
617,1.026333,283.211
618,1.028,281.945
619,1.0297,281.945
620,1.031417,280.768
621,1.033,279.553
622,1.034667,278.257
623,1.036333,278.257
624,1.038,276.878
625,1.039667,275.582
626,1.041333,274.412
627,1.043,274.412
628,1.044667,273.429
629,1.046333,272.587
630,1.048,271.715
631,1.049667,271.715
632,1.051333,271.067
633,1.053,269.964
634,1.054667,269.964
635,1.056333,269.085
636,1.058,268.169
637,1.059667,266.813
638,1.061333,266.813
639,1.063,265.636
640,1.064667,264.637
641,1.066333,263.222
642,1.068,263.222
643,1.069667,262.238
644,1.071333,261.188
645,1.072983,260.323
646,1.07465,260.323
647,1.076317,259.563
648,1.077983,258.476
649,1.07965,257.79
650,1.081317,257.79
651,1.082983,256.941
652,1.08465,256.084
653,1.086317,256.084
654,1.087983,255.406
655,1.08965,254.564
656,1.091383,253.625
657,1.092983,253.625
658,1.0947,252.753
659,1.096317,251.763
660,1.097983,250.891
661,1.09965,250.891
662,1.101317,249.915
663,1.102983,249.282
664,1.10465,248.916
665,1.106317,248.916
666,1.108033,248.164
667,1.10965,247.255
668,1.111317,247.255
669,1.112983,246.398
670,1.11465,245.243
671,1.116333,244.498
672,1.117983,244.498
673,1.11965,243.843
674,1.121317,243.276
675,1.122983,242.926
676,1.12475,242.926
677,1.126317,242.285
678,1.127983,241.637
679,1.129633,240.915
680,1.1313,240.915
681,1.13295,239.901
682,1.134617,239.104
683,1.136283,239.104
684,1.13795,238.463
685,1.139617,237.644
686,1.141283,237.13
687,1.14295,237.13
688,1.144617,236.571
689,1.146283,235.99
690,1.14795,235.811
691,1.149617,235.811
692,1.151283,235.446
693,1.15295,235.066
694,1.154617,234.559
695,1.156283,234.559
696,1.15795,233.531
697,1.159617,232.756
698,1.161283,232.138
699,1.16295,232.138
700,1.164617,231.46
701,1.166283,230.856
702,1.167983,230.856
703,1.169617,230.193
704,1.171283,229.411
705,1.17295,228.874
706,1.174617,228.874
707,1.176283,228.219
708,1.17795,227.667
709,1.179617,227.228
710,1.181283,227.228
711,1.18295,226.513
712,1.184617,226.185
713,1.186283,225.738
714,1.18795,225.738
715,1.189617,225.089
716,1.191267,224.68
717,1.192933,224.68
718,1.1946,224.106
719,1.196267,223.786
720,1.197933,223.391
721,1.1996,223.391
722,1.201267,222.78
723,1.202933,222.512
724,1.2046,222.042
725,1.206267,222.042
726,1.207933,221.454
727,1.2096,220.992
728,1.211267,220.209
729,1.212933,220.209
730,1.2146,219.502
731,1.216267,218.98
732,1.217933,218.607
733,1.2196,218.607
734,1.221267,218.451
735,1.222933,217.915
736,1.2246,217.915
737,1.226333,217.46
738,1.227933,216.842
739,1.2296,216.052
740,1.231267,216.052
741,1.232933,215.672
742,1.2346,215.657
743,1.236267,215.627
744,1.237967,215.627
745,1.2396,215.583
746,1.241267,215.329
747,1.242933,214.592
748,1.2446,214.592
749,1.246267,213.996
750,1.247933,213.586
751,1.2496,213.586
752,1.251267,213.325
753,1.252917,213.169
754,1.254583,212.982
755,1.25625,212.982
756,1.257917,212.476
757,1.259717,211.731
758,1.26125,211.373
759,1.262917,211.373
760,1.264583,210.464
761,1.26625,209.957
762,1.267917,209.436
763,1.269583,209.436
764,1.27125,208.773
765,1.272917,208.78
766,1.274583,208.236
767,1.27625,208.236
768,1.277917,208.005
769,1.279583,207.581
770,1.28125,207.581
771,1.282917,207.223
772,1.284583,207.499
773,1.28625,207.528
774,1.287917,207.528
775,1.289583,207.35
776,1.291267,207.193
777,1.292917,206.441
778,1.294583,206.441
779,1.29625,206.217
780,1.297917,205.912
781,1.299583,205.509
782,1.30125,205.509
783,1.302917,205.047
784,1.304583,204.168
785,1.30625,204.168
786,1.307917,203.669
787,1.3096,202.991
788,1.311283,203.036
789,1.312933,203.036
790,1.314567,202.812
791,1.316233,202.619
792,1.3179,202.529
793,1.319567,202.529
794,1.321233,202.157
795,1.3229,202.022
796,1.324567,202.097
797,1.326233,202.097
798,1.3279,201.814
799,1.329567,201.59
800,1.331233,201.59
801,1.3329,201.248
802,1.334567,200.845
803,1.336233,200.83
804,1.3379,200.83
805,1.339567,200.428
806,1.341233,200.264
807,1.3429,199.907
808,1.344567,199.907
809,1.346233,199.355
810,1.3479,199.258
811,1.349567,198.744
812,1.351233,198.744
813,1.3529,198.208
814,1.354567,197.701
815,1.356233,197.44
816,1.3579,197.44
817,1.359567,197.425
818,1.361267,197.478
819,1.3629,197.478
820,1.364567,197.597
821,1.366233,197.247
822,1.3679,196.822
823,1.369567,196.822
824,1.371233,196.233
825,1.372883,195.824
826,1.37455,195.488
827,1.376217,195.488
828,1.378017,195.421
829,1.37955,195.526
830,1.381217,195.466
831,1.382883,195.466
832,1.38455,195.123
833,1.386217,194.833
834,1.3879,194.833
835,1.389617,194.415
836,1.391217,194.11
837,1.392883,194.065
838,1.39455,194.065
839,1.396217,193.849
840,1.397883,194.006
841,1.39955,193.916
842,1.401217,193.916
843,1.402883,193.492
844,1.40455,193.38
845,1.406217,192.724
846,1.407883,192.724
847,1.40955,192.188
848,1.411217,191.912
849,1.412883,191.391
850,1.41455,191.391
851,1.416217,191.197
852,1.417883,191.13
853,1.41955,191.13
854,1.4212,191.048
855,1.422867,191.003
856,1.424533,191.003
857,1.4262,191.003
858,1.427867,191.063
859,1.429533,190.973
860,1.4312,191.04
861,1.43285,191.04
862,1.434517,191.107
863,1.436183,190.757
864,1.43785,190.631
865,1.439517,190.631
866,1.441183,190.303
867,1.44285,189.707
868,1.444517,189.707
869,1.4462,189.461
870,1.44785,189.297
871,1.449517,188.932
872,1.451183,188.932
873,1.45285,188.902
874,1.45455,188.79
875,1.456183,188.678
876,1.45785,188.678
877,1.459533,188.619
878,1.461183,188.187
879,1.462867,188.06
880,1.464517,188.06
881,1.4662,187.568
882,1.46785,187.337
883,1.469517,187.084
884,1.471183,187.084
885,1.47285,186.697
886,1.474517,186.503
887,1.476183,186.503
888,1.47785,186.436
889,1.479517,186.592
890,1.481183,186.458
891,1.48285,186.458
892,1.484517,186.406
893,1.486183,186.063
894,1.48785,185.639
895,1.489517,185.639
896,1.491167,185.333
897,1.492833,185.08
898,1.4945,184.968
899,1.496283,184.968
900,1.497833,185.11
901,1.4995,185.423
902,1.501167,185.423
903,1.502833,185.139
904,1.5045,184.953
905,1.506167,184.439
906,1.507833,184.439
907,1.5095,183.977
908,1.511167,184.074
909,1.512833,183.895
910,1.5145,183.895
911,1.516167,183.865
912,1.517833,183.932
913,1.5195,183.702
914,1.521167,183.702
915,1.522833,183.538
916,1.5245,183.389
917,1.526167,183.389
918,1.527833,183.15
919,1.5295,183.195
920,1.531183,183.403
921,1.532833,183.403
922,1.5345,183.366
923,1.536167,183.031
924,1.537833,182.599
925,1.5395,182.599
926,1.541167,181.854
927,1.542833,181.913
928,1.544517,182.122
929,1.546167,182.122
930,1.547833,182.427
931,1.5495,182.822
932,1.55115,182.427
933,1.552817,182.427
934,1.554483,182.01
935,1.55615,181.511
936,1.557817,181.511
937,1.559483,181.25
938,1.56115,181.109
939,1.562817,181.139
940,1.564483,181.139
941,1.56615,181.146
942,1.567817,181.168
943,1.569483,180.945
944,1.57115,180.945
945,1.572817,180.55
946,1.574483,180.23
947,1.57615,179.663
948,1.577817,179.663
949,1.579483,179.581
950,1.5812,179.701
951,1.582817,179.701
