"ID","sea_time","fid_signal"
1,0,145.197
2,0.001667,144.78
3,0.003333,144.78
4,0.005,144.966
5,0.006667,144.608
6,0.008333,144.251
7,0.01,144.251
8,0.011667,143.796
9,0.013333,143.386
10,0.015,143.297
11,0.016667,143.297
12,0.018333,143.252
13,0.02,143.707
14,0.021667,143.707
15,0.023333,143.707
16,0.025,143.901
17,0.026667,144.34
18,0.028333,144.34
19,0.03,143.975
20,0.031667,143.878
21,0.033383,143.826
22,0.035,143.826
23,0.036667,144.012
24,0.038333,144.295
25,0.04,144.519
26,0.041667,144.519
27,0.043317,144.78
28,0.044983,144.28
29,0.04665,144.28
30,0.048317,144.117
31,0.05005,143.915
32,0.05165,143.759
33,0.053317,143.759
34,0.055,143.819
35,0.05665,143.759
36,0.058317,143.893
37,0.059983,143.893
38,0.06165,143.789
39,0.063317,144.094
40,0.064983,144.251
41,0.06675,144.251
42,0.068317,144.489
43,0.069983,144.683
44,0.07165000000000001,144.34
45,0.07331699999999999,144.34
46,0.07498299999999999,144.571
47,0.07665,144.139
48,0.078317,144.139
49,0.079983,143.796
50,0.08168300000000001,144.027
51,0.083317,143.878
52,0.084983,143.878
53,0.08665,144.221
54,0.08831700000000001,144.474
55,0.08998299999999999,144.243
56,0.09165,144.243
57,0.093317,144.295
58,0.094983,144.362
59,0.09665,144.407
60,0.098317,144.407
61,0.099983,144.474
62,0.101633,144.43
63,0.1033,144.43
64,0.104967,144.31
65,0.106633,144.072
66,0.1083,144.199
67,0.109967,144.199
68,0.111633,144.251
69,0.1133,144.079
70,0.114967,143.915
71,0.116633,143.915
72,0.1183,144.005
73,0.119967,143.96
74,0.121633,144.184
75,0.1233,144.184
76,0.124967,144.579
77,0.126633,144.541
78,0.1283,144.541
79,0.129967,144.646
80,0.131633,144.579
81,0.1333,144.31
82,0.134967,144.31
83,0.136633,143.93
84,0.1383,143.833
85,0.139967,143.617
86,0.141633,143.617
87,0.1433,143.588
88,0.144967,143.684
89,0.146633,143.684
90,0.1483,143.684
91,0.149967,143.901
92,0.1517,144.184
93,0.1533,144.601
94,0.154967,144.601
95,0.156633,144.303
96,0.1583,144.392
97,0.159967,144.392
98,0.161633,144.057
99,0.163283,143.938
100,0.16495,144.228
101,0.166617,144.228
102,0.168283,144.146
103,0.16995,144.444
104,0.171617,144.534
105,0.173283,144.534
106,0.17495,144.601
107,0.176617,144.623
108,0.178283,144.288
109,0.17995,144.288
110,0.181617,143.893
111,0.183283,143.819
112,0.185017,143.789
113,0.186617,143.789
114,0.188283,143.886
115,0.18995,144.079
116,0.191617,144.079
117,0.193283,143.915
118,0.194967,144.064
119,0.196617,144.444
120,0.198283,144.444
121,0.19995,144.608
122,0.201617,144.646
123,0.203283,144.288
124,0.20495,144.288
125,0.206617,144.005
126,0.208283,143.737
127,0.20995,143.729
128,0.211617,143.729
129,0.213283,143.729
130,0.21495,143.625
131,0.216617,143.625
132,0.218283,143.833
133,0.21995,143.707
134,0.221617,143.804
135,0.223267,143.804
136,0.224933,143.759
137,0.2266,143.595
138,0.228267,143.707
139,0.229933,143.707
140,0.2316,143.99
141,0.233267,144.385
142,0.234917,144.422
143,0.236583,144.422
144,0.23825,144.318
145,0.239917,144.005
146,0.2416,144.005
147,0.24325,143.766
148,0.244917,143.789
149,0.246583,143.714
150,0.24825,143.714
151,0.249917,143.617
152,0.251583,143.319
153,0.25325,143.372
154,0.254917,143.372
155,0.256583,143.528
156,0.25825,143.759
157,0.259917,144.407
158,0.261583,144.407
159,0.26325,144.571
160,0.264917,144.728
161,0.266583,144.534
162,0.26825,144.534
163,0.269967,144.258
164,0.271583,144.139
165,0.27325,144.139
166,0.274917,144.064
167,0.276583,144.169
168,0.27825,144.124
169,0.279917,144.124
170,0.281583,143.684
171,0.283233,143.468
172,0.2849,143.729
173,0.286567,143.729
174,0.288233,143.766
175,0.2899,144.079
176,0.291567,144.124
177,0.293233,144.124
178,0.2949,143.781
179,0.296567,143.617
180,0.298233,143.617
181,0.2999,143.506
182,0.301567,143.722
183,0.303233,144.012
184,0.3049,144.012
185,0.306567,144.258
186,0.308233,144.541
187,0.3099,144.377
188,0.311567,144.377
189,0.313233,144.362
190,0.3149,144.43
191,0.316567,144.921
192,0.318233,144.921
193,0.3199,145.942
194,0.321567,146.694
195,0.323233,146.694
196,0.3249,147.849
197,0.326567,149.049
198,0.328233,151.001
199,0.3299,151.001
200,0.331567,153.549
201,0.333233,156.671
202,0.3349,160.955
203,0.336567,160.955
204,0.338233,166.215
205,0.3399,173.271
206,0.341567,182.018
207,0.343217,182.018
208,0.344883,192.94
209,0.34655,205.897
210,0.348217,221.588
211,0.349883,221.588
212,0.35155,240.169
213,0.353217,261.679
214,0.354883,261.679
215,0.35655,287.145
216,0.358217,316.389
217,0.359883,350.349
218,0.36155,350.349
219,0.363217,389.121
220,0.364883,433.274
221,0.36655,483.021
222,0.368217,483.021
223,0.369883,538.364
224,0.37155,600.025
225,0.373217,667.423
226,0.374883,667.423
227,0.37655,741.3099999999999
228,0.378217,822.306
229,0.379883,822.306
230,0.38155,909.85
231,0.383217,1004.39
232,0.384883,1106.173
233,0.38655,1106.173
234,0.388283,1215.302
235,0.389883,1332.037
236,0.39155,1456.991
237,0.393217,1456.991
238,0.394883,1590.423
239,0.39655,1732.379
240,0.398217,1883.395
241,0.3999,1883.395
242,0.40155,2044.26
243,0.403233,2215.713
244,0.404867,2399.243
245,0.406533,2399.243
246,0.4082,2596.93
247,0.409867,2810.866
248,0.411533,2810.866
249,0.4132,3043.726
250,0.414867,3299.512
251,0.416533,3582.984
252,0.4182,3582.984
253,0.419867,3899.738
254,0.421667,4257.5
255,0.4232,4663.602
256,0.424867,4663.602
257,0.426533,5127.534
258,0.4282,5659.267
259,0.429867,6269.127
260,0.431533,6269.127
261,0.4332,6967.873
262,0.434867,7766.075
263,0.436533,7766.075
264,0.4382,8674.129999999999
265,0.439867,9700.037
266,0.441533,10851.331
267,0.4432,10851.331
268,0.444867,12132.235
269,0.446533,13544.47
270,0.4482,15086.904
271,0.449867,15086.904
272,0.451533,16754.449
273,0.4532,18536.775
274,0.454867,20419.217
275,0.456533,20419.217
276,0.4582,22382.088
277,0.459867,24399.414
278,0.461533,26441.24
279,0.463183,26441.24
280,0.46485,28473.943
281,0.466517,30460.393
282,0.468183,30460.393
283,0.46985,32364.91
284,0.471517,34152.387
285,0.4732,35789.207
286,0.47485,35789.207
287,0.476517,37247.18
288,0.478183,38502.34
289,0.47985,39536.746
290,0.481517,39536.746
291,0.483183,40337.668
292,0.484867,40898.918
293,0.486517,41220.063
294,0.488183,41220.063
295,0.48985,41305.586
296,0.491517,41164.582
297,0.493183,41164.582
298,0.49485,40811.598
299,0.496517,40264.414
300,0.498183,39544.012
301,0.49985,39544.012
302,0.501517,38673.992
303,0.503183,37677.43
304,0.50485,36576.137
305,0.506533,36576.137
306,0.5081830000000001,35390.34
307,0.50985,34140.258
308,0.511533,32844.215
309,0.5131829999999999,32844.215
310,0.51485,31518.475
311,0.516517,30179.336
312,0.5181829999999999,30179.336
313,0.51985,28840.258
314,0.5215,27512.496
315,0.52325,26206.648
316,0.524833,26206.648
317,0.526483,24930.627
318,0.52815,23690.775
319,0.529817,22491.85
320,0.531483,22491.85
321,0.53315,21337.354
322,0.534817,20229.676
323,0.536483,19170.68
324,0.53815,19170.68
325,0.539817,18161.305
326,0.541483,17201.781
327,0.54315,16290.978
328,0.544817,16290.978
329,0.5464830000000001,15427.977
330,0.54815,14611.14
331,0.549817,14611.14
332,0.5514829999999999,13839.096
333,0.55315,13110.548
334,0.554817,12423.456
335,0.5564829999999999,12423.456
336,0.55815,11776.254
337,0.559817,11166.118
338,0.561483,10591.648
339,0.56315,10591.648
340,0.564817,10050.796
341,0.566483,9541.398999999999
342,0.56815,9062.424000000001
343,0.569817,9062.424000000001
344,0.571483,8611.947
345,0.57315,8187.979
346,0.574817,8187.979
347,0.576483,7789.657
348,0.5781500000000001,7414.952
349,0.579817,7062.286
350,0.581467,7062.286
351,0.583133,6730.706
352,0.5848,6418.221
353,0.586467,6123.595
354,0.588133,6123.595
355,0.5898,5845.941
356,0.591467,5584.337
357,0.593133,5337.693
358,0.5948,5337.693
359,0.596467,5105.473
360,0.598133,4886.173
361,0.5998,4678.771
362,0.601467,4678.771
363,0.603133,4482.664
364,0.6048,4297.204
365,0.606467,4297.204
366,0.608133,4121.892
367,0.6098,3955.781
368,0.611467,3798.313
369,0.613133,3798.313
370,0.6148169999999999,3648.892
371,0.616467,3507.227
372,0.618133,3372.505
373,0.6198,3372.505
374,0.621467,3244.609
375,0.623133,3122.97
376,0.6248,3007.285
377,0.626467,3007.285
378,0.6281330000000001,2897.397
379,0.6298,2792.805
380,0.631467,2792.805
381,0.6331329999999999,2692.886
382,0.6348,2597.205
383,0.636467,2505.943
384,0.638133,2505.943
385,0.6398,2418.421
386,0.641517,2334.855
387,0.643117,2254.926
388,0.644783,2254.926
389,0.64645,2178.498
390,0.6481170000000001,2105.549
391,0.649783,2035.581
392,0.651467,2035.581
393,0.6531169999999999,1968.361
394,0.654783,1903.899
395,0.65645,1842.149
396,0.65815,1842.149
397,0.659783,1782.849
398,0.66145,1726.046
399,0.663117,1726.046
400,0.664783,1671.068
401,0.66645,1618.08
402,0.668117,1567.23
403,0.669783,1567.23
404,0.67145,1518.592
405,0.673117,1471.847
406,0.674883,1426.615
407,0.67645,1426.615
408,0.678117,1383.618
409,0.679783,1341.596
410,0.68145,1301.713
411,0.683117,1301.713
412,0.684783,1263.253
413,0.686467,1225.598
414,0.688117,1225.598
415,0.6898,1189.768
416,0.69145,1154.855
417,0.693117,1121.61
418,0.694783,1121.61
419,0.69645,1089.603
420,0.698117,1058.601
421,0.699783,1028.977
422,0.70145,1028.977
423,0.7030999999999999,999.898
424,0.704767,972.04
425,0.706433,945.203
426,0.7081,945.203
427,0.709767,918.925
428,0.711433,894.301
429,0.7131,894.301
430,0.714767,870.042
431,0.716433,846.766
432,0.7181,824.34
433,0.719767,824.34
434,0.721433,802.383
435,0.7231,781.372
436,0.7247670000000001,761.025
437,0.726433,761.025
438,0.7281,741.6079999999999
439,0.7297670000000001,722.803
440,0.731433,704.855
441,0.7331,704.855
442,0.734783,687.338
443,0.736433,670.321
444,0.7381,654.079
445,0.739767,654.079
446,0.741433,638.247
447,0.7431,623.263
448,0.744767,623.263
449,0.746433,608.571
450,0.7481,594.035
451,0.749767,580.303
452,0.751433,580.303
453,0.7531,566.937
454,0.754767,553.898
455,0.756433,541.3819999999999
456,0.7581,541.3819999999999
457,0.75985,528.857
458,0.761433,516.944
459,0.763083,505.693
460,0.76475,505.693
461,0.766417,494.979
462,0.768083,485.227
463,0.76975,485.227
464,0.771417,475.116
465,0.773083,465.505
466,0.77475,456.125
467,0.77645,456.125
468,0.778083,446.565
469,0.7797500000000001,437.804
470,0.781417,429.124
471,0.783083,429.124
472,0.7847499999999999,420.496
473,0.786417,412.293
474,0.788083,404.306
475,0.78975,404.306
476,0.791417,396.878
477,0.7932,389.986
478,0.79475,382.908
479,0.796417,382.908
480,0.798083,375.986
481,0.79975,369.02
482,0.801417,369.02
483,0.803083,362.538
484,0.80475,356.451
485,0.8064170000000001,350.706
486,0.808083,350.706
487,0.80975,345.364
488,0.8114170000000001,339.739
489,0.813083,334.598
490,0.81475,334.598
491,0.8164169999999999,329.442
492,0.818067,324.167
493,0.819733,319.123
494,0.821417,319.123
495,0.8230499999999999,314.161
496,0.824717,309.788
497,0.826383,309.788
498,0.82805,305.384
499,0.829717,301.361
500,0.8314,297.613
501,0.83305,297.613
502,0.834717,293.396
503,0.836383,289.462
504,0.83805,285.432
505,0.839717,285.432
506,0.841383,281.334
507,0.84305,277.981
508,0.8447170000000001,274.748
509,0.846383,274.748
510,0.84805,271.767
511,0.8497169999999999,268.862
512,0.851383,265.449
513,0.85305,265.449
514,0.8547169999999999,262.596
515,0.856383,259.377
516,0.85805,259.377
517,0.859717,256.538
518,0.8614000000000001,253.767
519,0.86305,250.772
520,0.864717,250.772
521,0.866383,248.209
522,0.86805,245.489
523,0.869717,243.068
524,0.871383,243.068
525,0.87305,240.833
526,0.874717,238.411
527,0.876383,236.407
528,0.878067,236.407
529,0.879717,234.514
530,0.881367,232.451
531,0.883033,232.451
532,0.8847,230.7
533,0.886367,228.591
534,0.888033,226.632
535,0.8897,226.632
536,0.891367,224.873
537,0.893033,222.936
538,0.894783,221.282
539,0.896367,221.282
540,0.898033,219.353
541,0.8997000000000001,217.445
542,0.901367,216
543,0.903033,216
544,0.9046999999999999,214.368
545,0.906367,213.161
546,0.908033,213.161
547,0.9097,212.14
548,0.911483,210.948
549,0.913033,209.577
550,0.9147,209.577
551,0.916367,208.072
552,0.918033,206.336
553,0.9197,204.772
554,0.921367,204.772
555,0.923033,203.624
556,0.9247,202.559
557,0.9263670000000001,201.665
558,0.928033,201.665
559,0.9297,200.756
560,0.9313669999999999,199.631
561,0.933033,198.647
562,0.9347,198.647
563,0.9363669999999999,197.411
564,0.938033,196.129
565,0.9397,196.129
566,0.941367,195.079
567,0.943017,193.76
568,0.9446830000000001,192.679
569,0.94635,192.679
570,0.948017,191.905
571,0.9496830000000001,190.869
572,0.95135,189.982
573,0.953017,189.982
574,0.9546829999999999,189.133
575,0.95635,188.38
576,0.958017,187.702
577,0.959683,187.702
578,0.96135,187.121
579,0.963017,186.741
580,0.964683,186.741
581,0.96635,185.847
582,0.968033,185.207
583,0.969683,184.692
584,0.97135,184.692
585,0.973017,184.193
586,0.974683,183.627
587,0.9763500000000001,182.815
588,0.978017,182.815
589,0.979683,182.174
590,0.9813499999999999,181.146
591,0.983017,180.244
592,0.984683,180.244
593,0.9863499999999999,179.76
594,0.988017,178.963
595,0.989683,178.464
596,0.99135,178.464
597,0.993017,178.322
598,0.994683,177.801
599,0.99635,177.801
600,0.998017,177.525
601,0.999683,177.316
602,1.00135,176.81
603,1.003,176.81
604,1.004667,176.452
605,1.006333,175.796
606,1.008,175.275
607,1.009667,175.275
608,1.011333,174.694
609,1.013,174.15
610,1.014667,174.142
611,1.016333,174.142
612,1.018,173.539
613,1.019667,173.256
614,1.021333,173.256
615,1.023,173.114
616,1.024667,172.436
617,1.026333,172.116
618,1.028,172.116
619,1.029783,171.646
620,1.031333,170.939
621,1.033,170.521
622,1.034667,170.521
623,1.036333,170.067
624,1.038,169.709
625,1.039667,169.486
626,1.041333,169.486
627,1.043,168.964
628,1.044667,168.562
629,1.046333,168.137
630,1.048033,168.137
631,1.049667,167.951
632,1.051333,168.093
633,1.053,168.093
634,1.054667,167.996
635,1.056333,167.675
636,1.058,167.02
637,1.059667,167.02
638,1.061333,166.334
639,1.062983,166.282
640,1.06465,166.141
641,1.06635,166.141
642,1.067983,166.118
643,1.06965,166.036
644,1.071317,165.589
645,1.072983,165.589
646,1.07465,165.53
647,1.076317,165.559
648,1.077983,165.559
649,1.07965,165.388
650,1.081317,165.44
651,1.082983,165.597
652,1.08465,165.597
653,1.086317,165.09
654,1.087983,164.911
655,1.089667,164.308
656,1.091317,164.308
657,1.092983,163.682
658,1.09465,163.518
659,1.096317,163.086
660,1.097983,163.086
661,1.09965,162.818
662,1.101317,162.475
663,1.102983,162.244
664,1.10465,162.244
665,1.106317,162.08
666,1.107983,162.11
667,1.109633,162.11
668,1.1113,161.976
669,1.112967,161.976
670,1.11465,161.968
671,1.116317,161.968
672,1.117967,161.827
673,1.119633,161.804
674,1.121283,161.767
675,1.12295,161.767
676,1.124617,161.633
677,1.126283,161.216
678,1.12795,161.007
679,1.129617,161.007
680,1.131283,160.538
681,1.13295,160.232
682,1.134617,160.232
683,1.136283,160.202
684,1.13795,159.793
685,1.139617,159.614
686,1.141283,159.614
687,1.14295,159.748
688,1.144617,159.681
689,1.146283,159.651
690,1.148067,159.651
691,1.149617,159.457
692,1.151283,159.085
693,1.15295,158.839
694,1.154617,158.839
695,1.156283,158.772
696,1.157983,158.578
697,1.159617,158.578
698,1.161283,158.459
699,1.16295,158.474
700,1.164617,158.66
701,1.166283,158.66
702,1.16795,158.727
703,1.169617,158.757
704,1.171283,158.474
705,1.17295,158.474
706,1.174617,158.273
707,1.176283,158.34
708,1.17795,158.176
709,1.179617,158.176
710,1.181267,158.131
711,1.182933,157.848
712,1.1846,157.572
713,1.186267,157.572
714,1.187933,157.371
715,1.1896,157.394
716,1.1913,157.394
717,1.192933,157.408
718,1.1946,157.297
719,1.196267,157.349
720,1.197933,157.349
721,1.1996,157.282
722,1.201267,157.163
723,1.202933,157.103
724,1.2046,157.103
725,1.206267,156.842
726,1.207933,156.552
727,1.2096,156.298
728,1.211267,156.298
729,1.212933,156.417
730,1.2146,156.634
731,1.216267,156.634
732,1.217933,156.909
733,1.2196,157.088
734,1.221267,156.753
735,1.222933,156.753
736,1.2246,156.134
737,1.226267,155.553
738,1.227933,155.114
739,1.2296,155.114
740,1.2313,154.898
741,1.232983,155.188
742,1.2346,155.24
743,1.236267,155.24
744,1.237933,155.173
745,1.2396,155.181
746,1.241267,155.032
747,1.242917,155.032
748,1.244583,154.942
749,1.24625,155.136
750,1.247917,155.136
751,1.249583,155.136
752,1.25125,155.114
753,1.252917,155.121
754,1.254583,155.121
755,1.25625,155.292
756,1.257917,155.464
757,1.259583,155.643
758,1.26125,155.643
759,1.262917,155.598
760,1.2646,155.106
761,1.266367,155.054
762,1.267917,155.054
763,1.269583,154.682
764,1.27125,154.592
765,1.272917,154.592
766,1.274583,154.831
767,1.27625,154.525
768,1.277917,154.369
769,1.279583,154.369
770,1.28125,154.451
771,1.282917,154.123
772,1.284583,153.892
773,1.28625,153.892
774,1.287917,153.691
775,1.289583,153.236
776,1.29125,153.05
777,1.292917,153.05
778,1.294583,152.968
779,1.29625,153.072
780,1.297917,153.072
781,1.299583,153.154
782,1.30125,153.162
783,1.3029,153.214
784,1.304567,153.214
785,1.306233,153.109
786,1.3079,153.199
787,1.309567,153.266
788,1.311233,153.266
789,1.3129,153.363
790,1.314567,153.594
791,1.316233,153.519
792,1.3179,153.519
793,1.319567,153.415
794,1.321233,153.378
795,1.3229,153.08
796,1.324567,153.08
797,1.326267,153.08
798,1.3279,153.326
799,1.329567,153.326
800,1.331233,153.244
801,1.3329,153.191
802,1.334567,153.095
803,1.336233,153.095
804,1.3379,152.789
805,1.339567,152.752
806,1.341233,152.968
807,1.3429,152.968
808,1.344567,152.893
809,1.346233,152.7
810,1.3479,152.625
811,1.349567,152.625
812,1.351267,152.268
813,1.3529,152.372
814,1.354567,152.372
815,1.356233,152.484
816,1.3579,152.536
817,1.359567,152.327
818,1.361233,152.327
819,1.362883,152.104
820,1.36455,151.85
821,1.366217,151.455
822,1.367967,151.455
823,1.36955,151.277
824,1.371217,150.993
825,1.372883,151.128
826,1.37455,151.128
827,1.376217,151.247
828,1.377883,151.508
829,1.37955,151.902
830,1.381217,151.902
831,1.382883,151.977
832,1.38465,151.902
833,1.386217,151.902
834,1.387883,151.59
835,1.38955,151.277
836,1.391217,151.068
837,1.392883,151.068
838,1.39455,150.979
839,1.396217,151.142
840,1.397883,151.09
841,1.39955,151.09
842,1.4012,151.157
843,1.402883,151.12
844,1.404533,151.046
845,1.4062,151.046
846,1.407867,151.053
847,1.409533,150.859
848,1.4112,150.859
849,1.412867,151.023
850,1.414533,150.971
851,1.4162,151.031
852,1.417867,151.031
853,1.419533,151.031
854,1.4212,150.725
855,1.42285,150.852
856,1.424517,150.852
857,1.426183,150.681
858,1.42785,150.36
859,1.429517,150.353
860,1.431183,150.353
861,1.43285,149.95
862,1.434517,149.943
863,1.436183,150.144
864,1.43785,150.144
865,1.439533,150.397
866,1.441183,150.658
867,1.44285,150.658
868,1.444517,150.673
869,1.446183,150.703
870,1.44785,150.383
871,1.449517,150.383
872,1.451183,150.353
873,1.45285,150.077
874,1.454517,150.032
875,1.456183,150.032
876,1.45785,150.077
877,1.459517,149.876
878,1.461183,149.913
879,1.46285,149.913
880,1.464517,149.928
881,1.466183,149.764
882,1.467867,149.764
883,1.469583,149.943
884,1.471183,150.152
885,1.47285,150.181
886,1.474517,150.181
887,1.4762,150.077
888,1.47785,150.092
889,1.479517,150.159
890,1.481183,150.159
891,1.482833,149.868
892,1.4845,150.04
893,1.48625,149.928
894,1.487833,149.928
895,1.4895,149.66
896,1.491167,149.846
897,1.492833,149.846
898,1.4945,149.906
899,1.496167,150.099
900,1.497833,150.211
901,1.4995,150.211
902,1.501167,150.278
903,1.502917,150.278
904,1.5045,150.129
905,1.506167,150.129
906,1.507833,149.854
907,1.5095,149.541
908,1.511167,149.325
909,1.512833,149.325
910,1.5145,149.116
911,1.516167,149.317
912,1.517833,149.339
913,1.5196,149.339
914,1.521167,149.347
915,1.522833,149.593
916,1.5245,149.593
917,1.526167,149.392
918,1.527833,149.235
919,1.5295,149.451
920,1.531167,149.451
921,1.532833,149.295
922,1.5345,149.168
923,1.536167,149.325
924,1.537833,149.325
925,1.5395,149.027
926,1.541167,148.922
927,1.542833,148.93
928,1.544483,148.93
929,1.54615,148.833
930,1.547817,148.766
931,1.549483,148.766
932,1.55115,148.736
933,1.552817,149.168
934,1.554483,149.488
935,1.55615,149.488
936,1.557817,149.801
937,1.559483,149.809
938,1.56115,149.377
939,1.562817,149.377
940,1.5645,148.974
941,1.56615,148.892
942,1.567817,148.87
943,1.569483,148.87
944,1.57115,149.019
945,1.572817,149.265
946,1.574483,149.056
947,1.57615,149.056
