"ID","sea_time","fid_signal"
1,0,1240.596
2,0.001667,1240.596
3,0.003333,1239.479
4,0.005,1238.957
5,0.006667,1239.777
6,0.008333,1239.777
7,0.01,1236.2
8,0.011767,1231.656
9,0.013333,1226.887
10,0.015,1226.887
11,0.016667,1222.342
12,0.018367,1221.597
13,0.02,1221.597
14,0.021667,1222.342
15,0.023333,1227.334
16,0.025,1230.687
17,0.026667,1230.687
18,0.028333,1231.059
19,0.03,1233.22
20,0.031667,1229.867
21,0.033333,1229.867
22,0.035,1229.122
23,0.036667,1228.377
24,0.038333,1230.24
25,0.04,1230.24
26,0.041667,1233.593
27,0.043333,1231.581
28,0.045,1231.581
29,0.046667,1230.687
30,0.048333,1231.879
31,0.05,1232.55
32,0.051667,1232.55
33,0.053333,1235.604
34,0.055,1237.243
35,0.056667,1236.573
36,0.058333,1236.573
37,0.059983,1234.263
38,0.06165,1234.189
39,0.063317,1232.177
40,0.064983,1232.177
41,0.06665,1230.538
42,0.068317,1228.973
43,0.069983,1223.981
44,0.07165000000000001,1223.981
45,0.073333,1225.919
46,0.07498299999999999,1226.738
47,0.07665,1226.738
48,0.078317,1225.77
49,0.079983,1228.154
50,0.08165,1228.675
51,0.083317,1228.675
52,0.084983,1226.142
53,0.08665,1226.738
54,0.08831700000000001,1224.726
55,0.08998299999999999,1224.726
56,0.09165,1222.119
57,0.093317,1224.13
58,0.094983,1224.13
59,0.096733,1224.13
60,0.098317,1229.122
61,0.099983,1230.016
62,0.10165,1230.016
63,0.103317,1229.197
64,0.104983,1232.177
65,0.10665,1228.377
66,0.108317,1228.377
67,0.109983,1226.813
68,0.11165,1228.601
69,0.113367,1225.397
70,0.114983,1225.397
71,0.11665,1226.515
72,0.118317,1227.036
73,0.119967,1225.62
74,0.121633,1225.62
75,0.1233,1227.632
76,0.124967,1228.526
77,0.126633,1228.526
78,0.1283,1228.899
79,0.130083,1225.844
80,0.131633,1222.417
81,0.1333,1222.417
82,0.134967,1221.15
83,0.136633,1221.374
84,0.1383,1223.013
85,0.139967,1223.013
86,0.141633,1226.142
87,0.143283,1226.44
88,0.14495,1225.919
89,0.146617,1225.919
90,0.148283,1227.856
91,0.14995,1225.248
92,0.151633,1224.056
93,0.153283,1224.056
94,0.154983,1222.268
95,0.156617,1220.331
96,0.158283,1220.331
97,0.15995,1220.107
98,0.161617,1222.938
99,0.163283,1227.111
100,0.16495,1227.111
101,0.166617,1226.664
102,0.168283,1228.601
103,0.16995,1223.832
104,0.171617,1223.832
105,0.173283,1220.331
106,0.17495,1220.852
107,0.176617,1221.97
108,0.178283,1221.97
109,0.179933,1221.523
110,0.1816,1221.895
111,0.183267,1221.895
112,0.184933,1223.162
113,0.1866,1222.491
114,0.188267,1225.919
115,0.189933,1225.919
116,0.1916,1225.993
117,0.193267,1223.311
118,0.194933,1222.044
119,0.1966,1222.044
120,0.198267,1222.566
121,0.199933,1223.013
122,0.2016,1222.417
123,0.203267,1222.417
124,0.204933,1218.692
125,0.2066,1214.072
126,0.208267,1213.327
127,0.209933,1213.327
128,0.2116,1213.923
129,0.213267,1219.287
130,0.215,1219.287
131,0.2166,1221.746
132,0.218267,1218.319
133,0.219933,1217.872
134,0.2216,1217.872
135,0.223267,1216.009
136,0.22495,1216.084
137,0.226667,1217.35
138,0.228267,1217.35
139,0.229933,1217.052
140,0.23165,1217.499
141,0.233267,1218.17
142,0.234933,1218.17
143,0.2366,1219.66
144,0.238267,1220.852
145,0.239917,1220.852
146,0.241583,1219.362
147,0.24325,1217.797
148,0.244917,1220.405
149,0.246583,1220.405
150,0.248367,1219.809
151,0.249917,1220.182
152,0.251583,1220.405
153,0.25325,1220.405
154,0.254917,1217.946
155,0.256583,1217.201
156,0.25825,1217.946
157,0.259917,1217.946
158,0.261583,1218.393
159,0.26325,1215.19
160,0.264917,1215.711
161,0.266583,1215.711
162,0.26825,1215.786
163,0.269917,1215.488
164,0.271583,1215.488
165,0.27325,1219.437
166,0.274917,1221.299
167,0.276583,1219.884
168,0.27825,1219.884
169,0.279917,1218.17
170,0.281583,1216.978
171,0.28325,1217.499
172,0.284917,1217.499
173,0.286583,1218.542
174,0.28825,1220.703
175,0.289917,1221.672
176,0.291583,1221.672
177,0.29325,1220.405
178,0.294917,1218.692
179,0.296583,1218.692
180,0.29825,1215.115
181,0.29995,1214.519
182,0.3016,1211.613
183,0.303233,1211.613
184,0.3049,1212.507
185,0.306567,1216.158
186,0.308233,1215.19
187,0.3099,1215.19
188,0.311567,1216.531
189,0.313233,1216.829
190,0.3149,1215.786
191,0.316567,1215.786
192,0.318233,1216.754
193,0.3199,1215.413
194,0.321567,1215.413
195,0.323233,1214.743
196,0.3249,1213.625
197,0.326567,1214.594
198,0.328233,1214.594
199,0.3299,1215.562
200,0.331567,1213.104
201,0.333233,1213.625
202,0.3349,1213.625
203,0.336567,1209.304
204,0.338233,1211.017
205,0.3399,1216.084
206,0.341567,1216.084
207,0.343233,1215.264
208,0.3449,1218.617
209,0.346567,1213.998
210,0.348233,1213.998
211,0.349917,1211.986
212,0.351567,1213.104
213,0.353233,1213.104
214,0.3549,1211.986
215,0.356567,1213.253
216,0.358217,1211.986
217,0.359883,1211.986
218,0.36155,1209.974
219,0.363217,1210.049
220,0.364883,1213.998
221,0.366667,1213.998
222,0.368217,1213.849
223,0.369883,1215.562
224,0.37155,1213.774
225,0.373217,1213.774
226,0.374883,1211.315
227,0.37655,1210.123
228,0.378217,1210.123
229,0.379883,1211.092
230,0.38155,1212.433
231,0.383217,1212.806
232,0.384883,1212.806
233,0.38655,1215.562
234,0.388217,1215.115
235,0.389883,1216.009
236,0.391567,1216.009
237,0.393217,1214.072
238,0.394883,1214.892
239,0.39655,1212.806
240,0.398217,1212.806
241,0.399883,1211.092
242,0.40155,1214.072
243,0.403217,1213.104
244,0.404883,1213.104
245,0.40655,1216.978
246,0.408217,1224.428
247,0.409883,1224.428
248,0.41155,1232.475
249,0.413217,1250.282
250,0.414883,1280.159
251,0.41655,1280.159
252,0.4182,1332.164
253,0.419883,1415.461
254,0.421533,1548.082
255,0.4232,1548.082
256,0.424867,1746.342
257,0.426533,2026.111
258,0.4282,2416.223
259,0.429867,2416.223
260,0.431533,2938.062
261,0.433183,3611.669
262,0.43485,3611.669
263,0.436533,4463.643
264,0.438183,5506.948
265,0.43985,6746.948
266,0.441517,6746.948
267,0.443183,8193.553
268,0.44485,9843.186
269,0.446517,11685.863
270,0.448183,11685.863
271,0.44985,13707.206
272,0.45155,15887.692
273,0.453183,18197.521
274,0.45485,18197.521
275,0.456517,20605.549
276,0.458183,23078.695
277,0.45985,25575.385
278,0.461517,25575.385
279,0.463183,28052.256
280,0.46485,30467.584
281,0.466517,30467.584
282,0.4682,32771.977
283,0.46985,34924.449
284,0.471517,36883.281
285,0.473183,36883.281
286,0.474867,38610.996
287,0.476517,40084.57
288,0.478183,41283.293
289,0.479833,41283.293
290,0.4815,42199.344
291,0.483167,42837.188
292,0.48495,43197.199
293,0.4865,43197.199
294,0.488167,43284.969
295,0.489833,43124.555
296,0.4915,43124.555
297,0.493167,42733.625
298,0.494833,42141.75
299,0.4965,41378.813
300,0.498167,41378.813
301,0.499833,40466.414
302,0.5014999999999999,39433.836
303,0.503167,38301.348
304,0.504833,38301.348
305,0.5065,37098.527
306,0.508167,35849.438
307,0.509833,34570.023
308,0.5115,34570.023
309,0.513167,33277.945
310,0.514833,31981.096
311,0.5165,31981.096
312,0.518167,30694.455
313,0.519833,29428.006
314,0.5215,28192.551
315,0.523167,28192.551
316,0.524833,26996.285
317,0.5265,25839.135
318,0.5281670000000001,24724.604
319,0.529833,24724.604
320,0.5315,23653.656
321,0.5331669999999999,22628.605
322,0.534833,21650.939
323,0.5365,21650.939
324,0.538167,20714.998
325,0.539817,19828.006
326,0.541483,18986.762
327,0.54315,18986.762
328,0.544817,18188.135
329,0.5464830000000001,17433.465
330,0.54815,17433.465
331,0.549817,16715.824
332,0.5514829999999999,16037.673
333,0.55315,15392.825
334,0.554817,15392.825
335,0.5565,14782.995
336,0.55815,14205.054
337,0.559817,13656.914
338,0.561483,13656.914
339,0.56315,13138.056
340,0.564817,12646.765
341,0.566483,12182.295
342,0.56815,12182.295
343,0.56985,11738.39
344,0.571483,11314.974
345,0.57315,11314.974
346,0.574817,10917.336
347,0.576483,10534.748
348,0.5781500000000001,10176.376
349,0.579817,10176.376
350,0.581483,9839.386
351,0.5831499999999999,9516.328
352,0.584833,9213.164000000001
353,0.586483,9213.164000000001
354,0.58815,8919.537
355,0.589817,8639.768
356,0.591483,8373.334999999999
357,0.59315,8373.334999999999
358,0.594817,8119.196
359,0.596483,7878.095
360,0.59815,7647.723
361,0.5998,7647.723
362,0.601467,7426.441
363,0.60325,7216.707
364,0.6048,7216.707
365,0.606467,7014.349
366,0.608133,6821.528
367,0.6098,6635.338
368,0.611467,6635.338
369,0.613133,6454.513
370,0.6148,6286.726
371,0.616467,6126.166
372,0.618133,6126.166
373,0.6198,5970.821
374,0.621467,5825.087
375,0.623133,5682.036
376,0.6248,5682.036
377,0.626467,5541.295
378,0.6281330000000001,5408.228
379,0.6298,5408.228
380,0.631467,5280.823
381,0.6331329999999999,5159.005
382,0.6348,5045.757
383,0.636467,5045.757
384,0.638133,4936.084
385,0.6398,4826.933
386,0.641467,4720.762
387,0.643133,4720.762
388,0.644817,4618.317
389,0.646467,4521.087
390,0.648133,4427.582
391,0.6498,4427.582
392,0.651467,4337.132
393,0.653133,4248.023
394,0.6548,4164.428
395,0.656467,4164.428
396,0.658133,4082.322
397,0.6598000000000001,4006.103
398,0.66145,4006.103
399,0.663117,3930.926
400,0.664783,3856.793
401,0.66645,3786.832
402,0.668117,3786.832
403,0.669783,3718.659
404,0.67145,3656.372
405,0.673117,3589.839
406,0.674783,3589.839
407,0.67645,3526.136
408,0.678117,3464.446
409,0.679783,3401.935
410,0.68145,3401.935
411,0.683117,3349.334
412,0.684783,3296.882
413,0.68645,3296.882
414,0.688183,3246.74
415,0.689783,3197.864
416,0.69145,3147.423
417,0.693117,3147.423
418,0.694783,3097.281
419,0.69645,3050.268
420,0.698117,3004.894
421,0.699783,3004.894
422,0.70145,2962.053
423,0.703117,2921.969
424,0.7048,2880.096
425,0.70645,2880.096
426,0.708117,2841.13
427,0.7097830000000001,2802.014
428,0.71145,2802.014
429,0.713117,2765.656
430,0.7147829999999999,2731.83
431,0.71645,2696.812
432,0.718117,2696.812
433,0.719767,2663.21
434,0.72155,2632.067
435,0.7231,2601.296
436,0.72475,2601.296
437,0.726417,2572.164
438,0.728083,2543.107
439,0.72975,2512.634
440,0.731417,2512.634
441,0.733083,2480.745
442,0.7347669999999999,2451.167
443,0.736417,2424.419
444,0.738083,2424.419
445,0.73975,2399.608
446,0.741417,2374.277
447,0.743083,2374.277
448,0.74475,2347.976
449,0.746417,2323.389
450,0.7480830000000001,2297.312
451,0.74975,2297.312
452,0.751417,2275.035
453,0.7530829999999999,2257.079
454,0.75475,2237.856
455,0.756417,2237.856
456,0.758083,2215.952
457,0.75975,2196.133
458,0.761417,2174.377
459,0.763083,2174.377
460,0.76475,2151.281
461,0.766417,2135.783
462,0.768083,2135.783
463,0.76975,2118.796
464,0.771417,2100.244
465,0.773083,2083.182
466,0.77475,2083.182
467,0.776417,2064.63
468,0.778083,2046.451
469,0.779733,2029.166
470,0.7814,2029.166
471,0.783067,2014.264
472,0.784733,1997.799
473,0.7864,1981.705
474,0.788067,1981.705
475,0.789733,1965.612
476,0.7914,1949.37
477,0.793067,1937.3
478,0.79475,1937.3
479,0.7964,1923.144
480,0.798067,1911.074
481,0.799733,1911.074
482,0.8014,1900.196
483,0.803067,1887.903
484,0.804733,1878.738
485,0.80645,1878.738
486,0.808067,1866.072
487,0.809733,1854.002
488,0.8114,1841.411
489,0.813067,1841.411
490,0.814733,1828.969
491,0.8164,1819.506
492,0.818067,1808.107
493,0.819733,1808.107
494,0.8214,1796.782
495,0.823117,1785.234
496,0.824733,1785.234
497,0.8264,1777.634
498,0.828067,1769.438
499,0.8297330000000001,1761.243
500,0.8314,1761.243
501,0.833067,1754.835
502,0.8347329999999999,1743.436
503,0.8364,1733.08
504,0.838067,1733.08
505,0.8398330000000001,1723.245
506,0.841383,1712.665
507,0.84305,1704.097
508,0.8447170000000001,1704.097
509,0.846383,1694.933
510,0.84805,1687.109
511,0.8497169999999999,1681.298
512,0.851383,1681.298
513,0.85305,1675.338
514,0.8547169999999999,1669.377
515,0.856383,1669.377
516,0.85805,1660.511
517,0.859717,1650.155
518,0.861383,1642.927
519,0.86305,1642.927
520,0.864717,1635.626
521,0.866383,1629.814
522,0.86805,1627.132
523,0.869717,1627.132
524,0.871383,1620.501
525,0.873067,1614.69
526,0.874717,1612.455
527,0.876383,1612.455
528,0.87805,1605.153
529,0.879733,1601.279
530,0.881383,1601.279
531,0.88305,1596.585
532,0.884717,1592.264
533,0.886383,1584.962
534,0.88805,1584.962
535,0.889717,1579.225
536,0.891383,1573.414
537,0.89305,1568.124
538,0.894733,1568.124
539,0.896383,1564.622
540,0.89805,1558.736
541,0.8997000000000001,1555.309
542,0.901367,1555.309
543,0.903033,1547.486
544,0.9046999999999999,1542.27
545,0.906367,1542.27
546,0.908033,1537.874
547,0.9097,1532.733
548,0.911367,1529.157
549,0.913033,1529.157
550,0.9147,1524.463
551,0.916367,1520.44
552,0.918033,1517.981
553,0.9197,1517.981
554,0.921367,1511.276
555,0.923033,1509.339
556,0.924717,1505.837
557,0.9263670000000001,1505.837
558,0.928033,1502.186
559,0.9297,1500.249
560,0.9313669999999999,1495.481
561,0.933033,1495.481
562,0.9347,1489.222
563,0.9363669999999999,1482.964
564,0.938033,1482.964
565,0.9397,1480.207
566,0.941433,1478.046
567,0.943033,1474.917
568,0.9447,1474.917
569,0.946367,1473.948
570,0.948033,1470.372
571,0.9497,1464.263
572,0.951367,1464.263
573,0.953033,1460.239
574,0.9547,1456.365
575,0.956367,1452.342
576,0.958133,1452.342
577,0.9597,1451.373
578,0.96135,1451.448
579,0.963017,1451.448
580,0.964683,1445.487
581,0.96635,1440.346
582,0.968017,1435.727
583,0.969683,1435.727
584,0.97135,1431.48
585,0.973017,1430.288
586,0.9748,1429.766
587,0.9763500000000001,1429.766
588,0.978017,1427.308
589,0.979683,1425.743
590,0.9813499999999999,1420.975
591,0.983017,1420.975
592,0.984683,1420.006
593,0.9863499999999999,1417.249
594,0.988017,1413.748
595,0.989683,1413.748
596,0.99135,1413.673
597,0.993017,1410.097
598,0.994683,1410.097
599,0.99635,1408.607
600,0.998017,1405.999
601,0.999683,1403.764
602,1.00135,1403.764
603,1.003017,1402.497
604,1.004683,1401.231
605,1.00635,1401.156
606,1.008017,1401.156
607,1.009683,1397.952
608,1.01135,1394.525
609,1.013017,1392.737
610,1.014683,1392.737
611,1.016333,1388.714
612,1.018033,1387.894
613,1.01965,1387.894
614,1.021317,1385.51
615,1.022983,1380.22
