"ID","sea_time","fid_signal"
1,0,1179.203
2,0.001667,1181.364
3,0.003333,1182.929
4,0.005,1186.207
5,0.006667,1186.207
6,0.008333,1190.156
7,0.01,1190.528
8,0.011667,1188.293
9,0.013333,1188.293
10,0.015,1186.505
11,0.016667,1184.046
12,0.018333,1184.046
13,0.02,1183.45
14,0.021667,1185.536
15,0.02335,1182.184
16,0.025,1182.184
17,0.02675,1180.321
18,0.028333,1176.67
19,0.03,1174.36
20,0.031667,1174.36
21,0.033317,1174.286
22,0.034983,1173.466
23,0.03665,1172.051
24,0.038317,1172.051
25,0.039983,1173.019
26,0.04165,1173.392
27,0.043383,1174.137
28,0.044983,1174.137
29,0.04665,1174.733
30,0.048317,1176.223
31,0.049983,1176.223
32,0.05165,1177.415
33,0.053317,1179.054
34,0.054983,1178.607
35,0.05665,1178.607
36,0.058317,1174.584
37,0.060083,1171.827
38,0.06165,1168.251
39,0.063317,1168.251
40,0.065,1170.71
41,0.06665,1171.976
42,0.068317,1174.733
43,0.069983,1174.733
44,0.07165000000000001,1179.427
45,0.07331699999999999,1179.576
46,0.07498299999999999,1179.576
47,0.07665,1181.737
48,0.078317,1182.78
49,0.079983,1180.172
50,0.08165,1180.172
51,0.083317,1181.364
52,0.084983,1178.682
53,0.08665,1177.713
54,0.08831700000000001,1177.713
55,0.08998299999999999,1178.011
56,0.09165,1176.894
57,0.09329999999999999,1178.682
58,0.094967,1178.682
59,0.096633,1179.352
60,0.098333,1176.521
61,0.099967,1176.521
62,0.101633,1175.851
63,0.1033,1174.807
64,0.104967,1172.721
65,0.106633,1172.721
66,0.1083,1172.349
67,0.109967,1169.816
68,0.111633,1172.945
69,0.1133,1172.945
70,0.114967,1175.18
71,0.116633,1176.968
72,0.1183,1177.639
73,0.119967,1177.639
74,0.121633,1173.466
75,0.1233,1172.274
76,0.124967,1172.274
77,0.126633,1172.796
78,0.1283,1172.051
79,0.129967,1174.137
80,0.131633,1174.137
81,0.1333,1176.521
82,0.134967,1174.51
83,0.136633,1175.851
84,0.1383,1175.851
85,0.139967,1175.553
86,0.141633,1172.125
87,0.1433,1174.063
88,0.145,1174.063
89,0.146633,1172.349
90,0.1483,1174.36
91,0.149967,1176.074
92,0.151633,1176.074
93,0.1533,1176.223
94,0.15495,1177.49
95,0.156617,1177.49
96,0.158283,1175.404
97,0.15995,1175.18
98,0.161717,1175.925
99,0.163283,1175.925
100,0.16495,1175.106
101,0.16665,1173.615
102,0.168283,1172.945
103,0.16995,1172.945
104,0.171617,1173.317
105,0.173283,1174.733
106,0.17495,1172.87
107,0.176617,1172.87
108,0.1784,1169.89
109,0.17995,1170.188
110,0.1816,1170.188
111,0.183267,1174.137
112,0.184933,1180.172
113,0.1866,1183.45
114,0.188267,1183.45
115,0.189933,1181.364
116,0.1916,1178.756
117,0.193267,1174.807
118,0.194933,1174.807
119,0.1966,1174.286
120,0.198267,1174.063
121,0.199933,1175.627
122,0.2016,1175.627
123,0.203267,1178.309
124,0.204933,1179.576
125,0.2066,1181.439
126,0.208267,1181.439
127,0.209933,1177.788
128,0.2116,1177.937
129,0.213267,1177.937
130,0.214917,1178.16
131,0.216583,1175.627
132,0.21825,1177.639
133,0.219917,1177.639
134,0.221583,1175.851
135,0.22325,1175.478
136,0.224917,1176.223
137,0.226583,1176.223
138,0.22825,1174.51
139,0.229917,1174.957
140,0.231583,1173.168
141,0.23325,1173.168
142,0.234917,1176.298
143,0.236633,1178.458
144,0.23825,1178.458
145,0.239933,1177.862
146,0.241583,1176.223
147,0.24325,1176.223
148,0.244917,1176.223
149,0.246583,1175.925
150,0.24825,1177.415
151,0.249917,1180.246
152,0.251583,1180.246
153,0.25325,1178.533
154,0.254917,1175.404
155,0.256583,1172.2
156,0.25825,1172.2
157,0.259917,1172.796
158,0.261583,1174.435
159,0.263267,1175.031
160,0.264917,1175.031
161,0.266583,1175.404
162,0.26825,1174.36
163,0.269917,1174.36
164,0.271583,1173.317
165,0.273233,1175.106
166,0.2749,1176.819
167,0.276567,1176.819
168,0.278233,1178.16
169,0.279967,1175.106
170,0.281567,1175.776
171,0.283233,1175.776
172,0.2849,1178.831
173,0.286567,1179.054
174,0.288233,1180.023
175,0.2899,1180.023
176,0.291567,1179.427
177,0.293233,1176.521
178,0.2949,1176.521
179,0.296667,1173.392
180,0.298233,1173.019
181,0.2999,1171.008
182,0.301567,1171.008
183,0.303233,1167.357
184,0.3049,1169.965
185,0.306567,1173.839
186,0.308233,1173.839
187,0.3099,1177.564
188,0.311567,1180.917
189,0.313283,1181.886
190,0.3149,1181.886
191,0.316567,1183.003
192,0.318233,1183.972
193,0.3199,1183.972
194,0.321567,1185.238
195,0.323233,1180.917
196,0.3249,1174.957
197,0.326567,1174.957
198,0.328233,1173.466
199,0.3299,1170.784
200,0.331567,1174.36
201,0.333233,1174.36
202,0.334883,1178.682
203,0.33655,1178.607
204,0.338217,1180.396
205,0.339883,1180.396
206,0.34155,1180.246
207,0.343217,1181.215
208,0.344883,1183.897
209,0.34655,1183.897
210,0.348217,1181.96
211,0.349883,1181.513
212,0.35155,1181.513
213,0.353217,1179.799
214,0.354883,1177.788
215,0.35655,1177.862
216,0.358217,1177.862
217,0.359883,1177.862
218,0.36155,1178.533
219,0.363217,1177.937
220,0.364883,1177.937
221,0.36655,1180.023
222,0.368217,1178.16
223,0.369883,1178.98
224,0.37155,1178.98
225,0.373217,1180.321
226,0.374883,1179.874
227,0.37655,1179.874
228,0.378217,1181.215
229,0.379883,1179.278
230,0.38155,1180.246
231,0.383217,1180.246
232,0.384883,1180.619
233,0.38655,1180.693
234,0.388217,1181.96
235,0.389883,1181.96
236,0.39155,1180.321
237,0.393217,1181.29
238,0.394867,1183.227
239,0.396533,1183.227
240,0.398267,1184.046
241,0.399867,1183.972
242,0.401533,1186.803
243,0.4032,1186.803
244,0.404867,1192.316
245,0.406533,1197.159
246,0.4082,1197.159
247,0.409867,1201.108
248,0.411533,1205.206
249,0.4132,1204.386
250,0.4149,1204.386
251,0.416533,1208.037
252,0.4182,1211.39
253,0.419867,1214.147
254,0.421533,1214.147
255,0.4232,1219.66
256,0.424867,1227.707
257,0.426533,1240.745
258,0.4282,1240.745
259,0.429867,1256.615
260,0.43165,1276.955
261,0.4332,1276.955
262,0.434867,1302.138
263,0.436533,1335.889
264,0.4382,1380.146
265,0.439867,1380.146
266,0.441533,1440.421
267,0.4432,1526.624
268,0.444867,1652.092
269,0.446533,1652.092
270,0.4482,1827.776
271,0.449883,2073.869
272,0.451533,2406.985
273,0.4532,2406.985
274,0.45485,2849.847
275,0.456517,3429.204
276,0.458183,4175.38
277,0.459883,4175.38
278,0.461517,5118.847
279,0.463183,6288.141
280,0.46485,6288.141
281,0.466517,7717.684
282,0.4682,9429.306
283,0.46985,11455.863
284,0.4715,11455.863
285,0.473167,13825.223
286,0.474833,16560.703
287,0.4765,19690.768
288,0.478167,19690.768
289,0.479833,23228.676
290,0.4815,27175.396
291,0.483167,31524.971
292,0.484833,31524.971
293,0.4865,36241.785
294,0.488167,41273.234
295,0.489833,41273.234
296,0.4915,46557.563
297,0.493167,52009.148
298,0.494833,57544.262
299,0.4965,57544.262
300,0.498167,63070.059
301,0.499833,68498.32799999999
302,0.5014999999999999,73748.531
303,0.503167,73748.531
304,0.504833,78737.883
305,0.5065,83386.30499999999
306,0.508167,87632.984
307,0.509833,87632.984
308,0.5115,91428.906
309,0.51315,94737.781
310,0.514817,94737.781
311,0.516517,97541.06299999999
312,0.51815,99824.367
313,0.519817,101574.734
314,0.521483,101574.734
315,0.523167,102803.555
316,0.524817,103528.273
317,0.526483,103764.016
318,0.52815,103764.016
319,0.529833,103546.234
320,0.531483,102904.961
321,0.533183,101879.391
322,0.534817,101879.391
323,0.536483,100510.867
324,0.53815,98846.70299999999
325,0.539817,96928.102
326,0.541483,96928.102
327,0.54315,94793.664
328,0.544817,92488.602
329,0.5464830000000001,92488.602
330,0.54815,90042.875
331,0.549933,87490.234
332,0.5514829999999999,84865.914
333,0.55315,84865.914
334,0.554817,82195.477
335,0.5564829999999999,79503.42999999999
336,0.55815,76810.125
337,0.559817,76810.125
338,0.561483,74135.359
339,0.56315,71491.30499999999
340,0.564817,68890.156
341,0.566483,68890.156
342,0.56815,66343.844
343,0.569817,63857.211
344,0.571483,63857.211
345,0.573133,61442.031
346,0.5748,59102.625
347,0.576467,56842.266
348,0.578133,56842.266
349,0.5798,54661.633
350,0.581467,52564.07
351,0.583133,50548.016
352,0.5848,50548.016
353,0.586467,48616.828
354,0.588133,46767.891
355,0.5898,44998.004
356,0.591467,44998.004
357,0.59315,43307.988
358,0.5948,41690.766
359,0.596467,40146.336
360,0.598133,40146.336
361,0.5998,38671.719
362,0.601467,37262.59
363,0.603133,37262.59
364,0.6048,35920.145
365,0.606467,34638.27
366,0.608133,33415.184
367,0.6098,33415.184
368,0.611467,32251.254
369,0.613133,31137.914
370,0.6148,30075.758
371,0.616467,30075.758
372,0.618133,29061.064
373,0.6198,28092.115
374,0.621467,27168.244
375,0.623133,27168.244
376,0.6248,26288.777
377,0.626467,25446.564
378,0.6281330000000001,25446.564
379,0.6298,24641.529
380,0.63145,23870.469
381,0.633117,23130.402
382,0.634883,23130.402
383,0.63645,22425.428
384,0.638117,21746.904
385,0.639783,21098.033
386,0.64145,21098.033
387,0.643133,20477.623
388,0.644783,19880.607
389,0.64645,19308.479
390,0.6481170000000001,19308.479
391,0.649783,18759.52
392,0.65145,18228.814
393,0.6531169999999999,17718.748
394,0.654783,17718.748
395,0.65645,17228.275
396,0.658117,16755.461
397,0.659783,16755.461
398,0.66145,16302.243
399,0.663117,15864.596
400,0.664783,15445.128
401,0.66645,15445.128
402,0.6682169999999999,15038.476
403,0.669783,14648.214
404,0.67145,14269.427
405,0.673117,14269.427
406,0.674783,13899.356
407,0.67645,13545.752
408,0.678117,13203.1
409,0.679783,13203.1
410,0.68145,12872.442
411,0.683117,12553.036
412,0.684783,12553.036
413,0.68645,12241.751
414,0.688117,11939.258
415,0.689783,11649.058
416,0.691433,11649.058
417,0.693117,11372.492
418,0.694783,11102.185
419,0.696433,10839.328
420,0.6981000000000001,10839.328
421,0.699767,10585.785
422,0.70145,10337.83
423,0.7030999999999999,10098.219
424,0.704767,10098.219
425,0.706433,9864.567999999999
426,0.7081,9637.698
427,0.709767,9637.698
428,0.711433,9415.001
429,0.7131,9201.987999999999
430,0.714767,8995.012000000001
431,0.716433,8995.012000000001
432,0.7181,8794.218999999999
433,0.719767,8600.876
434,0.721433,8411.183999999999
435,0.7231,8411.183999999999
436,0.7247670000000001,8225.291999999999
437,0.726433,8044.541
438,0.7281,7869.378
439,0.7297670000000001,7869.378
440,0.731433,7699.207
441,0.733117,7535.368
442,0.7347669999999999,7376.596
443,0.736433,7376.596
444,0.7381,7218.346
445,0.739767,7063.821
446,0.741433,7063.821
447,0.7431,6916.448
448,0.744767,6771.609
449,0.746433,6634.444
450,0.7481,6634.444
451,0.749767,6501.526
452,0.751433,6368.533
453,0.75315,6238.893
454,0.75475,6238.893
455,0.756417,6113.276
456,0.758083,5992.204
457,0.75975,5874.336
458,0.761417,5874.336
459,0.7630670000000001,5760.118
460,0.764733,5648.21
461,0.7664,5648.21
462,0.7680670000000001,5535.632
463,0.769733,5431.324
464,0.7714,5327.016
465,0.7730669999999999,5327.016
466,0.774733,5222.484
467,0.7764,5124.286
468,0.778067,5025.417
469,0.779733,5025.417
470,0.7814,4930.943
471,0.783067,4840.866
472,0.784733,4753.098
473,0.786483,4753.098
474,0.788067,4666.299
475,0.789733,4579.201
476,0.7914,4496.798
477,0.793067,4496.798
478,0.794733,4413.203
479,0.7964,4332.885
480,0.798067,4332.885
481,0.799733,4256.591
482,0.8014,4183.203
483,0.803067,4109.591
484,0.804733,4109.591
485,0.8064,4038.96
486,0.808067,3972.575
487,0.809733,3902.316
488,0.8114,3902.316
489,0.813067,3840.104
490,0.814717,3775.284
491,0.816383,3712.103
492,0.818067,3712.103
493,0.819717,3655.329
494,0.821383,3593.564
495,0.8230499999999999,3593.564
496,0.824717,3536.195
497,0.826383,3480.613
498,0.82805,3423.169
499,0.829717,3423.169
500,0.831383,3370.047
501,0.83305,3319.159
502,0.834717,3267.452
503,0.836383,3267.452
504,0.83805,3217.533
505,0.839717,3169.626
506,0.841383,3120.676
507,0.84305,3120.676
508,0.8447170000000001,3072.396
509,0.846383,3027.767
510,0.84805,2984.106
511,0.8497169999999999,2984.106
512,0.851383,2939.999
513,0.85305,2899.095
514,0.8547169999999999,2899.095
515,0.856383,2855.808
516,0.85805,2815.947
517,0.859717,2780.706
518,0.861383,2780.706
519,0.86305,2746.358
520,0.864717,2710.447
521,0.866383,2673.864
522,0.86805,2673.864
523,0.869717,2639.219
524,0.871433,2604.052
525,0.87305,2571.642
526,0.8747,2571.642
527,0.876367,2539.158
528,0.878033,2506.524
529,0.8797,2506.524
530,0.881367,2473.965
531,0.883033,2442.598
532,0.8847,2414.584
533,0.886367,2414.584
534,0.888033,2384.558
535,0.8897,2355.352
536,0.891367,2327.934
537,0.893033,2327.934
538,0.8947000000000001,2299.622
539,0.896367,2275.705
540,0.898033,2252.609
541,0.8997000000000001,2252.609
542,0.901367,2230.48
543,0.903033,2205.968
544,0.9048,2180.189
545,0.906367,2180.189
546,0.908033,2157.614
547,0.9097,2134.219
548,0.911367,2134.219
549,0.913033,2112.538
550,0.9147,2090.335
551,0.916367,2069.101
552,0.918033,2069.101
553,0.9197,2046.898
554,0.921367,2027.303
555,0.923033,2008.9
556,0.9247,2008.9
557,0.9263670000000001,1987.591
558,0.928033,1971.424
559,0.9297,1955.107
560,0.9313669999999999,1955.107
561,0.933033,1942.59
562,0.934683,1927.838
563,0.93635,1927.838
564,0.938017,1913.458
565,0.939683,1899.078
566,0.94135,1878.887
567,0.943017,1878.887
568,0.9446830000000001,1863.688
569,0.94635,1849.607
570,0.948017,1835.376
571,0.9496830000000001,1835.376
572,0.95135,1822.635
573,0.953017,1808.554
574,0.9546829999999999,1792.386
575,0.95635,1792.386
576,0.958017,1778.752
577,0.959683,1767.129
578,0.96135,1767.129
579,0.963017,1757.815
580,0.964683,1744.181
581,0.96635,1728.609
582,0.968017,1728.609
583,0.969683,1717.88
584,0.97135,1700.744
585,0.973017,1690.611
586,0.974683,1690.611
587,0.9763500000000001,1679.063
588,0.978017,1665.503
589,0.979683,1655.444
590,0.9813499999999999,1655.444
591,0.983017,1645.833
592,0.984683,1639.947
593,0.9863499999999999,1630.634
594,0.988017,1630.634
595,0.989683,1625.642
596,0.99135,1617.596
597,0.993017,1617.596
598,0.994667,1607.761
599,0.996333,1600.534
600,0.998,1586.75
601,0.999667,1586.75
602,1.001333,1574.829
603,1.003,1567.528
604,1.004667,1560.003
605,1.006333,1560.003
606,1.008,1555.234
607,1.009667,1551.062
608,1.011333,1542.643
609,1.013,1542.643
610,1.014667,1536.235
611,1.016367,1532.286
612,1.018017,1532.286
613,1.019667,1523.197
614,1.021333,1513.809
615,1.0231,1505.39
616,1.024667,1505.39
617,1.026333,1495.555
618,1.028,1490.116
619,1.029667,1486.093
620,1.031333,1486.093
621,1.033,1482.069
622,1.034667,1476.631
623,1.036333,1473.576
624,1.038,1473.576
625,1.039667,1471.415
626,1.041333,1466.125
627,1.043,1460.239
628,1.044667,1460.239
629,1.046333,1454.279
630,1.048,1448.169
631,1.049667,1448.169
632,1.051333,1441.538
633,1.053,1436.844
634,1.054633,1430.139
635,1.0563,1430.139
636,1.057967,1423.135
637,1.059633,1418.069
638,1.0613,1416.132
639,1.062967,1416.132
640,1.064633,1413.077
641,1.0663,1407.936
642,1.067967,1402.87
643,1.069633,1402.87
644,1.0713,1398.772
645,1.072967,1397.729
646,1.074633,1397.729
647,1.0763,1396.686
648,1.077967,1395.047
649,1.079633,1389.012
650,1.0813,1389.012
651,1.082967,1382.381
652,1.084633,1379.773
653,1.0863,1375.899
654,1.087967,1375.899
655,1.089633,1375.154
656,1.0913,1373.365
657,1.092983,1369.119
658,1.094633,1369.119
659,1.0963,1368.225
660,1.097967,1364.35
661,1.099633,1364.35
662,1.1013,1362.264
663,1.102967,1359.284
664,1.104633,1354.814
665,1.1063,1354.814
666,1.107967,1352.429
667,1.109633,1347.214
668,1.1113,1343.712
669,1.112967,1343.712
670,1.114617,1340.061
671,1.116283,1337.379
672,1.11795,1332.685
673,1.119617,1332.685
674,1.121283,1329.333
675,1.12295,1327.097
676,1.124617,1323.447
677,1.126283,1323.447
678,1.12795,1323.298
679,1.129617,1323.968
680,1.131283,1323.968
681,1.13295,1322.776
682,1.134617,1321.063
683,1.136283,1320.094
684,1.13795,1320.094
685,1.139617,1316.294
686,1.1413,1311.898
687,1.14295,1309.663
688,1.144617,1309.663
689,1.146283,1307.204
690,1.14795,1304.671
691,1.149617,1305.044
692,1.151283,1305.044
693,1.15295,1302.063
694,1.154617,1299.232
695,1.156283,1299.232
696,1.158067,1298.115
697,1.159617,1297.519
698,1.161283,1296.327
699,1.16295,1296.327
700,1.164617,1297.593
701,1.166283,1298.86
702,1.16795,1297.519
703,1.169633,1297.519
704,1.1713,1298.562
705,1.172933,1293.048
706,1.1746,1287.758
707,1.176267,1287.758
708,1.177933,1284.182
709,1.1796,1281.053
710,1.181267,1284.257
711,1.182933,1284.257
712,1.1846,1285.821
713,1.186267,1287.013
714,1.187933,1287.013
715,1.1896,1287.535
716,1.191267,1284.331
717,1.192933,1280.606
718,1.1946,1280.606
719,1.196267,1276.806
720,1.197933,1276.508
721,1.1996,1273.453
722,1.201267,1273.453
723,1.202933,1273.528
724,1.2046,1272.708
725,1.206267,1268.759
726,1.207933,1268.759
727,1.2096,1269.206
728,1.211267,1266.971
729,1.212933,1266.971
730,1.2146,1265.705
731,1.216267,1264.364
732,1.217933,1261.83
733,1.2196,1261.83
734,1.221267,1259.521
735,1.222933,1257.36
736,1.2246,1255.646
737,1.2263,1255.646
738,1.227933,1254.156
739,1.2296,1257.956
740,1.231267,1259.744
741,1.232933,1259.744
742,1.234583,1256.913
743,1.23625,1257.136
744,1.237917,1254.976
745,1.2396,1254.976
746,1.24125,1252.741
747,1.243,1255.646
748,1.244583,1255.646
749,1.24625,1255.423
750,1.247917,1256.689
751,1.249583,1256.913
752,1.25125,1256.913
753,1.252917,1253.709
754,1.254583,1251.698
755,1.25625,1245.141
756,1.257917,1245.141
757,1.259617,1244.47
758,1.26125,1244.321
759,1.262917,1246.482
760,1.264583,1246.482
761,1.26625,1249.984
762,1.267917,1248.494
763,1.269583,1248.494
764,1.27125,1247.898
765,1.272917,1244.694
766,1.2746,1242.384
767,1.276367,1242.384
768,1.277917,1243.502
769,1.279583,1243.949
770,1.28125,1244.843
771,1.282917,1244.843
772,1.284583,1244.992
773,1.28625,1242.757
774,1.287917,1243.353
775,1.289583,1243.353
776,1.29125,1244.62
777,1.2929,1242.459
778,1.294567,1242.459
779,1.296233,1240
780,1.2979,1237.616
781,1.299567,1234.487
782,1.301233,1234.487
783,1.3029,1231.879
784,1.304567,1232.624
785,1.306233,1234.934
786,1.3079,1234.934
787,1.309567,1237.392
788,1.311267,1239.404
789,1.3129,1239.777
790,1.314567,1239.777
791,1.316233,1237.094
792,1.3179,1234.561
793,1.319567,1233.891
794,1.321233,1233.891
795,1.3229,1233.444
796,1.324567,1231.581
797,1.326233,1231.581
798,1.3279,1230.016
799,1.329567,1230.314
800,1.331233,1232.028
801,1.3329,1232.028
802,1.334567,1233.593
803,1.336233,1235.157
804,1.3379,1237.69
805,1.339567,1237.69
806,1.341233,1235.679
807,1.3429,1235.232
808,1.344567,1232.848
809,1.346217,1232.848
810,1.347883,1228.75
811,1.34955,1229.644
812,1.351217,1229.644
813,1.352867,1231.134
814,1.354533,1229.793
815,1.3562,1231.432
816,1.357867,1231.432
817,1.359533,1229.718
818,1.36125,1228.899
819,1.362867,1230.538
820,1.364533,1230.538
821,1.3662,1230.612
822,1.367867,1228.303
823,1.369533,1226.142
824,1.3712,1226.142
825,1.372867,1224.056
826,1.374533,1220.405
827,1.3762,1217.797
828,1.377917,1217.797
829,1.379533,1217.499
830,1.3812,1217.946
831,1.382867,1217.946
832,1.384533,1222.491
833,1.3862,1229.197
834,1.387867,1227.036
835,1.389533,1227.036
836,1.3912,1227.781
837,1.392867,1224.205
838,1.39465,1219.511
839,1.3962,1219.511
840,1.397867,1221.15
841,1.399533,1219.958
842,1.4012,1219.884
843,1.402867,1219.884
844,1.404533,1219.362
845,1.4062,1218.17
846,1.407867,1218.17
847,1.409533,1214.892
848,1.4112,1213.774
849,1.41285,1214.445
850,1.414517,1214.445
851,1.416183,1215.041
852,1.41785,1217.797
853,1.419517,1216.084
854,1.421183,1216.084
855,1.42285,1214.668
856,1.424533,1211.39
857,1.426233,1211.166
858,1.42785,1211.166
859,1.429517,1211.464
860,1.431183,1210.57
861,1.43285,1212.433
862,1.434517,1212.433
863,1.436183,1213.923
864,1.43785,1213.104
865,1.439517,1213.104
866,1.441183,1215.115
867,1.44285,1212.731
868,1.444517,1211.39
869,1.446183,1211.39
870,1.44785,1214.743
871,1.449533,1215.86
872,1.451183,1218.692
873,1.452867,1218.692
874,1.454517,1217.723
875,1.456183,1213.625
876,1.45785,1209.751
877,1.459517,1209.751
878,1.461183,1209.304
879,1.46285,1207.59
880,1.464517,1207.59
881,1.466183,1209.304
882,1.46785,1212.06
883,1.469517,1212.284
884,1.471183,1212.284
885,1.472833,1212.06
886,1.4745,1210.719
887,1.476167,1210.049
888,1.477833,1210.049
889,1.4795,1209.676
890,1.481167,1210.496
891,1.482833,1212.433
892,1.4845,1212.433
893,1.486167,1211.762
894,1.487833,1213.029
895,1.4895,1213.029
896,1.491167,1212.806
897,1.492833,1213.923
898,1.4945,1216.009
899,1.496183,1216.009
900,1.497833,1217.276
901,1.4995,1219.064
902,1.501167,1215.637
903,1.502833,1215.637
904,1.5045,1211.688
905,1.506167,1208.335
906,1.507867,1208.261
907,1.5095,1208.261
908,1.511167,1209.453
909,1.512867,1212.359
910,1.5145,1213.551
