"ID","sea_time","fid_signal"
1,0,1182.854
2,0.001667,1180.843
3,0.003333,1180.843
4,0.005,1179.278
5,0.006667,1181.439
6,0.008333,1181.439
7,0.009983000000000001,1180.693
8,0.011667,1178.756
9,0.013317,1178.98
10,0.014983,1178.98
11,0.01665,1177.564
12,0.018317,1176.894
13,0.019983,1179.427
14,0.02165,1179.427
15,0.023317,1179.874
16,0.024983,1180.47
17,0.02665,1182.78
18,0.028317,1182.78
19,0.0301,1181.886
20,0.03165,1182.705
21,0.033317,1180.917
22,0.034983,1180.917
23,0.03665,1180.097
24,0.038317,1177.713
25,0.039983,1177.713
26,0.04165,1178.607
27,0.043317,1178.831
28,0.044983,1179.576
29,0.04665,1179.576
30,0.048317,1184.568
31,0.049983,1183.078
32,0.05165,1182.929
33,0.053317,1182.929
34,0.054983,1181.364
35,0.05665,1176.968
36,0.058317,1175.851
37,0.059983,1175.851
38,0.06165,1177.117
39,0.063317,1177.788
40,0.064983,1177.788
41,0.06665,1180.47
42,0.0683,1182.109
43,0.06995,1181.513
44,0.07165000000000001,1181.513
45,0.073283,1180.917
46,0.07495,1180.246
47,0.076617,1179.874
48,0.07828300000000001,1179.874
49,0.07994999999999999,1178.16
50,0.081617,1177.415
51,0.083283,1177.415
52,0.08495,1177.415
53,0.086617,1178.011
54,0.088283,1182.333
55,0.08995,1182.333
56,0.091617,1183.003
57,0.093283,1183.301
58,0.09495000000000001,1181.066
59,0.09661699999999999,1181.066
60,0.098283,1179.054
61,0.09995,1178.756
62,0.101617,1178.607
63,0.103283,1178.607
64,0.10495,1177.713
65,0.106617,1176.819
66,0.108283,1179.427
67,0.10995,1179.427
68,0.111617,1179.725
69,0.113283,1182.631
70,0.114967,1185.983
71,0.116617,1185.983
72,0.118283,1184.195
73,0.11995,1183.152
74,0.121617,1183.152
75,0.123283,1182.184
76,0.12495,1176.596
77,0.126617,1174.212
78,0.128283,1174.212
79,0.129933,1175.702
80,0.1316,1174.659
81,0.133267,1177.713
82,0.134933,1177.713
83,0.1366,1179.576
84,0.138267,1177.713
85,0.139933,1179.501
86,0.141617,1179.501
87,0.143267,1180.992
88,0.144933,1181.439
89,0.1466,1181.439
90,0.148383,1183.525
91,0.149933,1182.556
92,0.1516,1180.693
93,0.153267,1180.693
94,0.154933,1178.011
95,0.1566,1176.298
96,0.158267,1176.298
97,0.159933,1176.298
98,0.1616,1175.404
99,0.163267,1177.862
100,0.164933,1177.49
101,0.1666,1177.49
102,0.168267,1179.948
103,0.169933,1177.713
104,0.1716,1175.255
105,0.173267,1175.255
106,0.174933,1174.807
107,0.1766,1172.87
108,0.178267,1172.87
109,0.179933,1178.831
110,0.1816,1184.27
111,0.183283,1184.568
112,0.184933,1184.568
113,0.1866,1184.046
114,0.18825,1180.917
115,0.189917,1177.937
116,0.191583,1177.937
117,0.19325,1178.756
118,0.194917,1178.011
119,0.196583,1178.384
120,0.19825,1178.384
121,0.199917,1176.521
122,0.201583,1173.988
123,0.20325,1173.988
124,0.204917,1174.51
125,0.206583,1173.988
126,0.208283,1175.851
127,0.209917,1175.851
128,0.211583,1178.831
129,0.21325,1180.396
130,0.214917,1180.917
131,0.216583,1180.917
132,0.21825,1180.545
133,0.219917,1178.905
134,0.221583,1178.086
135,0.22325,1178.086
136,0.224917,1179.501
137,0.226583,1178.905
138,0.22825,1179.129
139,0.229917,1179.129
140,0.231583,1178.011
141,0.2333,1175.851
142,0.234917,1175.851
143,0.236583,1176.521
144,0.23825,1178.98
145,0.239917,1179.427
146,0.241583,1179.427
147,0.24325,1177.862
148,0.244917,1174.137
149,0.246583,1172.349
150,0.248233,1172.349
151,0.2499,1173.839
152,0.251567,1176.894
153,0.253233,1182.854
154,0.2549,1182.854
155,0.256567,1184.568
156,0.258233,1183.525
157,0.2599,1183.525
158,0.261567,1182.333
159,0.263233,1180.843
160,0.2649,1178.905
161,0.266617,1178.905
162,0.268233,1178.607
163,0.269917,1178.98
164,0.271567,1176.447
165,0.273233,1176.447
166,0.2749,1178.086
167,0.276567,1179.129
168,0.278233,1180.097
169,0.2799,1180.097
170,0.281567,1181.886
171,0.283267,1180.992
172,0.284917,1180.097
173,0.286567,1180.097
174,0.288233,1180.47
175,0.2899,1180.693
176,0.291567,1180.693
177,0.293233,1179.129
178,0.2949,1178.98
179,0.296567,1177.117
180,0.298233,1177.117
181,0.2999,1178.235
182,0.301567,1177.341
183,0.303233,1177.713
184,0.3049,1177.713
185,0.306567,1178.831
186,0.308233,1176.298
187,0.309883,1179.054
188,0.31155,1179.054
189,0.313217,1179.352
190,0.314883,1180.097
191,0.31655,1180.097
192,0.318217,1181.141
193,0.319883,1181.066
194,0.32155,1179.948
195,0.323217,1179.948
196,0.324883,1175.031
197,0.32655,1175.031
198,0.328217,1173.019
199,0.329883,1173.019
200,0.33155,1170.412
201,0.333217,1171.976
202,0.334883,1174.212
203,0.33655,1174.212
204,0.338217,1176.074
205,0.339883,1178.086
206,0.34155,1178.086
207,0.343217,1182.78
208,0.344883,1178.235
209,0.346567,1176.894
210,0.348217,1176.894
211,0.349883,1176.67
212,0.3516,1172.796
213,0.353217,1175.031
214,0.354883,1175.031
215,0.35655,1177.788
216,0.358217,1182.482
217,0.359867,1184.717
218,0.361533,1184.717
219,0.3632,1185.313
220,0.364867,1183.599
221,0.366533,1180.619
222,0.368283,1180.619
223,0.36985,1180.47
224,0.371517,1179.352
225,0.373183,1179.352
226,0.37485,1181.811
227,0.376517,1183.972
228,0.378183,1183.972
229,0.37985,1183.972
230,0.381517,1187.026
231,0.383183,1185.164
232,0.384967,1182.631
233,0.386517,1182.631
234,0.388183,1182.854
235,0.38985,1184.568
236,0.391517,1187.25
237,0.393183,1187.25
238,0.39485,1189.262
239,0.396517,1189.336
240,0.398183,1189.336
241,0.39985,1189.187
242,0.401517,1190.454
243,0.403183,1192.838
244,0.40485,1192.838
245,0.406517,1197.159
246,0.408183,1196.638
247,0.40985,1196.861
248,0.411517,1196.861
249,0.413183,1197.979
250,0.41485,1199.171
251,0.416517,1205.876
252,0.418183,1205.876
253,0.41985,1212.582
254,0.421517,1216.68
255,0.423183,1219.734
256,0.42485,1219.734
257,0.426517,1220.48
258,0.428183,1222.193
259,0.429833,1222.193
260,0.4315,1223.385
261,0.433167,1223.013
262,0.434833,1225.471
263,0.4365,1225.471
264,0.438167,1225.323
265,0.439833,1229.942
266,0.4415,1234.934
267,0.443167,1234.934
268,0.444833,1236.945
269,0.4465,1239.106
270,0.448167,1235.381
271,0.449833,1235.381
272,0.4515,1235.977
273,0.453167,1237.914
274,0.454833,1237.914
275,0.4565,1236.796
276,0.458167,1241.043
277,0.45985,1241.863
278,0.4615,1241.863
279,0.463167,1239.926
280,0.464833,1239.404
281,0.4665,1238.659
282,0.468167,1238.659
283,0.469867,1235.753
284,0.4715,1234.71
285,0.473167,1235.083
286,0.474833,1235.083
287,0.4765,1233.369
288,0.478167,1233.295
289,0.479833,1231.879
290,0.4815,1231.879
291,0.483167,1231.059
292,0.484833,1231.804
293,0.486567,1231.804
294,0.488167,1233.146
295,0.489833,1231.357
296,0.491517,1234.785
297,0.493217,1234.785
298,0.494817,1236.796
299,0.496483,1242.161
300,0.49815,1253.337
301,0.499817,1253.337
302,0.501483,1262.948
303,0.50315,1278.669
304,0.504817,1300.424
305,0.506483,1300.424
306,0.50815,1328.215
307,0.509817,1362.041
308,0.511483,1362.041
309,0.51315,1402.348
310,0.514817,1452.714
311,0.516483,1513.734
312,0.51815,1513.734
313,0.519917,1592.934
314,0.521483,1688.227
315,0.52315,1802.295
316,0.524817,1802.295
317,0.526483,1940.876
318,0.52815,2104.491
319,0.529817,2304.539
320,0.531483,2304.539
321,0.53315,2538.189
322,0.534817,2812.52
323,0.536483,2812.52
324,0.53815,3127.456
325,0.539817,3485.382
326,0.541483,3893.823
327,0.54315,3893.823
328,0.544817,4350.99
329,0.5464830000000001,4863.962
330,0.54815,5429.461
331,0.5498,5429.461
332,0.551467,6052.032
333,0.553133,6732.419
334,0.5548,7468.313
335,0.556467,7468.313
336,0.558133,8260.831
337,0.5598,9104.460999999999
338,0.561467,10001.511
339,0.563133,10001.511
340,0.564867,10953.173
341,0.5664670000000001,11954.903
342,0.568133,11954.903
343,0.5698,13003.052
344,0.5714669999999999,14098.138
345,0.573133,15232.638
346,0.5748,15232.638
347,0.576467,16400.666
348,0.578133,17603.264
349,0.5798,18829.555
350,0.581467,18829.555
351,0.583133,20076.855
352,0.5848,21347.031
353,0.586467,22627.563
354,0.588133,22627.563
355,0.5898,23914.65
356,0.591467,25205.166
357,0.593133,25205.166
358,0.5948,26486.889
359,0.596467,27760.043
360,0.598133,29012.486
361,0.5998,29012.486
362,0.601467,30238.182
363,0.603133,31436.086
364,0.604833,32595.023
365,0.606467,32595.023
366,0.608133,33715.59
367,0.609783,34789.293
368,0.61145,35812.184
369,0.613117,35812.184
370,0.614783,36784.113
371,0.6164500000000001,37696.734
372,0.618117,38549.973
373,0.619783,38549.973
374,0.621483,39338.32
375,0.623117,40056.781
376,0.624783,40056.781
377,0.62645,40708.406
378,0.628117,41290.074
379,0.629783,41802.973
380,0.63145,41802.973
381,0.633117,42246.656
382,0.634783,42618.586
383,0.63645,42917.953
384,0.63825,42917.953
385,0.639783,43150.039
386,0.64145,43313.801
387,0.643117,43415.949
388,0.644783,43415.949
389,0.64645,43459.012
390,0.6481170000000001,43439.344
391,0.649783,43439.344
392,0.651433,43362.527
393,0.6531,43234.078
394,0.654767,43051.391
395,0.656433,43051.391
396,0.6581,42824.746
397,0.659767,42555.703
398,0.661433,42243.152
399,0.6631,42243.152
400,0.664767,41896.402
401,0.6664330000000001,41514.336
402,0.668083,41101.426
403,0.66975,41101.426
404,0.671417,40661.098
405,0.673083,40197.074
406,0.67475,40197.074
407,0.676417,39708.465
408,0.678083,39203.094
409,0.67975,38682.074
410,0.6814170000000001,38682.074
411,0.683083,38146.75
412,0.68475,37602.93
413,0.6864170000000001,37054.645
414,0.688083,37054.645
415,0.68975,36500.32
416,0.6914169999999999,35939.887
417,0.693083,35378.637
418,0.69475,35378.637
419,0.696417,34812.688
420,0.698083,34247.117
421,0.69975,33686.234
422,0.701417,33686.234
423,0.703083,33126.621
424,0.70475,32569.543
425,0.706417,32569.543
426,0.708083,32018.795
427,0.70975,31474.158
428,0.711417,30936.6
429,0.713083,30936.6
430,0.71475,30407.682
431,0.716417,29887.631
432,0.718083,29371.232
433,0.71975,29371.232
434,0.721417,28865.338
435,0.7231,28368.012
436,0.72475,27876.273
437,0.726417,27876.273
438,0.728083,27394.369
439,0.729733,26921.332
440,0.7314000000000001,26921.332
441,0.733067,26459.545
442,0.734733,26003.047
443,0.7364000000000001,25560.111
444,0.738067,25560.111
445,0.739733,25121.793
446,0.7413999999999999,24692.564
447,0.743067,24274.811
448,0.744733,24274.811
449,0.7464,23861.9
450,0.748067,23461.283
451,0.749733,23065.061
452,0.7514,23065.061
453,0.753067,22680.461
454,0.754733,22305.027
455,0.756417,21937.49
456,0.758067,21937.49
457,0.759733,21581.65
458,0.7614,21229.461
459,0.7630670000000001,21229.461
460,0.764733,20885.691
461,0.7664,20550.49
462,0.7680670000000001,20217.82
463,0.769733,20217.82
464,0.7714,19895.955
465,0.7730669999999999,19581.691
466,0.77475,19272.342
467,0.7764,19272.342
468,0.778067,18972.232
469,0.779733,18678.158
470,0.7814,18391.982
471,0.783067,18391.982
472,0.784733,18108.338
473,0.7864,17829.686
474,0.788067,17829.686
475,0.789717,17556.473
476,0.7913829999999999,17289.445
477,0.79305,17030.76
478,0.79475,17030.76
479,0.796383,16779.602
480,0.79805,16530.826
481,0.799717,16288.459
482,0.801383,16288.459
483,0.80305,16050.339
484,0.804717,15816.018
485,0.806383,15590.042
486,0.80805,15590.042
487,0.809717,15365.705
488,0.811383,15149.638
489,0.8130500000000001,14935.509
490,0.814717,14935.509
491,0.816383,14724.955
492,0.8180500000000001,14518.872
493,0.819717,14518.872
494,0.821383,14314.949
495,0.8230499999999999,14119.223
496,0.824717,13926.253
497,0.826383,13926.253
498,0.82805,13737.902
499,0.829717,13551.861
500,0.831383,13366.044
501,0.83305,13366.044
502,0.834717,13183.579
503,0.836383,13004.914
504,0.83805,12831.092
505,0.839717,12831.092
506,0.84145,12662.262
507,0.84305,12499.839
508,0.8447170000000001,12499.839
509,0.846383,12337.193
510,0.84805,12177.452
511,0.8497,12022.033
512,0.851367,12022.033
513,0.853033,11867.359
514,0.8547,11717.677
515,0.856367,11568.814
516,0.858033,11568.814
517,0.8597,11423.081
518,0.861367,11279.136
519,0.86305,11134.893
520,0.8647,11134.893
521,0.866367,10996.089
522,0.8680330000000001,10858.104
523,0.8697,10723.397
524,0.871367,10723.397
525,0.8730329999999999,10592.416
526,0.874817,10464.937
527,0.876367,10464.937
528,0.878033,10338.053
529,0.8797,10215.565
530,0.881367,10093.302
531,0.883033,10093.302
532,0.8847,9973.869000000001
533,0.886367,9859.651
534,0.888033,9745.209999999999
535,0.8897,9745.209999999999
536,0.891367,9633.897999999999
537,0.893033,9522.736000000001
538,0.8947000000000001,9410.603999999999
539,0.896367,9410.603999999999
540,0.898033,9300.485000000001
541,0.8997000000000001,9192.675999999999
542,0.901367,9192.675999999999
543,0.903033,9084.717000000001
544,0.9046999999999999,8979.589
545,0.906367,8876.547
546,0.908033,8876.547
547,0.909683,8776.337
548,0.91135,8679.031999999999
549,0.913017,8585.751
550,0.914683,8585.751
551,0.91635,8493.811
552,0.918067,8402.169
553,0.919683,8310.228999999999
554,0.92135,8310.228999999999
555,0.923017,8217.99
556,0.924683,8129.18
557,0.92635,8129.18
558,0.928017,8042.306
559,0.929683,7957.965
560,0.93135,7872.879
561,0.933017,7872.879
562,0.934683,7784.665
563,0.93635,7699.355
564,0.938017,7615.462
565,0.939683,7615.462
566,0.94135,7534.549
567,0.9429999999999999,7456.392
568,0.944667,7380.694
569,0.946333,7380.694
570,0.948,7304.847
571,0.949667,7230.267
572,0.951333,7160.828
573,0.953,7160.828
574,0.954667,7087.663
575,0.956333,7015.765
576,0.958,7015.765
577,0.9597329999999999,6943.271
578,0.961333,6869.808
579,0.963,6799.921
580,0.9646670000000001,6799.921
581,0.966333,6733.537
582,0.968,6668.493
583,0.96965,6602.556
584,0.971317,6602.556
585,0.972983,6539.151
586,0.97465,6473.81
587,0.976317,6410.777
588,0.977983,6410.777
589,0.97965,6346.33
590,0.981317,6285.459
591,0.9829830000000001,6285.459
592,0.984683,6225.407
593,0.986317,6167.292
594,0.9879829999999999,6113.052
595,0.98965,6113.052
596,0.991317,6052.479
597,0.993083,5996.674
598,0.99465,5936.548
599,0.996317,5936.548
600,0.997983,5878.657
601,0.99965,5822.927
602,1.001317,5766.302
603,1.002983,5766.302
604,1.00465,5716.309
605,1.006317,5662.739
606,1.007983,5612.299
607,1.00965,5612.299
608,1.011317,5560.667
609,1.012983,5510.002
610,1.01465,5510.002
611,1.016317,5461.052
612,1.017983,5409.867
613,1.01965,5361.885
614,1.021317,5361.885
615,1.022983,5310.699
616,1.02465,5261.079
617,1.026317,5217.045
618,1.027983,5217.045
619,1.029633,5170.554
620,1.0313,5125.105
621,1.032967,5081.445
622,1.034633,5081.445
623,1.0363,5035.028
624,1.037983,4991.591
625,1.039633,4991.591
626,1.0413,4950.017
627,1.042967,4908.07
628,1.044633,4865.825
629,1.0463,4865.825
630,1.047983,4823.878
631,1.049633,4783.198
632,1.0513,4742.146
633,1.053,4742.146
634,1.054633,4705.489
635,1.0563,4664.958
636,1.057967,4624.874
637,1.059633,4624.874
638,1.0613,4587.695
639,1.062967,4547.76
640,1.064633,4509.911
641,1.0663,4509.911
642,1.067967,4472.211
643,1.069633,4434.288
644,1.0713,4434.288
645,1.072967,4399.344
646,1.074633,4363.805
647,1.0763,4330.277
648,1.078017,4330.277
649,1.079633,4296.601
650,1.0813,4262.924
651,1.082967,4231.333
652,1.084633,4231.333
653,1.0863,4198.253
654,1.087967,4164.8
655,1.089617,4127.249
656,1.091283,4127.249
657,1.09295,4092.231
658,1.094617,4060.194
659,1.096283,4060.194
660,1.09795,4028.529
661,1.099617,3999.621
662,1.101283,3967.732
663,1.10295,3967.732
664,1.104617,3935.546
665,1.106283,3906.414
666,1.10795,3875.122
667,1.109617,3875.122
668,1.111383,3846.809
669,1.11295,3815.591
670,1.114617,3785.715
671,1.116283,3785.715
672,1.11795,3759.19
673,1.119617,3734.231
674,1.121283,3734.231
675,1.12295,3709.644
676,1.124617,3679.32
677,1.126283,3648.177
678,1.12795,3648.177
679,1.129617,3620.014
680,1.1313,3590.435
681,1.13295,3565.103
682,1.134617,3565.103
683,1.136283,3543.571
684,1.13795,3518.984
685,1.139617,3495.365
686,1.141283,3495.365
687,1.14295,3474.429
688,1.144617,3449.097
689,1.146283,3422.722
690,1.14795,3422.722
691,1.1496,3398.508
692,1.151267,3370.792
693,1.152933,3370.792
694,1.1546,3346.726
695,1.156267,3325.269
696,1.157933,3301.874
697,1.1596,3301.874
698,1.161267,3279.224
699,1.162933,3256.127
700,1.1646,3231.987
701,1.166267,3231.987
702,1.167933,3211.051
703,1.1696,3193.095
704,1.171267,3174.022
705,1.172933,3174.022
706,1.1746,3154.054
707,1.176267,3132.373
708,1.177933,3132.373
709,1.1796,3108.829
710,1.181267,3086.85
711,1.182933,3067.479
712,1.1846,3067.479
713,1.186267,3045.201
714,1.187933,3026.5
715,1.1896,3006.235
716,1.191267,3006.235
717,1.192933,2985.522
718,1.1946,2968.758
719,1.196383,2949.238
720,1.197933,2949.238
721,1.1996,2930.239
722,1.201267,2911.016
723,1.202933,2891.123
724,1.2046,2891.123
725,1.206267,2869.964
726,1.207933,2852.38
727,1.209583,2852.38
728,1.21125,2832.934
729,1.213017,2814.233
730,1.214583,2799.63
731,1.21625,2799.63
732,1.217917,2783.835
733,1.219583,2771.914
734,1.22125,2759.77
735,1.222917,2759.77
736,1.224583,2745.614
737,1.22625,2729.148
738,1.227917,2710.745
739,1.229667,2710.745
740,1.23125,2692.416
741,1.232917,2675.28
742,1.234567,2675.28
743,1.236233,2659.634
744,1.2379,2641.752
745,1.239567,2630.129
746,1.241233,2630.129
747,1.2429,2613.962
748,1.244567,2596.974
749,1.246333,2581.701
750,1.2479,2581.701
751,1.249567,2562.255
752,1.251233,2546.459
753,1.2529,2529.994
754,1.254567,2529.994
755,1.256233,2515.763
756,1.2579,2502.128
757,1.259567,2488.196
758,1.261233,2488.196
759,1.2629,2478.808
760,1.264567,2468.079
761,1.26625,2468.079
762,1.26795,2455.115
763,1.26955,2441.853
764,1.271217,2427.176
765,1.272883,2427.176
766,1.27455,2411.977
767,1.276217,2400.279
768,1.277883,2388.358
769,1.27955,2388.358
770,1.281217,2375.021
771,1.282883,2363.399
772,1.28455,2350.509
773,1.286217,2350.509
774,1.287883,2337.545
775,1.28955,2326.816
776,1.291217,2326.816
777,1.292883,2316.162
778,1.29455,2302.974
779,1.296217,2291.948
780,1.297883,2291.948
781,1.29955,2277.27
782,1.301217,2263.71
783,1.302883,2252.534
784,1.30455,2252.534
785,1.306217,2239.719
786,1.307883,2228.916
787,1.30955,2220.347
788,1.311217,2220.347
789,1.312883,2210.14
790,1.314567,2198.07
791,1.316217,2198.07
792,1.317883,2188.385
793,1.31955,2176.985
794,1.321217,2167.896
795,1.322883,2167.896
796,1.32455,2160.221
797,1.326217,2152.324
798,1.327883,2142.936
799,1.329533,2142.936
800,1.331283,2134.219
801,1.332867,2124.086
802,1.33455,2114.996
803,1.3362,2114.996
804,1.337933,2104.417
805,1.339533,2092.943
806,1.3412,2083.182
807,1.342867,2083.182
808,1.344533,2071.41
809,1.3462,2061.352
810,1.347933,2061.352
811,1.349533,2049.133
812,1.3512,2038.628
813,1.352867,2031.997
814,1.354533,2031.997
815,1.3562,2021.044
816,1.357867,2012.327
817,1.359533,2005.92
818,1.3612,2005.92
819,1.362867,1993.701
820,1.364633,1986.399
821,1.3662,1979.843
822,1.367867,1979.843
823,1.369533,1970.53
824,1.3712,1964.048
825,1.372867,1964.048
826,1.374533,1954.809
827,1.3762,1946.166
828,1.377867,1938.716
829,1.379533,1938.716
830,1.3812,1932.308
831,1.382867,1926.72
832,1.384533,1921.728
833,1.3862,1921.728
834,1.38785,1916.885
835,1.389517,1906.008
836,1.391183,1896.545
837,1.39285,1896.545
838,1.394517,1886.115
839,1.396183,1876.056
840,1.39785,1869.351
841,1.399517,1869.351
842,1.401183,1862.72
843,1.40285,1855.791
844,1.404517,1855.791
845,1.406183,1850.352
846,1.40785,1846.179
847,1.409567,1842.082
848,1.411183,1842.082
849,1.41285,1835.749
850,1.414517,1826.137
851,1.416183,1817.346
852,1.41785,1817.346
853,1.419517,1808.777
854,1.421183,1801.55
855,1.42285,1796.484
856,1.424517,1796.484
857,1.426183,1789.033
858,1.42785,1781.657
859,1.429517,1781.657
860,1.431183,1774.43
861,1.43285,1765.192
862,1.434517,1760.423
863,1.436183,1760.423
864,1.43785,1755.953
865,1.439517,1752.526
866,1.441183,1751.631
867,1.44285,1751.631
868,1.444517,1747.683
869,1.446183,1742.914
870,1.44785,1737.103
871,1.44955,1737.103
872,1.451167,1729.056
873,1.452833,1722.5
874,1.4545,1714.751
875,1.456167,1714.751
876,1.457833,1707.077
877,1.4595,1702.756
878,1.461167,1702.756
879,1.462833,1696.274
880,1.4645,1690.984
881,1.4662,1685.396
882,1.467833,1685.396
883,1.4695,1677.349
884,1.471167,1671.538
885,1.472833,1665.279
886,1.4745,1665.279
887,1.476167,1664.907
888,1.477833,1662.672
889,1.4795,1657.978
890,1.481183,1657.978
891,1.48295,1656.488
892,1.4845,1650.527
893,1.486167,1650.527
894,1.487833,1648.888
895,1.4895,1645.386
896,1.491167,1642.108
897,1.492833,1642.108
898,1.494517,1636.147
899,1.496167,1627.803
900,1.497833,1624.599
901,1.4995,1624.599
902,1.501167,1617.447
903,1.502833,1611.337
904,1.5045,1608.059
