"ID","sea_time","fid_signal"
1,0,1171.306
2,0.001667,1171.306
3,0.003333,1171.604
4,0.005,1173.243
5,0.006667,1171.455
6,0.00835,1171.455
7,0.010033,1170.486
8,0.011633,1169.667
9,0.0133,1169.667
10,0.014967,1169.369
11,0.016633,1167.879
12,0.0183,1165.345
13,0.019967,1165.345
14,0.021667,1167.729
15,0.0233,1167.729
16,0.024967,1168.326
17,0.026633,1168.326
18,0.0283,1168.698
19,0.029967,1168.624
20,0.031633,1165.643
21,0.0333,1165.643
22,0.034967,1165.867
23,0.03665,1164.6
24,0.0383,1164.6
25,0.039967,1165.643
26,0.041633,1167.432
27,0.0433,1170.188
28,0.044967,1170.188
29,0.046633,1173.392
30,0.0483,1173.615
31,0.049967,1174.733
32,0.051633,1174.733
33,0.053417,1172.423
34,0.054967,1172.274
35,0.056633,1168.847
36,0.0583,1168.847
37,0.059967,1166.239
38,0.061633,1166.09
39,0.0633,1166.09
40,0.064967,1167.432
41,0.066633,1168.251
42,0.0683,1168.847
43,0.06995,1168.847
44,0.071617,1169.071
45,0.073283,1165.122
46,0.07495,1167.208
47,0.076617,1167.208
48,0.07828300000000001,1167.059
49,0.07994999999999999,1166.09
50,0.081617,1166.239
51,0.083283,1166.239
52,0.08495,1165.718
53,0.086617,1168.922
54,0.088283,1170.784
55,0.08995,1170.784
56,0.091617,1171.157
57,0.093283,1168.698
58,0.09495000000000001,1168.698
59,0.09661699999999999,1164.675
60,0.098283,1161.769
61,0.09995,1161.099
62,0.101617,1161.099
63,0.103283,1161.173
64,0.10495,1160.8
65,0.106617,1164.675
66,0.108283,1164.675
67,0.10995,1166.835
68,0.111617,1170.71
69,0.113283,1174.063
70,0.11495,1174.063
71,0.116617,1171.902
72,0.118283,1171.455
73,0.11995,1171.455
74,0.121617,1170.784
75,0.123283,1170.114
76,0.12495,1169.667
77,0.126617,1169.667
78,0.128283,1169.294
79,0.129933,1166.388
80,0.1316,1164.526
81,0.133267,1164.526
82,0.134933,1164.079
83,0.1366,1163.632
84,0.138333,1164.302
85,0.139933,1164.302
86,0.1416,1168.177
87,0.143267,1170.561
88,0.144933,1173.019
89,0.1466,1173.019
90,0.148267,1173.317
91,0.149933,1171.008
92,0.1516,1171.008
93,0.153267,1169.22
94,0.154933,1166.612
95,0.1566,1168.027
96,0.158267,1168.027
97,0.159933,1168.698
98,0.1616,1168.996
99,0.163267,1171.082
100,0.164933,1171.082
101,0.1666,1172.274
102,0.168283,1170.71
103,0.169933,1171.306
104,0.1717,1171.306
105,0.173267,1171.306
106,0.174933,1168.251
107,0.1766,1168.251
108,0.178267,1170.933
109,0.179933,1172.125
110,0.1816,1173.839
111,0.183267,1173.839
112,0.184933,1174.435
113,0.1866,1170.933
114,0.188267,1168.773
115,0.189933,1168.773
116,0.191583,1166.165
117,0.19325,1168.475
118,0.194917,1172.2
119,0.196583,1172.2
120,0.19825,1173.988
121,0.199917,1173.988
122,0.201583,1171.678
123,0.20325,1171.678
124,0.204917,1168.102
125,0.206583,1165.569
126,0.20825,1165.569
127,0.209917,1163.408
128,0.211583,1165.345
129,0.21325,1168.4
130,0.214917,1168.4
131,0.216583,1168.922
132,0.21825,1169.965
133,0.219917,1166.537
134,0.221583,1166.537
135,0.22325,1164.6
136,0.224917,1165.718
137,0.226583,1166.388
138,0.22825,1166.388
139,0.229917,1166.463
140,0.231583,1169.369
141,0.23325,1169.369
142,0.234917,1168.549
143,0.236583,1168.4
144,0.23825,1168.698
145,0.239933,1168.698
146,0.241617,1165.494
147,0.24325,1164.451
148,0.244917,1165.196
149,0.246583,1165.196
150,0.24825,1164.973
151,0.2499,1165.792
152,0.251567,1169.741
153,0.253233,1169.741
154,0.2549,1170.039
155,0.256633,1172.572
156,0.258233,1175.18
157,0.2599,1175.18
158,0.261567,1178.011
159,0.263233,1185.834
160,0.264917,1185.834
161,0.266567,1194.403
162,0.268233,1205.355
163,0.2699,1218.617
164,0.271567,1218.617
165,0.27335,1235.232
166,0.2749,1257.434
167,0.276567,1281.127
168,0.278233,1281.127
169,0.2799,1307.651
170,0.281567,1334.623
171,0.283233,1364.648
172,0.2849,1364.648
173,0.286567,1401.752
174,0.288233,1445.04
175,0.29,1497.269
176,0.291567,1497.269
177,0.293233,1553.372
178,0.2949,1610.667
179,0.296567,1610.667
180,0.298233,1672.73
181,0.2999,1738.37
182,0.30155,1813.024
183,0.303217,1813.024
184,0.304883,1897.29
185,0.30655,1986.846
186,0.308217,2082.512
187,0.309867,2082.512
188,0.311533,2180.04
189,0.3132,2286.509
190,0.314867,2286.509
191,0.316533,2400.055
192,0.318217,2521.723
193,0.319883,2655.238
194,0.321533,2655.238
195,0.3232,2798.215
196,0.324867,2957.433
197,0.326533,3140.718
198,0.3282,3140.718
199,0.329867,3360.584
200,0.331533,3628.358
201,0.3332,3963.783
202,0.334867,3963.783
203,0.336533,4395.768
204,0.3382,4939.661
205,0.339867,5615.801
206,0.341533,5615.801
207,0.3432,6429.33
208,0.344867,7358.268
209,0.346533,7358.268
210,0.3482,8375.049000000001
211,0.349867,9424.761
212,0.351533,10446.087
213,0.3532,10446.087
214,0.354867,11371.747
215,0.356533,12144.521
216,0.3582,12723.58
217,0.359867,12723.58
218,0.361533,13084.412
219,0.3632,13221.13
220,0.364867,13144.687
221,0.366533,13144.687
222,0.3682,12880.191
223,0.36985,12456.029
224,0.371517,12456.029
225,0.373183,11918.545
226,0.374867,11296.645
227,0.376517,10628.477
228,0.378183,10628.477
229,0.37985,9942.055
230,0.381517,9254.217000000001
231,0.383183,8587.465
232,0.38485,8587.465
233,0.386517,7950.887
234,0.3882,7352.382
235,0.389917,6792.62
236,0.3916,6792.62
237,0.393183,6276.22
238,0.39485,5799.904
239,0.396517,5364.939
240,0.398183,5364.939
241,0.39985,4975.498
242,0.401517,4624.65
243,0.403183,4624.65
244,0.40485,4311.204
245,0.406517,4028.454
246,0.408267,3774.092
247,0.40985,3774.092
248,0.411517,3544.912
249,0.413183,3338.307
250,0.41485,3157.928
251,0.416517,3157.928
252,0.418183,2991.036
253,0.41985,2844.036
254,0.421517,2710.894
255,0.423183,2710.894
256,0.42495,2591.461
257,0.426517,2484.471
258,0.428183,2484.471
259,0.429833,2387.688
260,0.4315,2298.951
261,0.433167,2216.92
262,0.434833,2216.92
263,0.4365,2143.458
264,0.438167,2075.508
265,0.43985,2017.468
266,0.4415,2017.468
267,0.443167,1962.706
268,0.444833,1917.109
269,0.4465,1873.598
270,0.448167,1873.598
271,0.449833,1830.086
272,0.4515,1790.747
273,0.453167,1752.526
274,0.454833,1752.526
275,0.4565,1719.445
276,0.458167,1689.568
277,0.459833,1689.568
278,0.4615,1663.193
279,0.463217,1637.042
280,0.464833,1613.87
281,0.4665,1613.87
282,0.468167,1594.499
283,0.469833,1574.382
284,0.4715,1557.097
285,0.473183,1557.097
286,0.474833,1538.619
287,0.4765,1519.248
288,0.478167,1503.155
289,0.479833,1503.155
290,0.4815,1486.689
291,0.483167,1473.352
292,0.484833,1473.352
293,0.4865,1458.228
294,0.488167,1442.73
295,0.489817,1429.841
296,0.491483,1429.841
297,0.49315,1418.292
298,0.494817,1410.395
299,0.496483,1402.348
300,0.49815,1402.348
301,0.499817,1393.78
302,0.501483,1384.988
303,0.50315,1374.483
304,0.504817,1374.483
305,0.506483,1369.566
306,0.50815,1365.99
307,0.509867,1361.743
308,0.511483,1361.743
309,0.51315,1358.539
310,0.514817,1351.684
311,0.516483,1351.684
312,0.51815,1343.712
313,0.519817,1336.411
314,0.521483,1331.344
315,0.52315,1331.344
316,0.524817,1326.278
317,0.526567,1323.372
318,0.52815,1317.859
319,0.529817,1317.859
320,0.531483,1313.984
321,0.53315,1307.726
322,0.534817,1301.393
323,0.536483,1301.393
324,0.53815,1296.997
325,0.539817,1293.197
326,0.541517,1293.197
327,0.543167,1291.111
328,0.544817,1291.037
329,0.5464830000000001,1290.441
330,0.548133,1290.441
331,0.5498,1287.162
332,0.551467,1285.598
333,0.553133,1280.829
334,0.5548,1280.829
335,0.556467,1277.775
336,0.558133,1273.081
337,0.5598,1268.834
338,0.561467,1268.834
339,0.563133,1265.779
340,0.5648,1263.171
341,0.566483,1263.171
342,0.568133,1262.426
343,0.5698,1258.925
344,0.5714669999999999,1257.583
345,0.573133,1257.583
346,0.5748,1256.54
347,0.576467,1254.678
348,0.578133,1252.666
349,0.5798,1252.666
350,0.581467,1247.302
351,0.583133,1242.31
352,0.5848,1240.298
353,0.586467,1240.298
354,0.588133,1239.404
355,0.5898,1240.671
356,0.591467,1240.447
357,0.593117,1240.447
358,0.594783,1239.181
359,0.59645,1240
360,0.598117,1240
361,0.599783,1240.224
362,0.60145,1240.075
363,0.603117,1237.318
364,0.6048,1237.318
365,0.606483,1235.977
366,0.6081,1233.146
367,0.6097669999999999,1228.75
368,0.611433,1228.75
369,0.6131,1226.664
370,0.614783,1223.46
371,0.616433,1222.342
372,0.6181,1222.342
373,0.619767,1225.099
374,0.621433,1224.726
375,0.6231,1224.726
376,0.624767,1222.268
377,0.626433,1221.001
378,0.628183,1217.648
379,0.629767,1217.648
380,0.631433,1217.425
381,0.6331,1219.734
382,0.634767,1220.778
383,0.636433,1220.778
384,0.6381,1220.778
385,0.639767,1218.84
386,0.641433,1214.892
387,0.6431,1214.892
388,0.644833,1213.104
389,0.646433,1212.731
390,0.6481,1213.551
391,0.649783,1213.551
392,0.651433,1212.656
393,0.6531,1209.304
394,0.654767,1209.304
395,0.656433,1207.218
396,0.6581,1204.982
397,0.659767,1207.963
398,0.66155,1207.963
399,0.6631,1210.421
400,0.664767,1208.41
401,0.6664330000000001,1210.719
402,0.6681,1210.719
403,0.66975,1208.931
404,0.671417,1207.59
405,0.673083,1208.931
406,0.67475,1208.931
407,0.676417,1208.782
408,0.678083,1209.155
409,0.67975,1209.155
410,0.6814170000000001,1207.292
411,0.683083,1206.92
412,0.6848,1202.971
413,0.6864170000000001,1202.971
414,0.688083,1203.12
415,0.68975,1203.418
416,0.6914169999999999,1202.449
417,0.693083,1202.449
418,0.69475,1202.822
419,0.696417,1203.12
420,0.698083,1203.045
421,0.69975,1203.045
422,0.701417,1202.226
423,0.703083,1204.014
424,0.70475,1204.014
425,0.706417,1201.332
426,0.708083,1202.3
427,0.70975,1203.194
428,0.711417,1203.194
429,0.713083,1203.045
430,0.71475,1202.598
431,0.716417,1201.108
432,0.718083,1201.108
433,0.71975,1202.673
434,0.721417,1201.406
435,0.723083,1201.108
436,0.72475,1201.108
437,0.726417,1197.755
438,0.7281,1194.03
439,0.729733,1193.583
440,0.7314000000000001,1193.583
441,0.733067,1190.975
442,0.734733,1194.477
443,0.7364000000000001,1194.477
444,0.738067,1192.689
445,0.739733,1191.571
446,0.7413999999999999,1194.328
447,0.743067,1194.328
448,0.744733,1193.359
449,0.746467,1197.681
450,0.748067,1200.885
451,0.749733,1200.885
452,0.7514,1199.245
453,0.753067,1199.916
454,0.754783,1198.351
455,0.7564,1198.351
456,0.758067,1196.712
457,0.759733,1195.967
458,0.7614,1195.967
459,0.7630670000000001,1194.03
460,0.764733,1194.328
461,0.7664,1190.454
462,0.7680670000000001,1190.454
463,0.769733,1190.454
464,0.7714,1191.795
465,0.7730669999999999,1188.591
466,0.774733,1188.591
467,0.7764,1188.964
468,0.778067,1188.07
469,0.779817,1186.729
470,0.7814,1186.729
471,0.783067,1189.262
472,0.784733,1191.348
473,0.7864,1191.869
474,0.788067,1191.869
475,0.789717,1192.391
476,0.7913829999999999,1192.838
477,0.79305,1192.838
478,0.794717,1192.763
479,0.796383,1195.595
480,0.79805,1194.701
481,0.799717,1194.701
482,0.801383,1191.422
483,0.80305,1188.889
484,0.804717,1185.536
485,0.806383,1185.536
486,0.80805,1183.823
487,0.809717,1186.207
488,0.811383,1187.995
489,0.8130500000000001,1187.995
490,0.814717,1186.729
491,0.816383,1186.803
492,0.8180500000000001,1186.803
493,0.819717,1185.089
494,0.821417,1185.089
495,0.8230499999999999,1188.517
496,0.824717,1188.517
497,0.826383,1190.156
498,0.8280999999999999,1189.187
499,0.829717,1186.281
500,0.831383,1186.281
501,0.83305,1185.685
502,0.834717,1186.729
503,0.836383,1186.952
504,0.83805,1186.952
505,0.839717,1187.846
506,0.841383,1186.952
507,0.84305,1183.674
508,0.8447170000000001,1183.674
509,0.846383,1184.046
510,0.84805,1181.588
511,0.8497,1181.588
512,0.851367,1180.097
513,0.853033,1181.066
514,0.8547,1182.333
515,0.856367,1182.333
516,0.858033,1184.344
517,0.8597,1184.866
518,0.861367,1187.548
519,0.8630330000000001,1187.548
520,0.864767,1188.07
521,0.866367,1190.901
522,0.8680330000000001,1191.72
523,0.8697,1191.72
524,0.871367,1187.772
525,0.8730329999999999,1183.227
526,0.8747,1183.227
527,0.876367,1182.109
528,0.878033,1182.258
529,0.8797,1182.78
530,0.881367,1182.78
531,0.883033,1184.94
532,0.884683,1183.152
533,0.88635,1181.215
534,0.8880169999999999,1181.215
535,0.889683,1183.45
536,0.89135,1182.854
537,0.8930169999999999,1182.184
538,0.894683,1182.184
539,0.89635,1180.693
540,0.8981,1177.341
541,0.8997000000000001,1176.521
542,0.90135,1176.521
543,0.903017,1177.341
544,0.9046999999999999,1178.16
545,0.906383,1178.16
546,0.908017,1181.066
547,0.909667,1184.046
548,0.9113329999999999,1185.834
549,0.913,1185.834
550,0.914667,1186.654
551,0.916333,1185.611
552,0.918,1185.462
553,0.919667,1185.462
554,0.921333,1184.344
555,0.923,1182.78
556,0.924667,1181.737
557,0.926333,1181.737
558,0.928,1180.843
559,0.929667,1181.066
560,0.931333,1181.066
561,0.9330000000000001,1182.556
562,0.934667,1182.035
563,0.936333,1181.215
564,0.9379999999999999,1181.215
565,0.939667,1179.352
566,0.941333,1182.482
567,0.9429999999999999,1184.419
568,0.944667,1184.419
569,0.946333,1184.121
570,0.948,1182.854
571,0.949667,1179.725
572,0.951333,1179.725
573,0.953,1178.756
574,0.954667,1179.278
575,0.956333,1179.278
576,0.958,1181.662
577,0.959667,1181.737
578,0.961333,1181.588
579,0.963,1181.588
580,0.9646670000000001,1182.705
581,0.966333,1184.568
582,0.968,1182.631
583,0.9696669999999999,1182.631
584,0.971333,1179.799
585,0.972983,1178.011
586,0.97465,1174.51
587,0.976317,1174.51
588,0.977983,1177.49
589,0.97965,1178.831
590,0.981317,1180.545
591,0.98305,1180.545
592,0.98465,1180.619
593,0.986317,1177.639
594,0.9879829999999999,1177.639
595,0.98965,1178.682
596,0.991317,1178.16
597,0.9929829999999999,1179.501
598,0.99465,1179.501
599,0.996317,1181.96
600,0.997983,1179.576
601,0.99965,1179.054
602,1.001317,1179.054
603,1.002983,1178.16
604,1.00465,1175.776
605,1.006317,1178.831
606,1.007983,1178.831
607,1.00965,1177.415
608,1.011317,1178.011
609,1.012983,1178.011
610,1.01465,1180.321
611,1.016433,1179.725
612,1.017983,1180.097
613,1.01965,1180.097
614,1.021317,1180.321
615,1.022983,1180.246
616,1.02465,1177.415
617,1.026317,1177.415
618,1.027983,1178.533
619,1.02965,1176.745
620,1.0313,1177.043
621,1.032967,1177.043
622,1.034633,1179.129
623,1.0363,1176.67
624,1.037967,1178.756
625,1.039633,1178.756
626,1.0413,1177.564
627,1.042967,1176.149
628,1.044633,1176.149
629,1.0463,1176.968
630,1.047967,1175.553
631,1.049633,1173.168
632,1.0513,1173.168
633,1.052967,1173.69
634,1.054633,1171.753
635,1.0563,1169.965
636,1.057967,1169.965
637,1.059633,1173.839
638,1.0613,1176.223
639,1.062967,1179.427
640,1.064633,1179.427
641,1.0663,1181.439
642,1.067967,1178.533
643,1.069633,1178.533
644,1.071317,1174.733
645,1.072967,1174.063
646,1.074633,1174.36
647,1.0763,1174.36
648,1.077967,1172.796
649,1.079633,1172.87
650,1.0813,1171.902
651,1.082967,1171.902
652,1.084633,1171.157
653,1.0863,1171.529
654,1.087967,1172.796
655,1.089617,1172.796
656,1.091283,1174.063
657,1.09295,1175.329
658,1.094617,1175.329
659,1.096283,1177.49
660,1.09795,1177.788
661,1.099617,1177.862
662,1.101317,1177.862
663,1.10295,1177.415
664,1.104617,1175.255
665,1.106283,1176.074
666,1.10795,1176.074
667,1.109617,1175.404
668,1.111283,1173.466
669,1.112983,1176
670,1.114617,1176
671,1.116283,1172.796
672,1.11795,1173.913
673,1.119617,1173.243
674,1.1213,1173.243
675,1.12295,1173.466
676,1.124617,1176.745
677,1.126283,1176.745
678,1.12795,1172.945
679,1.129617,1174.286
680,1.131283,1171.231
681,1.13295,1171.231
682,1.134717,1168.4
683,1.136283,1171.455
684,1.13795,1169.741
685,1.139617,1169.741
686,1.141283,1174.807
687,1.14295,1178.011
688,1.144617,1174.733
689,1.146283,1174.733
690,1.14795,1174.957
691,1.1496,1172.498
692,1.151267,1172.498
693,1.152933,1173.094
694,1.1546,1176.447
695,1.156267,1178.309
696,1.157933,1178.309
697,1.1596,1179.65
698,1.161267,1177.937
699,1.162933,1176.074
700,1.1646,1176.074
701,1.166267,1177.192
702,1.167933,1174.807
703,1.1696,1176.596
704,1.171267,1176.596
705,1.172933,1178.16
706,1.1746,1177.639
707,1.17625,1178.16
708,1.177917,1178.16
709,1.179583,1175.106
710,1.18125,1173.839
711,1.182933,1173.839
712,1.184583,1174.063
713,1.18625,1175.106
714,1.187917,1176.745
715,1.189583,1176.745
716,1.19125,1178.309
717,1.192917,1175.18
718,1.194583,1172.796
719,1.19625,1172.796
720,1.197917,1169.741
721,1.199583,1166.463
722,1.20125,1166.463
723,1.20295,1166.463
724,1.204583,1166.09
725,1.20625,1165.718
726,1.207917,1165.718
727,1.209583,1165.941
728,1.211233,1167.804
729,1.2129,1171.082
730,1.214567,1171.082
731,1.216233,1173.765
732,1.2179,1175.925
733,1.219583,1177.192
734,1.221233,1177.192
735,1.2229,1173.615
736,1.224567,1175.776
737,1.226233,1176
738,1.2279,1176
739,1.229567,1174.212
740,1.231233,1176.819
741,1.2329,1175.255
742,1.234567,1175.255
743,1.236267,1176.074
744,1.2379,1176.968
745,1.239567,1176.968
746,1.241233,1176.223
747,1.2429,1176.968
748,1.244567,1173.765
749,1.24625,1173.765
750,1.2479,1174.733
751,1.249567,1176.372
752,1.251233,1175.925
753,1.25295,1175.925
754,1.254567,1179.576
755,1.256233,1179.054
756,1.257917,1178.607
757,1.259567,1178.607
758,1.261233,1176.372
759,1.2629,1173.243
760,1.264567,1173.243
761,1.266233,1173.466
762,1.2679,1173.466
763,1.26955,1173.839
764,1.271217,1173.839
765,1.272883,1176.298
766,1.27455,1175.255
767,1.276217,1173.392
768,1.277883,1173.392
769,1.27955,1175.776
770,1.281217,1176.894
771,1.282883,1177.788
772,1.28455,1177.788
773,1.286217,1180.321
774,1.287883,1179.352
775,1.28955,1179.352
776,1.291217,1177.937
777,1.292883,1177.192
778,1.294567,1173.765
779,1.296217,1173.765
780,1.297883,1171.082
781,1.29955,1168.251
782,1.301217,1166.761
783,1.302883,1166.761
784,1.30455,1168.624
785,1.306217,1168.922
786,1.307883,1171.976
787,1.30955,1171.976
788,1.311217,1172.051
789,1.312883,1173.243
790,1.31455,1175.18
791,1.316217,1175.18
792,1.317883,1174.286
793,1.31955,1174.137
794,1.321217,1174.137
795,1.322883,1171.455
796,1.32455,1171.604
797,1.326217,1171.678
798,1.327917,1171.678
799,1.329533,1173.839
800,1.3312,1177.117
801,1.332867,1174.212
802,1.334533,1174.212
803,1.3362,1174.51
804,1.337867,1173.019
805,1.339533,1170.337
806,1.3412,1170.337
807,1.342867,1172.945
808,1.344533,1171.976
809,1.3462,1171.976
810,1.347867,1173.168
811,1.349533,1172.274
812,1.3512,1173.466
813,1.352867,1173.466
814,1.354583,1173.839
815,1.3562,1173.615
816,1.357867,1177.788
817,1.359533,1177.788
818,1.3612,1175.478
819,1.362867,1175.776
820,1.364533,1176.447
821,1.3662,1176.447
822,1.367867,1171.827
823,1.369533,1173.839
824,1.37125,1173.69
825,1.372867,1173.69
826,1.374533,1173.765
827,1.3762,1175.553
828,1.377883,1175.553
829,1.379533,1175.702
830,1.3812,1176.819
831,1.382867,1174.584
832,1.384533,1174.584
833,1.3862,1173.243
834,1.387967,1171.082
835,1.389517,1169.071
836,1.391183,1169.071
837,1.39285,1171.231
838,1.394517,1174.286
839,1.396183,1176.67
840,1.39785,1176.67
841,1.399517,1175.627
842,1.401183,1175.329
843,1.402867,1175.329
844,1.404517,1172.051
845,1.406183,1169.369
846,1.40785,1168.773
847,1.409517,1168.773
848,1.411183,1166.984
849,1.41285,1169.667
850,1.414517,1171.008
851,1.416183,1171.008
852,1.41785,1174.882
853,1.419517,1175.627
854,1.421183,1172.721
855,1.42285,1172.721
856,1.424517,1173.913
857,1.426183,1171.306
858,1.42785,1172.349
859,1.429517,1172.349
860,1.431183,1172.647
861,1.43285,1170.114
862,1.434517,1170.114
863,1.436183,1169.369
864,1.43785,1168.102
865,1.439517,1167.879
866,1.441183,1167.879
867,1.44285,1168.177
868,1.444517,1167.804
869,1.446183,1168.698
870,1.44785,1168.698
871,1.4495,1170.188
872,1.451167,1171.082
873,1.452833,1174.733
874,1.4545,1174.733
875,1.456167,1174.882
876,1.457833,1175.553
877,1.4595,1175.553
878,1.461183,1173.392
879,1.462833,1172.87
880,1.4645,1173.317
881,1.466167,1173.317
882,1.467817,1173.466
883,1.469483,1176.447
884,1.471167,1174.36
885,1.472933,1174.36
886,1.474483,1171.678
887,1.47615,1168.326
888,1.477817,1166.239
889,1.479483,1166.239
890,1.48115,1165.643
891,1.482817,1165.941
892,1.484483,1165.941
893,1.48615,1168.326
894,1.487817,1169.443
895,1.489533,1171.902
896,1.49115,1171.902
897,1.492817,1174.286
898,1.494483,1172.87
899,1.49615,1172.87
900,1.497817,1172.87
901,1.499483,1170.188
902,1.50115,1167.059
903,1.502817,1170.412
904,1.504483,1170.412
905,1.506233,1171.008
906,1.507817,1174.435
907,1.509467,1177.564
908,1.511133,1177.564
909,1.5128,1176.372
910,1.514467,1176.894
911,1.516133,1176.894
912,1.5178,1173.765
913,1.519467,1171.231
914,1.521133,1168.698
915,1.5228,1168.698
916,1.524467,1165.792
917,1.526133,1166.463
918,1.5278,1167.953
919,1.529467,1167.953
920,1.531133,1170.561
