"ID","sea_time","fid_signal"
1,0,1163.632
2,0.001567,1165.718
3,0.003233,1165.643
4,0.0049,1165.643
5,0.006567,1166.686
6,0.008233000000000001,1163.632
7,0.009900000000000001,1163.632
8,0.011567,1163.557
9,0.013233,1164.377
10,0.0149,1164.675
11,0.01665,1164.675
12,0.018233,1169.071
13,0.0199,1169.369
14,0.02155,1169.294
15,0.023217,1169.294
16,0.024883,1172.572
17,0.02655,1171.082
18,0.028217,1173.392
19,0.029883,1173.392
20,0.03155,1173.019
21,0.033217,1174.063
22,0.0349,1172.423
23,0.03655,1172.423
24,0.038217,1170.784
25,0.039883,1169.22
26,0.04155,1169.22
27,0.043217,1165.494
28,0.044883,1166.463
29,0.046567,1169.443
30,0.048217,1169.443
31,0.049883,1170.114
32,0.05155,1172.274
33,0.053217,1172.274
34,0.054883,1172.274
35,0.05655,1169.89
36,0.058217,1169.816
37,0.059867,1168.773
38,0.061533,1168.773
39,0.06320000000000001,1166.761
40,0.06486699999999999,1167.133
41,0.06653299999999999,1167.133
42,0.0682,1167.879
43,0.069867,1167.432
44,0.071533,1171.38
45,0.0732,1171.38
46,0.074867,1172.2
47,0.076533,1171.529
48,0.078233,1167.282
49,0.07986699999999999,1167.282
50,0.08153299999999999,1163.483
51,0.0832,1162.887
52,0.084867,1163.632
53,0.086533,1163.632
54,0.0882,1166.463
55,0.089867,1168.698
56,0.091533,1168.698
57,0.09320000000000001,1167.506
58,0.09486700000000001,1166.91
59,0.09653299999999999,1167.804
60,0.0982,1167.804
61,0.099867,1166.91
62,0.1016,1165.569
63,0.1032,1167.879
64,0.104867,1167.879
65,0.106533,1167.506
66,0.1082,1169.965
67,0.109867,1168.773
68,0.111533,1168.773
69,0.1132,1166.686
70,0.114867,1166.388
71,0.11655,1167.58
72,0.118283,1167.58
73,0.11985,1172.051
74,0.121517,1171.157
75,0.123183,1171.157
76,0.12485,1171.157
77,0.126517,1170.784
78,0.128183,1168.177
79,0.12985,1168.177
80,0.131517,1170.412
81,0.133183,1170.784
82,0.13495,1168.251
83,0.136517,1168.251
84,0.138183,1170.71
85,0.13985,1168.996
86,0.141517,1169.965
87,0.143183,1169.965
88,0.14485,1168.847
89,0.146517,1165.569
90,0.148183,1165.569
91,0.14985,1164.302
92,0.151517,1162.291
93,0.153183,1162.663
94,0.15485,1162.663
95,0.156517,1163.408
96,0.158183,1168.177
97,0.15985,1168.698
98,0.161517,1168.698
99,0.163183,1167.953
100,0.16485,1169.22
101,0.166533,1165.941
102,0.168183,1165.941
103,0.16985,1169.294
104,0.171517,1171.306
105,0.173183,1172.125
106,0.17485,1172.125
107,0.176517,1174.212
108,0.178183,1171.827
109,0.179833,1171.827
110,0.1815,1172.349
111,0.183167,1171.678
112,0.184833,1168.624
113,0.1865,1168.624
114,0.188167,1169.369
115,0.189867,1169.667
116,0.1915,1168.4
117,0.193167,1168.4
118,0.194833,1168.475
119,0.1965,1167.357
120,0.198167,1168.326
121,0.199833,1168.326
122,0.2015,1171.827
123,0.203167,1174.733
124,0.204833,1174.733
125,0.2065,1174.659
126,0.208167,1172.721
127,0.209833,1171.678
128,0.2115,1171.678
129,0.213167,1170.933
130,0.214833,1170.412
131,0.2165,1168.549
132,0.218167,1168.549
133,0.219867,1166.463
134,0.2215,1166.612
135,0.223167,1167.655
136,0.224833,1167.655
137,0.2265,1171.38
138,0.228167,1172.87
139,0.229833,1170.486
140,0.2315,1170.486
141,0.233167,1168.177
142,0.234833,1168.475
143,0.23655,1168.475
144,0.238167,1167.282
145,0.239817,1169.816
146,0.241483,1171.38
147,0.24315,1171.38
148,0.244817,1170.114
149,0.246483,1172.721
150,0.24815,1172.349
151,0.249817,1172.349
152,0.251483,1170.859
153,0.253267,1167.58
154,0.254817,1162.961
155,0.256483,1162.961
156,0.25815,1161.396
157,0.259817,1161.695
158,0.261483,1161.695
159,0.263167,1163.334
160,0.264817,1164.004
161,0.266517,1166.91
162,0.26815,1166.91
163,0.269917,1171.008
164,0.271483,1172.498
165,0.27315,1174.957
166,0.274817,1174.957
167,0.276483,1171.082
168,0.27815,1167.282
169,0.279817,1166.314
170,0.281483,1166.314
171,0.28315,1163.93
172,0.284817,1165.271
173,0.286483,1168.922
174,0.28815,1168.922
175,0.289817,1167.506
176,0.291483,1169.518
177,0.29315,1169.518
178,0.294817,1171.38
179,0.296483,1170.784
180,0.298133,1172.647
181,0.2998,1172.647
182,0.301467,1169.89
183,0.303133,1167.879
184,0.3048,1171.604
185,0.306467,1171.604
186,0.308133,1173.69
187,0.3098,1172.051
188,0.311467,1173.765
189,0.313117,1173.765
190,0.314783,1169.22
191,0.31645,1166.91
192,0.318117,1166.91
193,0.319783,1170.114
194,0.32145,1170.263
195,0.323117,1168.698
196,0.324783,1168.698
197,0.32645,1168.475
198,0.328133,1169.518
199,0.329817,1168.773
200,0.33145,1168.773
201,0.333117,1171.082
202,0.334817,1172.2
203,0.33645,1173.094
204,0.338117,1173.094
205,0.339783,1176.447
206,0.34145,1179.427
207,0.343117,1179.427
208,0.344783,1177.192
209,0.34645,1180.172
210,0.348117,1180.992
211,0.349783,1180.992
212,0.35145,1179.427
213,0.353117,1186.729
214,0.35485,1185.313
215,0.35645,1185.313
216,0.358117,1186.058
217,0.359767,1189.336
218,0.361433,1191.869
219,0.3631,1191.869
220,0.364767,1195.148
221,0.366433,1194.924
222,0.3681,1196.563
223,0.369767,1196.563
224,0.3715,1199.543
225,0.3731,1203.567
226,0.374767,1203.567
227,0.376433,1210.272
228,0.3781,1212.731
229,0.379767,1216.233
230,0.381433,1216.233
231,0.3831,1223.162
232,0.384767,1235.604
233,0.386433,1254.976
234,0.388217,1254.976
235,0.389767,1275.465
236,0.391433,1302.361
237,0.3931,1333.505
238,0.394767,1333.505
239,0.396433,1383.871
240,0.3981,1452.64
241,0.399767,1452.64
242,0.401433,1547.635
243,0.4031,1678.69
244,0.404767,1843.87
245,0.406433,1843.87
246,0.4081,2055.541
247,0.409767,2315.491
248,0.411433,2624.989
249,0.4131,2624.989
250,0.414767,2983.659
251,0.416433,3388.449
252,0.4181,3832.579
253,0.41975,3832.579
254,0.421417,4311.055
255,0.423083,4814.491
256,0.42475,5336.776
257,0.426417,5336.776
258,0.428083,5871.281
259,0.42975,6402.433
260,0.431417,6402.433
261,0.433083,6925.166
262,0.43475,7427.633
263,0.436417,7897.914
264,0.4381,7897.914
265,0.43975,8332.728999999999
266,0.441417,8727.013999999999
267,0.443083,9071.826999999999
268,0.44475,9071.826999999999
269,0.446417,9369.627
270,0.448083,9612.813
271,0.44975,9797.960999999999
272,0.451417,9797.960999999999
273,0.453083,9931.624
274,0.45475,10012.91
275,0.456417,10012.91
276,0.458083,10047.331
277,0.45975,10039.434
278,0.461417,9986.758
279,0.463083,9986.758
280,0.46475,9896.308999999999
281,0.466417,9774.119000000001
282,0.468083,9624.808999999999
283,0.46975,9624.808999999999
284,0.471417,9453.297
285,0.473083,9261.742
286,0.47475,9055.212
287,0.476417,9055.212
288,0.478083,8836.463
289,0.47975,8611.828
290,0.48145,8388.758
291,0.483117,8388.758
292,0.484733,8163.377
293,0.4864,7936.507
294,0.488067,7936.507
295,0.489733,7713.363
296,0.4914,7487.536
297,0.493067,7267.147
298,0.494733,7267.147
299,0.4964,7055.029
300,0.498067,6846.115
301,0.499733,6644.949
302,0.5014,6644.949
303,0.503067,6454.959
304,0.504733,6268.695
305,0.5065,6092.787
306,0.508067,6092.787
307,0.509733,5926.341
308,0.5114,5762.205
309,0.5130670000000001,5762.205
310,0.514733,5604.029
311,0.5164,5451.515
312,0.5180670000000001,5303.1
313,0.519733,5303.1
314,0.5214,5163.998
315,0.5230669999999999,5035.549
316,0.524733,4911.646
317,0.5264,4911.646
318,0.528067,4796.013
319,0.529733,4683.882
320,0.5314,4573.092
321,0.533067,4573.092
322,0.534733,4467.293
323,0.5364,4365.817
324,0.538067,4365.817
325,0.539717,4267.842
326,0.5413829999999999,4176.572
327,0.54305,4090.071
328,0.544717,4090.071
329,0.546383,4006.699
330,0.54805,3924.221
331,0.549717,3844.052
332,0.551383,3844.052
333,0.55305,3770.441
334,0.554733,3695.637
335,0.556383,3627.613
336,0.55805,3627.613
337,0.559717,3565.028
338,0.561383,3498.271
339,0.5630500000000001,3434.271
340,0.564717,3434.271
341,0.566383,3373.623
342,0.5680500000000001,3317.594
343,0.569717,3317.594
344,0.571383,3265.292
345,0.5730499999999999,3221.482
346,0.574717,3172.01
347,0.576383,3172.01
348,0.57805,3120.676
349,0.579717,3074.11
350,0.581383,3024.638
351,0.58305,3024.638
352,0.584717,2981.722
353,0.586383,2939.403
354,0.58805,2897.456
355,0.589717,2897.456
356,0.591433,2855.063
357,0.59305,2817.288
358,0.5947170000000001,2817.288
359,0.596383,2781.674
360,0.59805,2748.892
361,0.5997,2719.164
362,0.601367,2719.164
363,0.603033,2687.052
364,0.604683,2654.046
365,0.6063499999999999,2620.369
366,0.608017,2620.369
367,0.609683,2588.853
368,0.6113499999999999,2559.423
369,0.6130330000000001,2530.739
370,0.614683,2530.739
371,0.61635,2504.438
372,0.618017,2478.361
373,0.619683,2448.708
374,0.62135,2448.708
375,0.623017,2423.301
376,0.624783,2398.864
377,0.62635,2398.864
378,0.628017,2373.383
379,0.6297,2351.999
380,0.63135,2328.083
381,0.6330170000000001,2328.083
382,0.634683,2300.814
383,0.63635,2279.58
384,0.6380169999999999,2259.389
385,0.639683,2259.389
386,0.64135,2240.39
387,0.6430169999999999,2224.222
388,0.644683,2207.756
389,0.64635,2207.756
390,0.648017,2188.683
391,0.649683,2165.139
392,0.65135,2165.139
393,0.653017,2146.736
394,0.654683,2129.003
395,0.65635,2111.271
396,0.658017,2111.271
397,0.659667,2097.115
398,0.6613329999999999,2083.108
399,0.663,2062.395
400,0.664667,2062.395
401,0.666333,2048.388
402,0.668,2038.33
403,0.669667,2024.248
404,0.671333,2024.248
405,0.673,2011.359
406,0.674667,1997.128
407,0.676333,1997.128
408,0.678,1982.749
409,0.679667,1967.549
410,0.681333,1959.875
411,0.6830000000000001,1959.875
412,0.684667,1948.252
413,0.686333,1933.873
414,0.6879999999999999,1921.058
415,0.689667,1921.058
416,0.691333,1902.804
417,0.6929999999999999,1889.989
418,0.694667,1879.707
419,0.696367,1879.707
420,0.698017,1868.084
421,0.699667,1861.304
422,0.701333,1852.065
423,0.703,1852.065
424,0.704667,1844.615
425,0.706333,1833.439
426,0.708,1833.439
427,0.7097329999999999,1818.314
428,0.711333,1805.425
429,0.713,1793.653
430,0.7146670000000001,1793.653
431,0.716333,1786.351
432,0.718,1782.179
433,0.71965,1775.995
434,0.721317,1775.995
435,0.722983,1765.043
436,0.72465,1757.89
437,0.726317,1747.459
438,0.727983,1747.459
439,0.72965,1734.57
440,0.731317,1726.821
441,0.7329830000000001,1726.821
442,0.73465,1717.433
443,0.736317,1708.791
444,0.7379829999999999,1703.277
445,0.73965,1703.277
446,0.741317,1698.136
447,0.7431,1694.262
448,0.74465,1688.823
449,0.746317,1688.823
450,0.747983,1683.384
451,0.74965,1677.349
452,0.751317,1667.142
453,0.752983,1667.142
454,0.75465,1658.574
455,0.756317,1650.602
456,0.757983,1642.555
457,0.75965,1642.555
458,0.761317,1636.967
459,0.762983,1630.113
460,0.7646500000000001,1630.113
461,0.766317,1626.164
462,0.767983,1618.341
463,0.7696499999999999,1611.412
464,0.771317,1611.412
465,0.772983,1608.133
466,0.774667,1601.875
467,0.776367,1598.746
468,0.777983,1598.746
469,0.779633,1591.891
470,0.7813,1585.484
471,0.782967,1578.256
472,0.784633,1578.256
473,0.7863,1573.265
474,0.787967,1570.359
475,0.789633,1570.359
476,0.7913,1565.665
477,0.792967,1563.132
478,0.794633,1560.822
479,0.7963,1560.822
480,0.797967,1553.67
481,0.799633,1547.784
482,0.8013,1543.984
483,0.802967,1543.984
484,0.804633,1537.129
485,0.8063,1534.671
486,0.807967,1533.628
487,0.809633,1533.628
488,0.8113,1529.53
489,0.812967,1523.42
490,0.8146330000000001,1520.515
491,0.8163,1520.515
492,0.817967,1516.715
493,0.8196329999999999,1514.479
494,0.8213,1514.479
495,0.822967,1512.542
496,0.8246329999999999,1504.868
497,0.8263,1498.833
498,0.828017,1498.833
499,0.829633,1491.234
500,0.8313,1488.03
501,0.832967,1489.967
502,0.834633,1489.967
503,0.8363,1485.944
504,0.837967,1483.038
505,0.8396169999999999,1476.035
506,0.8413,1476.035
507,0.84295,1469.18
508,0.84475,1466.721
509,0.8463000000000001,1466.721
510,0.847967,1461.431
511,0.849617,1458.004
512,0.851283,1455.992
513,0.85295,1455.992
514,0.854617,1451.075
515,0.856283,1447.573
516,0.85795,1445.338
517,0.859617,1445.338
518,0.8613499999999999,1440.346
519,0.86295,1437.813
520,0.864617,1436.844
521,0.866283,1436.844
522,0.86795,1434.237
523,0.869617,1434.833
524,0.871283,1434.311
525,0.87295,1434.311
526,0.874617,1430.139
527,0.876283,1428.872
528,0.87795,1428.872
529,0.879617,1420.826
530,0.881283,1417.622
531,0.88295,1417.697
532,0.884617,1417.697
533,0.886283,1412.854
534,0.88795,1412.63
535,0.889617,1408.681
536,0.891283,1408.681
537,0.89295,1406.223
538,0.894617,1405.179
539,0.896267,1402.944
540,0.897933,1402.944
541,0.899583,1403.019
542,0.90125,1398.995
543,0.902917,1398.995
544,0.904583,1396.909
545,0.90625,1396.164
546,0.907917,1388.788
547,0.909583,1388.788
548,0.91125,1383.2
549,0.912917,1378.134
550,0.914583,1373.142
551,0.91625,1373.142
552,0.91795,1374.707
553,0.919583,1373.664
554,0.92125,1369.566
555,0.922917,1369.566
556,0.924583,1370.609
557,0.92625,1368.225
558,0.927917,1368.225
559,0.929583,1367.927
560,0.93125,1368.225
561,0.932917,1362.935
562,0.9345830000000001,1362.935
563,0.93625,1360.7
564,0.937917,1360.401
565,0.9395829999999999,1360.104
566,0.94125,1360.104
567,0.942917,1358.39
568,0.944583,1353.025
569,0.946283,1348.406
570,0.947917,1348.406
571,0.949583,1346.469
572,0.95125,1342.446
573,0.952917,1342.148
574,0.954583,1342.148
575,0.95625,1342.967
576,0.957917,1340.061
577,0.9595669999999999,1340.061
578,0.961233,1338.944
579,0.963,1337.603
580,0.964567,1335.964
581,0.966233,1335.964
582,0.9679,1333.058
583,0.969567,1335.219
584,0.971233,1336.56
585,0.9729,1336.56
586,0.974567,1334.399
587,0.976233,1336.113
588,0.9779,1332.983
589,0.979583,1332.983
590,0.981233,1331.717
591,0.9829,1325.458
592,0.984567,1325.458
593,0.986233,1322.105
594,0.9879,1320.764
595,0.989567,1316.22
596,0.991267,1316.22
597,0.9929,1321.36
598,0.9946,1322.404
599,0.996233,1323.298
600,0.9979,1323.298
601,0.999567,1322.255
602,1.001233,1314.506
603,1.0029,1308.247
604,1.004567,1308.247
605,1.006233,1307.651
606,1.0079,1306.608
607,1.009567,1311.228
608,1.011233,1311.228
609,1.0129,1313.91
610,1.014567,1308.024
611,1.016233,1308.024
612,1.0179,1306.981
613,1.01955,1305.044
614,1.021217,1303.33
615,1.022883,1303.33
616,1.02455,1304.522
617,1.026217,1303.628
618,1.027883,1302.138
619,1.02955,1302.138
620,1.031217,1302.66
621,1.032883,1300.499
622,1.03455,1297.221
623,1.036217,1297.221
624,1.037883,1296.252
625,1.03955,1294.985
626,1.041217,1294.985
627,1.042883,1295.06
628,1.04455,1297.072
629,1.046217,1297.593
630,1.047883,1297.593
631,1.04955,1294.762
632,1.051217,1293.719
633,1.052883,1291.633
634,1.05455,1291.633
635,1.056233,1288.503
636,1.057883,1286.119
637,1.05955,1284.331
638,1.061217,1284.331
639,1.062883,1281.649
640,1.064567,1280.68
641,1.066217,1282.245
642,1.067883,1282.245
643,1.069567,1284.778
644,1.071217,1287.982
645,1.072883,1287.982
646,1.07455,1287.013
647,1.076217,1283.511
648,1.077883,1279.265
649,1.079533,1279.265
650,1.081267,1275.167
651,1.082867,1274.273
652,1.084533,1271.814
653,1.0862,1271.814
654,1.087867,1271.665
655,1.089533,1273.304
656,1.0912,1270.622
657,1.092867,1270.622
658,1.094533,1275.167
659,1.0962,1275.018
660,1.09795,1273.602
661,1.099533,1273.602
662,1.1012,1272.336
663,1.102867,1266.152
664,1.104533,1266.152
665,1.1062,1263.917
666,1.107867,1262.426
667,1.109533,1263.991
668,1.1112,1263.991
669,1.112867,1266.748
670,1.11465,1266.301
671,1.1162,1265.705
672,1.117867,1265.705
673,1.119533,1263.917
674,1.1212,1260.862
675,1.122867,1260.862
676,1.124533,1258.776
677,1.1262,1256.689
678,1.127867,1253.188
679,1.129533,1253.188
680,1.1312,1252.443
681,1.132867,1254.38
682,1.134533,1252.741
683,1.1362,1252.741
684,1.1379,1254.752
685,1.139517,1256.168
686,1.141183,1255.721
687,1.14285,1255.721
688,1.144517,1255.125
689,1.146183,1255.795
690,1.14785,1256.242
691,1.149517,1256.242
692,1.151183,1250.803
693,1.15285,1248.792
694,1.154517,1248.792
695,1.156183,1245.439
696,1.15785,1243.204
697,1.15955,1245.067
698,1.161183,1245.067
699,1.16285,1245.663
700,1.164517,1244.172
701,1.166183,1249.388
702,1.16785,1249.388
703,1.169517,1249.462
704,1.171183,1250.356
705,1.17285,1250.505
706,1.174517,1250.505
707,1.176183,1243.502
708,1.17785,1241.49
709,1.179517,1241.49
710,1.181183,1239.851
711,1.18285,1240.298
712,1.184517,1239.106
713,1.186183,1239.106
714,1.187833,1237.318
715,1.1895,1237.839
716,1.191167,1238.659
717,1.192833,1238.659
718,1.1945,1240.373
719,1.196167,1243.874
720,1.197833,1243.725
721,1.199533,1243.725
722,1.20115,1241.192
723,1.202817,1238.659
724,1.204483,1232.773
725,1.206167,1232.773
726,1.207867,1231.581
727,1.209483,1229.197
728,1.21115,1229.197
729,1.212817,1226.142
730,1.214483,1224.95
731,1.2162,1228.675
732,1.217817,1228.675
733,1.219483,1232.475
734,1.22115,1233.295
735,1.222817,1235.083
736,1.224483,1235.083
737,1.22615,1228.601
738,1.227817,1228.526
739,1.229483,1233.444
740,1.23115,1233.444
741,1.232933,1237.02
742,1.234483,1238.436
743,1.23615,1238.436
744,1.237817,1236.2
745,1.239483,1230.761
746,1.24115,1226.887
747,1.242817,1226.887
748,1.2445,1225.397
749,1.246167,1225.323
750,1.247817,1224.652
751,1.249483,1224.652
752,1.25115,1226.738
753,1.252817,1228.154
754,1.254483,1230.389
755,1.25615,1230.389
756,1.257817,1231.804
757,1.259467,1230.091
758,1.261133,1230.091
759,1.2628,1226.589
760,1.264467,1221.821
761,1.266133,1220.927
762,1.2678,1220.927
763,1.269467,1216.978
764,1.271133,1217.946
765,1.2728,1220.927
766,1.274467,1220.927
767,1.276133,1223.087
768,1.277833,1226.738
769,1.279467,1227.111
770,1.281133,1227.111
771,1.2828,1224.13
772,1.284467,1222.342
773,1.286133,1220.852
774,1.2878,1220.852
775,1.289467,1221.225
776,1.291133,1220.629
777,1.2928,1220.629
778,1.294467,1218.393
779,1.296133,1214.817
780,1.2978,1214.668
781,1.299467,1214.668
782,1.301133,1216.605
783,1.3028,1216.233
784,1.304467,1219.884
785,1.306133,1219.884
786,1.3078,1218.915
787,1.309467,1217.872
788,1.311133,1218.915
789,1.3128,1218.915
790,1.314467,1217.648
791,1.316133,1218.468
792,1.317783,1218.468
793,1.31945,1218.319
794,1.321117,1218.915
795,1.322783,1219.287
796,1.32445,1219.287
797,1.326117,1216.084
798,1.327783,1212.06
799,1.32945,1207.069
800,1.331117,1207.069
801,1.332817,1207.069
802,1.334467,1208.112
803,1.336117,1209.453
804,1.337783,1209.453
805,1.33945,1210.943
806,1.341117,1212.284
807,1.342783,1214.147
808,1.34445,1214.147
809,1.346117,1213.253
810,1.347783,1214.668
811,1.34945,1214.668
812,1.351233,1211.539
813,1.352783,1211.017
814,1.35445,1211.315
815,1.356117,1211.315
816,1.3578,1208.931
817,1.35945,1207.739
818,1.361117,1205.727
819,1.362783,1205.727
820,1.36445,1203.045
821,1.366117,1207.59
822,1.367783,1209.378
823,1.36945,1209.378
824,1.371117,1207.218
825,1.372783,1207.516
826,1.37445,1207.516
827,1.376117,1201.183
828,1.377783,1200.363
829,1.379433,1200.14
830,1.3811,1200.14
831,1.382767,1201.63
832,1.384433,1202.747
833,1.3861,1200.214
834,1.387767,1200.214
835,1.389433,1202.3
836,1.3911,1204.684
837,1.392767,1206.1
838,1.394433,1206.1
839,1.3961,1209.825
840,1.397767,1209.155
841,1.399433,1211.315
842,1.4011,1211.315
843,1.402767,1214.743
844,1.404433,1212.433
845,1.4061,1212.433
846,1.407767,1209.602
847,1.409433,1206.174
848,1.4111,1197.755
849,1.412767,1197.755
850,1.414433,1194.403
851,1.416117,1194.179
852,1.417767,1191.646
853,1.419433,1191.646
854,1.4211,1193.881
855,1.4228,1196.34
856,1.424433,1199.171
857,1.4261,1199.171
858,1.427767,1200.81
859,1.429433,1200.81
860,1.4311,1200.81
861,1.432767,1203.343
862,1.434433,1200.512
863,1.436083,1202.598
864,1.437767,1202.598
865,1.439417,1207.888
866,1.441083,1206.398
867,1.44275,1206.547
868,1.444417,1206.547
869,1.446083,1203.045
870,1.44775,1197.904
871,1.449417,1194.701
872,1.451083,1194.701
873,1.45275,1194.552
874,1.454417,1193.359
875,1.456083,1191.72
876,1.45775,1191.72
877,1.459417,1194.403
878,1.461083,1194.701
879,1.46275,1194.701
880,1.464417,1195.52
881,1.466083,1198.649
882,1.46775,1195.446
883,1.469517,1195.446
884,1.471083,1199.022
885,1.472767,1199.469
886,1.474417,1194.477
887,1.476083,1194.477
888,1.477733,1193.657
889,1.4794,1191.571
890,1.481067,1190.379
891,1.482733,1190.379
892,1.4844,1192.316
893,1.486067,1191.72
894,1.487733,1191.72
895,1.4894,1189.113
896,1.491067,1188.219
897,1.492733,1191.422
898,1.4944,1191.422
899,1.496067,1195.222
900,1.49775,1197.681
901,1.499433,1199.842
902,1.5011,1199.842
903,1.502717,1196.265
904,1.504383,1194.254
905,1.50605,1191.348
906,1.507717,1191.348
907,1.509383,1185.76
908,1.51105,1187.026
909,1.512717,1187.026
910,1.514383,1184.27
911,1.51605,1186.877
912,1.517717,1190.454
