"ID","sea_time","fid_signal"
1,0,37.356
2,0.001667,37.342
3,0.003333,37.342
4,0.005,37.361
5,0.006667,37.391
6,0.008333,37.345
7,0.01,37.345
8,0.011667,37.201
9,0.0134,37.089
10,0.015,37.029
11,0.016667,37.029
12,0.018333,37.08
13,0.02,37.234
14,0.021667,37.364
15,0.023333,37.364
16,0.025,37.427
17,0.026667,37.426
18,0.028333,37.39
19,0.03,37.39
20,0.031667,37.367
21,0.033333,37.367
22,0.035,37.367
23,0.036667,37.394
24,0.038367,37.424
25,0.04,37.401
26,0.041667,37.401
27,0.043333,37.375
28,0.045,37.33
29,0.046683,37.307
30,0.048317,37.307
31,0.049983,37.315
32,0.051667,37.339
33,0.053317,37.353
34,0.054983,37.353
35,0.05665,37.351
36,0.058317,37.377
37,0.059983,37.377
38,0.06165,37.351
39,0.063433,37.331
40,0.064983,37.316
41,0.06665,37.316
42,0.068317,37.274
43,0.069983,37.28
44,0.07165000000000001,37.295
45,0.07331699999999999,37.295
46,0.07498299999999999,37.306
47,0.07665,37.333
48,0.078317,37.354
49,0.079983,37.354
50,0.08165,37.386
51,0.083317,37.406
52,0.084983,37.406
53,0.08665,37.406
54,0.08831700000000001,37.402
55,0.08998299999999999,37.393
56,0.09165,37.393
57,0.093317,37.366
58,0.094983,37.353
59,0.09665,37.339
60,0.098317,37.339
61,0.099983,37.305
62,0.10165,37.306
63,0.103317,37.289
64,0.105017,37.289
65,0.106633,37.263
66,0.1083,37.282
67,0.109967,37.292
68,0.111683,37.292
69,0.1133,37.309
70,0.114967,37.353
71,0.116633,37.353
72,0.1183,37.365
73,0.119967,37.378
74,0.121633,37.384
75,0.1233,37.384
76,0.124967,37.377
77,0.126617,37.353
78,0.128283,37.332
79,0.12995,37.332
80,0.131617,37.314
81,0.133283,37.294
82,0.13495,37.33
83,0.136617,37.33
84,0.138283,37.324
85,0.13995,37.332
86,0.141617,37.332
87,0.143283,37.333
88,0.14495,37.294
89,0.146617,37.309
90,0.148283,37.309
91,0.14995,37.317
92,0.151617,37.318
93,0.153283,37.315
94,0.15495,37.315
95,0.156617,37.311
96,0.158283,37.31
97,0.15995,37.309
98,0.161617,37.309
99,0.163283,37.341
100,0.164967,37.374
101,0.1666,37.361
102,0.168267,37.361
103,0.169933,37.383
104,0.1716,37.374
105,0.173267,37.374
106,0.174933,37.371
107,0.1766,37.364
108,0.178267,37.362
109,0.179933,37.362
110,0.181717,37.365
111,0.183267,37.354
112,0.184967,37.365
113,0.186683,37.365
114,0.188267,37.348
115,0.189933,37.318
116,0.1916,37.295
117,0.193267,37.295
118,0.194933,37.32
119,0.1966,37.335
120,0.198267,37.335
121,0.199933,37.38
122,0.2016,37.403
123,0.203267,37.397
124,0.204933,37.397
125,0.2066,37.395
126,0.208267,37.383
127,0.209933,37.362
128,0.2116,37.362
129,0.213267,37.365
130,0.214933,37.373
131,0.2166,37.358
132,0.218267,37.358
133,0.219933,37.349
134,0.2216,37.318
135,0.223267,37.307
136,0.224933,37.307
137,0.2266,37.303
138,0.22825,37.334
139,0.229917,37.334
140,0.231583,37.349
141,0.23325,37.358
142,0.234917,37.392
143,0.236583,37.392
144,0.23825,37.368
145,0.239917,37.359
146,0.241583,37.328
147,0.24325,37.328
148,0.244917,37.324
149,0.246583,37.319
150,0.24825,37.331
151,0.249917,37.331
152,0.2516,37.342
153,0.25325,37.346
154,0.254917,37.346
155,0.256583,37.356
156,0.25825,37.362
157,0.259917,37.379
158,0.261583,37.379
159,0.263267,37.382
160,0.264917,37.402
161,0.26665,37.419
162,0.26825,37.419
163,0.269917,37.43
164,0.271583,37.408
165,0.27325,37.396
166,0.274917,37.396
167,0.276583,37.395
168,0.27825,37.418
169,0.279917,37.418
170,0.281583,37.478
171,0.28325,37.541
172,0.284917,37.549
173,0.286567,37.549
174,0.288233,37.538
175,0.2899,37.538
176,0.291567,37.538
177,0.293233,37.538
178,0.2949,37.612
179,0.296567,37.685
180,0.298233,37.742
181,0.3,37.742
182,0.301567,37.795
183,0.303233,37.783
184,0.3049,37.806
185,0.306567,37.806
186,0.308233,37.853
187,0.3099,37.904
188,0.311567,37.904
189,0.313233,38.006
190,0.3149,38.119
191,0.316567,38.274
192,0.318233,38.274
193,0.3199,38.441
194,0.321567,38.639
195,0.323233,38.85
196,0.3249,38.85
197,0.326567,39.069
198,0.328233,39.355
199,0.3299,39.675
200,0.3316,39.675
201,0.333233,40.034
202,0.3349,40.351
203,0.336567,40.351
204,0.338233,40.67
205,0.3399,40.972
206,0.341567,41.212
207,0.343233,41.212
208,0.3449,41.465
209,0.34655,41.638
210,0.348217,41.752
211,0.349883,41.752
212,0.35155,41.808
213,0.353217,41.805
214,0.3549,41.74
215,0.356583,41.74
216,0.358217,41.631
217,0.359883,41.477
218,0.36155,41.253
219,0.363217,41.253
220,0.364883,41.05
221,0.36655,40.825
222,0.368217,40.825
223,0.369883,40.606
224,0.37155,40.353
225,0.373217,40.095
226,0.374883,40.095
227,0.37655,39.826
228,0.378217,39.598
229,0.379883,39.436
230,0.38155,39.436
231,0.383217,39.279
232,0.38495,39.128
233,0.38655,38.995
234,0.388217,38.995
235,0.389883,38.873
236,0.39155,38.712
237,0.393217,38.712
238,0.394883,38.598
239,0.39655,38.458
240,0.398217,38.33
241,0.399883,38.33
242,0.40155,38.246
243,0.403233,38.176
244,0.404883,38.12
245,0.406533,38.12
246,0.4082,38.077
247,0.409867,38.078
248,0.411533,38.025
249,0.4132,38.025
250,0.414867,37.991
251,0.416533,37.935
252,0.418283,37.896
253,0.41985,37.896
254,0.421517,37.865
255,0.423183,37.819
256,0.42485,37.819
257,0.426517,37.822
258,0.428183,37.78
259,0.42985,37.756
260,0.431517,37.756
261,0.433183,37.718
262,0.43485,37.662
263,0.436517,37.638
264,0.438183,37.638
265,0.43985,37.629
266,0.441517,37.643
267,0.4432,37.669
268,0.44485,37.669
269,0.446517,37.66
270,0.448183,37.67
271,0.44985,37.67
272,0.451517,37.668
273,0.453183,37.656
274,0.454867,37.634
275,0.456517,37.634
276,0.458183,37.628
277,0.45985,37.618
278,0.461517,37.586
279,0.463183,37.586
280,0.46485,37.62
281,0.466517,37.631
282,0.468167,37.636
283,0.469833,37.636
284,0.4715,37.654
285,0.473167,37.626
286,0.474833,37.626
287,0.476517,37.594
288,0.478233,37.602
289,0.479833,37.599
290,0.4815,37.599
291,0.483167,37.641
292,0.484833,37.657
293,0.4865,37.657
294,0.488167,37.657
295,0.489833,37.656
296,0.4915,37.659
297,0.493167,37.662
298,0.494833,37.662
299,0.4965,37.677
300,0.498167,37.684
301,0.499833,37.64
302,0.5014999999999999,37.64
303,0.503217,37.64
304,0.504833,37.622
305,0.5065,37.622
306,0.508167,37.645
307,0.509833,37.705
308,0.5115,37.729
309,0.513167,37.729
310,0.514833,37.754
311,0.5165,37.784
312,0.518167,37.81
313,0.519833,37.81
314,0.5215,37.844
315,0.523183,37.908
316,0.524833,37.945
317,0.526483,37.945
318,0.52815,37.944
319,0.529817,37.977
320,0.531483,37.977
321,0.53315,38.008
322,0.534817,38.074
323,0.536533,38.159
324,0.53815,38.159
325,0.539817,38.242
326,0.541483,38.331
327,0.54315,38.4
328,0.544817,38.4
329,0.5464830000000001,38.507
330,0.54815,38.639
331,0.549817,38.796
332,0.5514829999999999,38.796
333,0.553167,38.984
334,0.554817,39.179
335,0.5564829999999999,39.419
336,0.55815,39.419
337,0.559817,39.646
338,0.561483,39.931
339,0.56315,39.931
340,0.564817,40.22
341,0.566483,40.515
342,0.56815,40.883
343,0.569817,40.883
344,0.571483,41.213
345,0.57315,41.591
346,0.574817,42
347,0.576483,42
348,0.5781500000000001,42.405
349,0.579817,42.853
350,0.581483,43.312
351,0.5831499999999999,43.312
352,0.584817,43.789
353,0.586467,44.304
354,0.588133,44.304
355,0.5898,44.889
356,0.591467,45.505
357,0.593133,46.144
358,0.5948,46.144
359,0.596467,46.814
360,0.598133,47.507
361,0.5998,48.227
362,0.601467,48.227
363,0.603133,49
364,0.6048,49.769
365,0.606467,50.521
366,0.608133,50.521
367,0.6098170000000001,51.306
368,0.611467,52.127
369,0.613133,52.992
370,0.6148,52.992
371,0.616467,53.874
372,0.618133,54.774
373,0.6198,54.774
374,0.621483,55.634
375,0.623133,56.507
376,0.6248,57.428
377,0.626467,57.428
378,0.6281330000000001,58.351
379,0.6298,59.294
380,0.631467,60.245
381,0.6331329999999999,60.245
382,0.6348,61.18
383,0.636467,62.11
384,0.6382330000000001,63.048
385,0.6398,63.048
386,0.641467,63.98
387,0.643133,64.91500000000001
388,0.6448,64.91500000000001
389,0.64645,65.857
390,0.6481170000000001,66.776
391,0.649783,67.70699999999999
392,0.65145,67.70699999999999
393,0.6531169999999999,68.613
394,0.654883,69.5
395,0.65645,70.389
396,0.658117,70.389
397,0.659783,71.232
398,0.66145,72.078
399,0.663117,72.94499999999999
400,0.664783,72.94499999999999
401,0.66645,73.78700000000001
402,0.668117,74.651
403,0.669783,75.503
404,0.67155,75.503
405,0.673117,76.29900000000001
406,0.674783,77.078
407,0.67645,77.078
408,0.678117,77.819
409,0.679783,78.545
410,0.68145,79.294
411,0.683133,79.294
412,0.684783,80.03400000000001
413,0.68645,80.764
414,0.688117,81.46599999999999
415,0.689783,81.46599999999999
416,0.69145,82.14100000000001
417,0.693117,82.809
418,0.694783,83.44799999999999
419,0.69645,83.44799999999999
420,0.698133,84.09999999999999
421,0.6998,84.715
422,0.70145,84.715
423,0.703117,85.312
424,0.704783,85.916
425,0.706433,86.47499999999999
426,0.7081,86.47499999999999
427,0.70975,87.01900000000001
428,0.711417,87.578
429,0.713083,88.13
430,0.71475,88.13
431,0.716417,88.651
432,0.718083,89.157
433,0.71975,89.60299999999999
434,0.721417,89.60299999999999
435,0.723083,90.003
436,0.72475,90.44
437,0.726417,90.44
438,0.728083,90.877
439,0.72975,91.3
440,0.731417,91.705
441,0.733083,91.705
442,0.73475,92.11799999999999
443,0.736417,92.48999999999999
444,0.738083,92.871
445,0.73975,92.871
446,0.741417,93.279
447,0.743083,93.601
448,0.74475,93.926
449,0.746417,93.926
450,0.7480830000000001,94.271
451,0.74975,94.562
452,0.751417,94.86799999999999
453,0.7530829999999999,94.86799999999999
454,0.75475,95.17400000000001
455,0.756433,95.45
456,0.758083,95.45
457,0.75975,95.709
458,0.761417,95.952
459,0.763083,96.197
460,0.76475,96.197
461,0.7664,96.42400000000001
462,0.7680670000000001,96.65000000000001
463,0.7698,96.916
464,0.7714,96.916
465,0.77315,97.17100000000001
466,0.774733,97.398
467,0.7764,97.60299999999999
468,0.778067,97.60299999999999
469,0.779733,97.783
470,0.7814,97.94199999999999
471,0.783067,97.94199999999999
472,0.784733,98.125
473,0.7864,98.31
474,0.788067,98.492
475,0.789833,98.492
476,0.7914,98.65600000000001
477,0.793067,98.777
478,0.794733,98.89100000000001
479,0.7964,98.89100000000001
480,0.798067,99.012
481,0.799733,99.172
482,0.8014,99.327
483,0.803067,99.327
484,0.804733,99.485
485,0.8064,99.584
486,0.808067,99.60899999999999
487,0.809733,99.60899999999999
488,0.8114,99.642
489,0.813067,99.72199999999999
490,0.814733,99.72199999999999
491,0.8164,99.80800000000001
492,0.818067,99.946
493,0.819733,100.093
494,0.8214,100.093
495,0.823067,100.182
496,0.824717,100.227
497,0.826383,100.248
498,0.82805,100.248
499,0.829717,100.269
500,0.831383,100.332
501,0.83305,100.441
502,0.834717,100.441
503,0.836383,100.54
504,0.83805,100.584
505,0.839717,100.584
506,0.841383,100.587
507,0.84305,100.601
508,0.8447170000000001,100.612
509,0.846383,100.612
510,0.84805,100.658
511,0.8497169999999999,100.693
512,0.851383,100.704
513,0.85305,100.704
514,0.8547169999999999,100.75
515,0.856383,100.759
516,0.858067,100.803
517,0.859717,100.803
518,0.861383,100.804
519,0.86305,100.777
520,0.864717,100.77
521,0.866383,100.77
522,0.86805,100.737
523,0.869717,100.749
524,0.871383,100.749
525,0.87305,100.736
526,0.87475,100.741
527,0.876383,100.732
528,0.87805,100.732
529,0.879717,100.699
530,0.881383,100.66
531,0.88305,100.608
532,0.884717,100.608
533,0.886367,100.572
534,0.888033,100.548
535,0.8897,100.537
536,0.891417,100.537
537,0.893033,100.555
538,0.8947000000000001,100.537
539,0.896367,100.537
540,0.898033,100.511
541,0.8997000000000001,100.493
542,0.901367,100.449
543,0.903033,100.449
544,0.9046999999999999,100.4
545,0.906367,100.35
546,0.90815,100.289
547,0.9097,100.289
548,0.911367,100.224
549,0.913067,100.192
550,0.914717,100.167
551,0.916367,100.167
552,0.918033,100.136
553,0.9197,100.093
554,0.921367,100.093
555,0.923033,100.022
556,0.9247,99.974
557,0.9263670000000001,99.929
558,0.928033,99.929
559,0.9297,99.90600000000001
560,0.9313669999999999,99.887
561,0.933033,99.81100000000001
562,0.9347,99.81100000000001
563,0.9363669999999999,99.745
564,0.938033,99.657
565,0.9397,99.57299999999999
566,0.941367,99.57299999999999
567,0.943033,99.492
568,0.9447,99.434
569,0.94635,99.393
570,0.948017,99.393
571,0.9496830000000001,99.354
572,0.95135,99.346
573,0.953017,99.346
574,0.9546829999999999,99.283
575,0.95635,99.19799999999999
576,0.958017,99.119
577,0.959683,99.119
578,0.96135,99.039
579,0.963017,98.983
580,0.964683,98.91
581,0.96635,98.91
582,0.968017,98.824
583,0.969683,98.764
584,0.97135,98.678
585,0.973017,98.678
586,0.974683,98.598
587,0.9763500000000001,98.544
588,0.978067,98.462
589,0.979683,98.462
590,0.9813499999999999,98.374
591,0.983017,98.304
592,0.984683,98.304
593,0.9863499999999999,98.187
594,0.988017,98.083
595,0.989717,98.02200000000001
596,0.99135,98.02200000000001
597,0.9930330000000001,97.94
598,0.994683,97.869
599,0.99635,97.785
600,0.998017,97.785
601,0.999683,97.68600000000001
602,1.001333,97.595
603,1.003,97.518
604,1.004667,97.518
605,1.006317,97.428
606,1.007983,97.334
607,1.0097,97.334
608,1.011317,97.27200000000001
609,1.012983,97.185
610,1.01465,97.089
611,1.016317,97.089
612,1.017983,97.006
613,1.01965,96.908
614,1.021317,96.812
615,1.022983,96.812
616,1.02465,96.73099999999999
617,1.026333,96.646
618,1.027983,96.559
619,1.02965,96.559
620,1.031317,96.518
621,1.033,96.447
622,1.03465,96.447
623,1.036317,96.349
624,1.037983,96.221
625,1.03965,96.074
626,1.041317,96.074
627,1.042983,95.988
628,1.04465,95.898
629,1.046317,95.824
630,1.047983,95.824
631,1.04965,95.77200000000001
632,1.051317,95.648
633,1.053,95.54600000000001
634,1.05465,95.54600000000001
635,1.056317,95.479
636,1.057983,95.372
637,1.05965,95.372
638,1.061317,95.31
639,1.062983,95.223
640,1.06465,95.119
641,1.0663,95.119
642,1.067967,95.04600000000001
643,1.069633,94.941
644,1.0713,94.87
645,1.072967,94.87
646,1.074633,94.777
647,1.0763,94.648
648,1.078,94.55
649,1.079633,94.55
650,1.0813,94.485
651,1.082967,94.417
652,1.084633,94.35599999999999
653,1.0863,94.35599999999999
654,1.087967,94.297
655,1.089633,94.212
656,1.0913,94.212
657,1.092967,94.142
658,1.094633,94.07299999999999
659,1.0963,93.971
660,1.097967,93.971
661,1.099633,93.84999999999999
662,1.1013,93.738
663,1.102967,93.607
664,1.104633,93.607
665,1.1063,93.521
666,1.107967,93.425
667,1.109633,93.295
668,1.1113,93.295
669,1.112967,93.208
670,1.114633,93.111
671,1.1163,93.111
672,1.117967,93
673,1.119633,92.91800000000001
674,1.1213,92.819
675,1.123,92.819
676,1.124633,92.693
677,1.126283,92.61
678,1.12795,92.492
679,1.129617,92.492
680,1.131283,92.36799999999999
681,1.13295,92.27800000000001
682,1.134617,92.203
683,1.136283,92.203
684,1.13795,92.146
685,1.139617,92.08799999999999
686,1.141283,92.012
687,1.14295,92.012
688,1.144733,91.895
689,1.146283,91.773
690,1.14795,91.773
691,1.149617,91.676
692,1.151283,91.556
693,1.15295,91.45099999999999
694,1.154617,91.45099999999999
695,1.156283,91.361
696,1.15795,91.29600000000001
697,1.159617,91.22799999999999
698,1.161283,91.22799999999999
699,1.16295,91.14100000000001
700,1.164617,91.042
701,1.166283,90.92100000000001
702,1.167967,90.92100000000001
703,1.169617,90.81399999999999
704,1.171283,90.741
705,1.17295,90.741
706,1.174617,90.648
707,1.176283,90.535
708,1.17795,90.425
709,1.179617,90.425
710,1.181283,90.288
711,1.18295,90.194
712,1.184617,90.083
713,1.186267,90.083
714,1.187933,89.98699999999999
715,1.1896,89.923
716,1.191267,89.842
717,1.192933,89.842
718,1.19465,89.771
719,1.196267,89.697
720,1.197933,89.59699999999999
721,1.1996,89.59699999999999
722,1.201267,89.494
723,1.202933,89.429
724,1.2046,89.429
725,1.206267,89.35599999999999
726,1.207933,89.28100000000001
727,1.2096,89.211
728,1.211267,89.211
729,1.212933,89.086
730,1.2146,88.95
731,1.216267,88.864
732,1.217933,88.864
733,1.2196,88.76300000000001
734,1.221267,88.669
735,1.222933,88.613
736,1.2246,88.613
737,1.226267,88.495
738,1.227933,88.407
739,1.22965,88.313
740,1.231267,88.313
741,1.232933,88.218
742,1.2346,88.134
743,1.236267,88.134
744,1.237933,88.05200000000001
745,1.2396,88.001
746,1.241267,87.91200000000001
747,1.242933,87.91200000000001
748,1.2446,87.818
749,1.246267,87.736
750,1.247917,87.634
751,1.2496,87.634
752,1.2513,87.539
753,1.252917,87.42400000000001
754,1.254583,87.303
755,1.25625,87.303
756,1.257917,87.179
757,1.259583,87.114
758,1.261267,87.114
759,1.263017,87.06399999999999
760,1.264583,87.003
761,1.26625,86.93600000000001
762,1.267917,86.93600000000001
763,1.2696,86.831
764,1.271283,86.726
765,1.272917,86.62
766,1.274583,86.62
767,1.27625,86.529
768,1.277917,86.43000000000001
769,1.279583,86.349
770,1.28125,86.349
771,1.282917,86.271
772,1.284583,86.206
773,1.28625,86.206
774,1.287917,86.11499999999999
775,1.289583,86.038
776,1.29125,85.953
777,1.2929,85.953
778,1.294567,85.84099999999999
779,1.296233,85.751
780,1.2979,85.628
781,1.299567,85.628
782,1.301233,85.53400000000001
783,1.3029,85.47199999999999
784,1.304567,85.395
785,1.306217,85.395
786,1.307883,85.346
787,1.30955,85.268
788,1.311217,85.268
789,1.312883,85.194
790,1.31455,85.137
791,1.316217,85.04300000000001
792,1.317883,85.04300000000001
793,1.31955,84.932
794,1.321217,84.80500000000001
795,1.322883,84.66200000000001
796,1.32455,84.66200000000001
797,1.326217,84.566
798,1.327883,84.499
799,1.32955,84.419
800,1.331217,84.419
801,1.3329,84.373
802,1.33455,84.295
803,1.33625,84.2
804,1.337883,84.2
805,1.33955,84.11199999999999
806,1.341217,84.011
807,1.342883,84.011
808,1.34455,83.922
809,1.346217,83.848
810,1.34795,83.76600000000001
811,1.34955,83.76600000000001
812,1.351217,83.68600000000001
813,1.352883,83.616
814,1.35455,83.542
815,1.356217,83.542
816,1.357883,83.47499999999999
817,1.35955,83.39400000000001
818,1.361217,83.31100000000001
819,1.362883,83.31100000000001
820,1.364533,83.22499999999999
821,1.3662,83.13800000000001
822,1.367867,83.13800000000001
823,1.369533,83.06399999999999
824,1.3712,82.994
825,1.372867,82.91200000000001
826,1.374533,82.91200000000001
827,1.3762,82.83
828,1.377867,82.736
829,1.379533,82.61499999999999
830,1.381317,82.61499999999999
831,1.382867,82.52500000000001
832,1.384533,82.459
833,1.3862,82.401
834,1.387867,82.401
835,1.389533,82.35299999999999
836,1.3912,82.29000000000001
837,1.392867,82.19
838,1.394533,82.19
839,1.3962,82.092
840,1.397867,82.001
841,1.399533,82.001
842,1.4012,81.941
843,1.402867,81.908
844,1.404533,81.857
845,1.4062,81.857
846,1.407867,81.776
847,1.40955,81.65300000000001
848,1.4112,81.533
849,1.4129,81.533
850,1.414533,81.434
851,1.4162,81.366
852,1.417867,81.348
853,1.419533,81.348
854,1.4212,81.31
855,1.422867,81.236
856,1.424533,81.236
857,1.426183,81.155
858,1.42785,81.015
859,1.429517,80.919
860,1.431183,80.919
861,1.43285,80.872
862,1.434517,80.77500000000001
863,1.4362,80.70099999999999
864,1.43785,80.70099999999999
865,1.439517,80.608
866,1.441183,80.48
867,1.44285,80.45
868,1.444517,80.45
869,1.446183,80.41500000000001
870,1.44785,80.331
871,1.449517,80.283
872,1.451183,80.283
873,1.45285,80.175
874,1.454517,80.068
875,1.456183,80.068
876,1.45785,80.001
877,1.459517,79.937
878,1.461183,79.873
879,1.46285,79.873
880,1.464517,79.806
881,1.4662,79.723
882,1.46785,79.66800000000001
883,1.469517,79.66800000000001
884,1.471183,79.601
885,1.47285,79.551
886,1.474517,79.486
887,1.476183,79.486
888,1.47785,79.405
889,1.479533,79.361
890,1.4812,79.361
891,1.482933,79.268
892,1.484517,79.22
893,1.486167,79.146
894,1.487833,79.146
895,1.4895,79.02800000000001
896,1.491167,78.943
897,1.492833,78.831
898,1.4945,78.831
899,1.496167,78.721
900,1.497833,78.649
901,1.499617,78.566
902,1.501167,78.566
903,1.502833,78.48099999999999
904,1.5045,78.434
905,1.506167,78.434
906,1.507833,78.35899999999999
907,1.5095,78.33499999999999
908,1.511167,78.343
909,1.512833,78.343
910,1.5145,78.306
911,1.516167,78.29900000000001
912,1.517833,78.20699999999999
913,1.5195,78.20699999999999
914,1.521167,78.087
915,1.522833,77.976
916,1.5245,77.84999999999999
917,1.526167,77.84999999999999
918,1.527833,77.79000000000001
919,1.5295,77.703
920,1.531167,77.616
921,1.532833,77.616
922,1.5345,77.55200000000001
923,1.536167,77.458
924,1.537833,77.458
925,1.5395,77.38500000000001
926,1.541167,77.324
927,1.542833,77.224
928,1.5445,77.224
929,1.54615,77.184
930,1.547817,77.13
931,1.549483,77.05500000000001
932,1.55115,77.05500000000001
933,1.552817,76.98999999999999
934,1.5545,76.90000000000001
935,1.556183,76.821
936,1.557817,76.821
