"ID","sea_time","fid_signal"
1,0,1166.537
2,0.001733,1168.698
3,0.003283,1168.698
4,0.00495,1170.71
5,0.006617,1174.063
6,0.008283,1172.87
7,0.009950000000000001,1172.87
8,0.011617,1172.647
9,0.013283,1173.168
10,0.01495,1173.168
11,0.016617,1170.933
12,0.018383,1171.157
13,0.01995,1170.486
14,0.021617,1170.486
15,0.023283,1169.667
16,0.02495,1171.678
17,0.026617,1172.498
18,0.028283,1172.498
19,0.02995,1171.455
20,0.031617,1172.721
21,0.033283,1171.157
22,0.035067,1171.157
23,0.036617,1168.996
24,0.038283,1170.188
25,0.03995,1170.561
26,0.041617,1170.561
27,0.0433,1171.231
28,0.04495,1174.733
29,0.046617,1174.733
30,0.048283,1177.043
31,0.04995,1176.745
32,0.051617,1174.212
33,0.053283,1174.212
34,0.05495,1171.976
35,0.0566,1168.698
36,0.058267,1165.122
37,0.059933,1165.122
38,0.0616,1164.898
39,0.063267,1164.377
40,0.064933,1163.483
41,0.06660000000000001,1163.483
42,0.06826699999999999,1164.377
43,0.06995,1166.537
44,0.071633,1166.537
45,0.073267,1169.518
46,0.074933,1171.678
47,0.0766,1172.274
48,0.078267,1172.274
49,0.079933,1170.263
50,0.08160000000000001,1168.773
51,0.08326699999999999,1166.91
52,0.08493299999999999,1166.91
53,0.0866,1165.718
54,0.088267,1165.42
55,0.089933,1167.059
56,0.0916,1167.059
57,0.093267,1166.239
58,0.094933,1166.686
59,0.09660000000000001,1166.686
60,0.09826699999999999,1168.4
61,0.09993299999999999,1165.941
62,0.1016,1167.729
63,0.103267,1167.729
64,0.104933,1169.294
65,0.1066,1171.082
66,0.108267,1171.157
67,0.109933,1171.157
68,0.1116,1171.157
69,0.113267,1171.38
70,0.114933,1168.027
71,0.116583,1168.027
72,0.11825,1170.635
73,0.119967,1169.741
74,0.121583,1169.145
75,0.12325,1169.145
76,0.124917,1171.38
77,0.126583,1169.443
78,0.12825,1169.443
79,0.129917,1171.604
80,0.131583,1171.38
81,0.13325,1172.274
82,0.134917,1172.274
83,0.136633,1173.392
84,0.138283,1174.212
85,0.139917,1177.415
86,0.1416,1177.415
87,0.14325,1177.564
88,0.144917,1177.862
89,0.146583,1177.937
90,0.14825,1177.937
91,0.149917,1175.329
92,0.151583,1174.51
93,0.15335,1174.807
94,0.154917,1174.807
95,0.156583,1172.349
96,0.158233,1174.36
97,0.1599,1174.36
98,0.161567,1174.659
99,0.163233,1171.678
100,0.1649,1171.827
101,0.166567,1171.827
102,0.168233,1169.592
103,0.1699,1167.282
104,0.171567,1166.761
105,0.173233,1166.761
106,0.1749,1165.196
107,0.17655,1163.483
108,0.178217,1166.612
109,0.179883,1166.612
110,0.18155,1169.443
111,0.183217,1171.827
112,0.184883,1171.827
113,0.18655,1173.168
114,0.188217,1169.965
115,0.189883,1169.294
116,0.19155,1169.294
117,0.193217,1168.251
118,0.194883,1168.996
119,0.19655,1168.027
120,0.198217,1168.027
121,0.199883,1166.835
122,0.20155,1169.145
123,0.203217,1170.114
124,0.204883,1170.114
125,0.20655,1173.615
126,0.208233,1176.894
127,0.209883,1176.894
128,0.21155,1175.925
129,0.213217,1176.819
130,0.214883,1174.733
131,0.21655,1174.733
132,0.218233,1170.71
133,0.219883,1171.753
134,0.22155,1169.22
135,0.22325,1169.22
136,0.224883,1170.561
137,0.22655,1174.957
138,0.228217,1173.988
139,0.229883,1173.988
140,0.23155,1175.031
141,0.233217,1176.521
142,0.234883,1176.521
143,0.236533,1175.031
144,0.238217,1174.435
145,0.239867,1173.839
146,0.241533,1173.839
147,0.2432,1171.753
148,0.244867,1169.816
149,0.246533,1171.157
150,0.2482,1171.157
151,0.249867,1172.572
152,0.251533,1174.36
153,0.2532,1175.478
154,0.254883,1175.478
155,0.256533,1174.659
156,0.2582,1174.733
157,0.259867,1172.051
158,0.261533,1172.051
159,0.2632,1171.38
160,0.264867,1168.624
161,0.266533,1168.624
162,0.2682,1165.345
163,0.269867,1166.463
164,0.271633,1165.941
165,0.2732,1165.941
166,0.274867,1167.282
167,0.276533,1170.039
168,0.2782,1171.157
169,0.279867,1171.157
170,0.281533,1173.392
171,0.2832,1175.106
172,0.284867,1176.074
173,0.286567,1176.074
174,0.2882,1176.596
175,0.289867,1175.776
176,0.291533,1175.776
177,0.2932,1175.851
178,0.294867,1174.36
179,0.296517,1173.094
180,0.298183,1173.094
181,0.29985,1171.455
182,0.301517,1169.965
183,0.303183,1172.349
184,0.30485,1172.349
185,0.306517,1172.125
186,0.308183,1172.572
187,0.30985,1173.615
188,0.311517,1173.615
189,0.313183,1170.486
190,0.314867,1172.945
191,0.316517,1177.192
192,0.318183,1177.192
193,0.31985,1179.278
194,0.321517,1182.035
195,0.323183,1182.035
196,0.32485,1185.313
197,0.326517,1187.25
198,0.328183,1189.783
199,0.32985,1189.783
200,0.331517,1192.54
201,0.333183,1193.657
202,0.33485,1195.818
203,0.336517,1195.818
204,0.338183,1200.661
205,0.33985,1207.963
206,0.341517,1211.986
207,0.343183,1211.986
208,0.34485,1216.084
209,0.346517,1219.586
210,0.348183,1219.586
211,0.34985,1221.225
212,0.351517,1224.503
213,0.353183,1226.887
214,0.35485,1226.887
215,0.356583,1228.154
216,0.358167,1225.323
217,0.359833,1223.609
218,0.3615,1223.609
219,0.363167,1223.311
220,0.364833,1222.268
221,0.3665,1223.907
222,0.368167,1223.907
223,0.369833,1220.629
224,0.3715,1215.339
225,0.373167,1209.527
226,0.374833,1209.527
227,0.3765,1205.504
228,0.378167,1204.386
229,0.379833,1204.386
230,0.3815,1202.524
231,0.383167,1201.406
232,0.384833,1197.904
233,0.3865,1197.904
234,0.388167,1196.712
235,0.389933,1196.34
236,0.3915,1196.489
237,0.393167,1196.489
238,0.394833,1197.681
239,0.3965,1197.308
240,0.398167,1197.457
241,0.399833,1197.457
242,0.4015,1192.465
243,0.403167,1186.729
244,0.404833,1186.729
245,0.406533,1181.96
246,0.408167,1178.756
247,0.409833,1179.427
248,0.4115,1179.427
249,0.413167,1181.141
250,0.414817,1180.917
251,0.416483,1180.396
252,0.41815,1180.396
253,0.419817,1180.023
254,0.421483,1181.513
255,0.42315,1181.29
256,0.424817,1181.29
257,0.426483,1181.662
258,0.42815,1182.258
259,0.429817,1181.737
260,0.431483,1181.737
261,0.433183,1184.121
262,0.434817,1185.76
263,0.436483,1185.76
264,0.43815,1185.164
265,0.439817,1181.29
266,0.441483,1179.129
267,0.44315,1179.129
268,0.444817,1176.298
269,0.4465,1178.16
270,0.44815,1180.545
271,0.4498,1180.545
272,0.451467,1179.65
273,0.453133,1180.246
274,0.4548,1178.16
275,0.456467,1178.16
276,0.458133,1179.65
277,0.4598,1180.097
278,0.461467,1180.097
279,0.463133,1181.141
280,0.4648,1182.78
281,0.466467,1181.513
282,0.468133,1181.513
283,0.4698,1178.607
284,0.471467,1176.521
285,0.473133,1172.125
286,0.474783,1172.125
287,0.476467,1169.741
288,0.478117,1172.796
289,0.479783,1175.925
290,0.48145,1175.925
291,0.483117,1179.576
292,0.484783,1183.599
293,0.486467,1183.599
294,0.488117,1187.548
295,0.489783,1187.697
296,0.491483,1193.807
297,0.493117,1193.807
298,0.494783,1199.543
299,0.49645,1205.578
300,0.498117,1213.7
301,0.499783,1213.7
302,0.50145,1221.299
303,0.503117,1230.91
304,0.504783,1245.29
305,0.50645,1245.29
306,0.50815,1262.203
307,0.509783,1280.606
308,0.51145,1303.852
309,0.513117,1303.852
310,0.514783,1333.356
311,0.51645,1367.48
312,0.518117,1367.48
313,0.519783,1407.564
314,0.52145,1454.502
315,0.5231170000000001,1504.272
316,0.524783,1504.272
317,0.52645,1560.599
318,0.5281169999999999,1625.866
319,0.529783,1694.411
320,0.53145,1694.411
321,0.533117,1771.599
322,0.534783,1857.355
323,0.536433,1947.805
324,0.5381,1947.805
325,0.539767,2047.122
326,0.5414330000000001,2153.963
327,0.5431,2153.963
328,0.544767,2267.137
329,0.5464329999999999,2389.327
330,0.5481,2518.445
331,0.549767,2518.445
332,0.551433,2653.897
333,0.5531,2797.321
334,0.554767,2945.811
335,0.556433,2945.811
336,0.5581,3098.026
337,0.559767,3254.339
338,0.561433,3412.142
339,0.5631,3412.142
340,0.564767,3575.534
341,0.566433,3742.278
342,0.5681,3910.81
343,0.569767,3910.81
344,0.571433,4082.844
345,0.57315,4253.089
346,0.574767,4253.089
347,0.57645,4427.284
348,0.5780999999999999,4602.82
349,0.579767,4778.281
350,0.581433,4778.281
351,0.5831,4954.562
352,0.584767,5132.333
353,0.586433,5309.358
354,0.5881,5309.358
355,0.589767,5483.627
356,0.591433,5660.206
357,0.593167,5832.463
358,0.594767,5832.463
359,0.596417,5999.282
360,0.598083,6166.846
361,0.59975,6166.846
362,0.601417,6327.107
363,0.603083,6480.589
364,0.60475,6633.773
365,0.606417,6633.773
366,0.608083,6783.232
367,0.60975,6930.008
368,0.611417,7072.613
369,0.613083,7072.613
370,0.61475,7211.715
371,0.616417,7344.037
372,0.618083,7468.537
373,0.61975,7468.537
374,0.621433,7589.757
375,0.6230830000000001,7703.081
376,0.62475,7808.879
377,0.626467,7808.879
378,0.6280829999999999,7906.258
379,0.62975,7996.634
380,0.631417,7996.634
381,0.633083,8075.908
382,0.63475,8149.222
383,0.636417,8215.084999999999
384,0.638083,8215.084999999999
385,0.63975,8271.337
386,0.641417,8319.021000000001
387,0.643083,8357.166999999999
388,0.64475,8357.166999999999
389,0.646417,8386.672
390,0.648083,8408.055
391,0.64975,8417.218999999999
392,0.651417,8417.218999999999
393,0.6531,8414.76
394,0.6548,8401.647000000001
395,0.6564,8401.647000000001
396,0.658067,8376.763000000001
397,0.659733,8344.874
398,0.6614,8303.522999999999
399,0.663067,8303.522999999999
400,0.664733,8255.169
401,0.6664,8194
402,0.668067,8121.505
403,0.669733,8121.505
404,0.6714,8039.772
405,0.673067,7945.97
406,0.674733,7847.995
407,0.6764,7847.995
408,0.678067,7744.804
409,0.679733,7631.63
410,0.6814,7631.63
411,0.683067,7514.581
412,0.684733,7390.678
413,0.6864,7260.74
414,0.688067,7260.74
415,0.689733,7130.131
416,0.6914,6998.703
417,0.693067,6866.008
418,0.694733,6866.008
419,0.6964,6732.419
420,0.698067,6598.681
421,0.699733,6465.092
422,0.7014,6465.092
423,0.703067,6332.174
424,0.7047330000000001,6201.118
425,0.7064,6070.808
426,0.708067,6070.808
427,0.7097329999999999,5938.485
428,0.71145,5811.602
429,0.713067,5811.602
430,0.714733,5687.475
431,0.716417,5568.639
432,0.71805,5456.433
433,0.7197170000000001,5456.433
434,0.721383,5343.035
435,0.72305,5233.958
436,0.7247169999999999,5128.384
437,0.726383,5128.384
438,0.728133,5023.852
439,0.7297169999999999,4927.292
440,0.7314000000000001,4835.65
441,0.73305,4835.65
442,0.734717,4748.553
443,0.736383,4662.275
444,0.73805,4662.275
445,0.739717,4576.966
446,0.741367,4492.998
447,0.74305,4414.022
448,0.744817,4414.022
449,0.746367,4338.473
450,0.7480329999999999,4270.226
451,0.7497,4206.3
452,0.751367,4206.3
453,0.753033,4140.437
454,0.7547,4077.107
455,0.756367,4012.063
456,0.758033,4012.063
457,0.7597,3949.553
458,0.761367,3892.258
459,0.763033,3839.731
460,0.7647,3839.731
461,0.766367,3787.875
462,0.768033,3736.988
463,0.7697000000000001,3736.988
464,0.771367,3685.504
465,0.773033,3635.511
466,0.7747000000000001,3589.019
467,0.77635,3589.019
468,0.778017,3541.782
469,0.779683,3496.855
470,0.78135,3452.525
471,0.783017,3452.525
472,0.784683,3411.397
473,0.78635,3372.282
474,0.788017,3334.582
475,0.789683,3334.582
476,0.791417,3301.352
477,0.793017,3268.421
478,0.794683,3268.421
479,0.796367,3238.246
480,0.798017,3207.847
481,0.799683,3172.308
482,0.80135,3172.308
483,0.803017,3137.141
484,0.804683,3102.645
485,0.80635,3070.682
486,0.808017,3070.682
487,0.809683,3042.146
488,0.81135,3012.344
489,0.813033,2983.958
490,0.814683,2983.958
491,0.81635,2956.092
492,0.818017,2929.121
493,0.8196830000000001,2904.162
494,0.82135,2904.162
495,0.823017,2879.798
496,0.8246830000000001,2855.435
497,0.82635,2855.435
498,0.828017,2830.997
499,0.8296829999999999,2808.72
500,0.83135,2785.25
501,0.833017,2785.25
502,0.834667,2760.44
503,0.836333,2737.343
504,0.838,2713.203
505,0.8396670000000001,2713.203
506,0.841333,2692.491
507,0.843,2673.939
508,0.8446669999999999,2658.516
509,0.846333,2658.516
510,0.848,2640.411
511,0.849667,2622.157
512,0.851333,2622.157
513,0.853,2602.339
514,0.854667,2579.987
515,0.856333,2560.988
516,0.858,2560.988
517,0.859667,2540.722
518,0.861333,2524.108
519,0.863067,2506.301
520,0.864667,2506.301
521,0.866333,2489.612
522,0.868,2474.189
523,0.869667,2457.947
524,0.871333,2457.947
525,0.873,2445.132
526,0.874667,2429.336
527,0.876333,2429.336
528,0.878,2414.882
529,0.87975,2400.577
530,0.881333,2387.092
531,0.883,2387.092
532,0.884667,2375.618
533,0.886333,2361.089
534,0.888,2347.678
535,0.889667,2347.678
536,0.891333,2332.851
537,0.893,2318.323
538,0.894667,2305.433
539,0.896317,2305.433
540,0.897983,2294.779
541,0.8996499999999999,2281.591
542,0.901317,2271.458
543,0.902983,2271.458
544,0.90465,2262.518
545,0.906317,2248.883
546,0.908017,2248.883
547,0.90965,2237.782
548,0.911317,2224.892
549,0.912983,2209.693
550,0.91465,2209.693
551,0.916317,2196.878
552,0.917983,2186.224
553,0.91965,2174.973
554,0.9213170000000001,2174.973
555,0.922983,2168.193
556,0.92465,2162.531
557,0.9263169999999999,2155.304
558,0.927983,2155.304
559,0.92965,2146.81
560,0.931317,2135.783
561,0.932983,2135.783
562,0.934667,2125.055
563,0.936317,2112.687
564,0.937983,2102.405
565,0.93965,2102.405
566,0.941317,2092.794
567,0.942983,2084.598
568,0.94465,2076.551
569,0.946317,2076.551
570,0.947983,2068.281
571,0.94965,2059.862
572,0.951317,2048.165
573,0.952983,2048.165
574,0.95465,2041.608
575,0.9563,2033.934
576,0.957967,2026.856
577,0.959633,2026.856
578,0.9613,2018.809
579,0.962967,2008.975
580,0.9647,2008.975
581,0.9663,2003.983
582,0.967967,1994.818
583,0.969633,1990.125
584,0.9713000000000001,1990.125
585,0.972967,1985.058
586,0.974633,1977.161
587,0.9762999999999999,1971.126
588,0.977967,1971.126
589,0.979633,1963.452
590,0.981333,1957.342
591,0.982967,1948.252
592,0.984633,1948.252
593,0.9863,1940.429
594,0.987967,1933.128
595,0.989633,1933.128
596,0.9913,1923.963
597,0.992967,1916.513
598,0.994633,1908.615
599,0.996317,1908.615
600,0.9980830000000001,1902.059
601,0.999633,1894.832
602,1.0013,1887.53
603,1.002967,1887.53
604,1.004633,1883.954
605,1.0063,1878.738
606,1.007967,1873.151
607,1.009633,1873.151
608,1.0113,1867.712
609,1.012967,1861.677
610,1.014633,1854.077
611,1.0163,1854.077
612,1.018,1849.458
613,1.019617,1848.191
614,1.021283,1848.191
615,1.02295,1842.156
616,1.024633,1834.929
617,1.026283,1825.169
618,1.02795,1825.169
619,1.029617,1818.687
620,1.031283,1813.099
621,1.032933,1811.087
622,1.0346,1811.087
623,1.036267,1809.299
624,1.037933,1803.264
625,1.0396,1799.762
626,1.041267,1799.762
627,1.042933,1797.9
628,1.0446,1793.876
629,1.046267,1793.876
630,1.047933,1788.512
631,1.0496,1784.787
632,1.051267,1779.646
633,1.052933,1779.646
634,1.0546,1774.579
635,1.056267,1771.003
636,1.057933,1766.309
637,1.0596,1766.309
638,1.061267,1759.157
639,1.062933,1756.4
640,1.0646,1752.675
641,1.066267,1752.675
642,1.067933,1747.683
643,1.069633,1741.871
644,1.071267,1741.871
645,1.072933,1734.644
646,1.0746,1727.715
647,1.07625,1722.127
648,1.077917,1722.127
649,1.079583,1720.861
650,1.08125,1718.923
651,1.082933,1714.975
652,1.084617,1714.975
653,1.08625,1711.175
654,1.087917,1706.928
655,1.089583,1702.532
656,1.09125,1702.532
657,1.092917,1700.223
658,1.094583,1699.626
659,1.09625,1696.199
660,1.097917,1696.199
661,1.099633,1693.89
662,1.10125,1689.27
663,1.102917,1689.27
664,1.104583,1681.671
665,1.10625,1678.616
666,1.107917,1675.71
667,1.109583,1675.71
668,1.11125,1672.283
669,1.112917,1670.569
670,1.114583,1667.44
671,1.116367,1667.44
672,1.117917,1665.95
673,1.119583,1661.554
674,1.12125,1657.084
675,1.122917,1657.084
676,1.124583,1655.072
677,1.12625,1650.9
678,1.127917,1650.9
679,1.129583,1651.421
680,1.13125,1646.28
681,1.132917,1641.735
682,1.134583,1641.735
683,1.136233,1634.21
684,1.1379,1627.654
685,1.139567,1628.101
686,1.141233,1628.101
687,1.1429,1625.27
688,1.144567,1623.183
689,1.146233,1621.693
690,1.1479,1621.693
691,1.149567,1619.458
692,1.151233,1612.753
693,1.1529,1611.933
694,1.154567,1611.933
695,1.156267,1609.549
696,1.157933,1604.93
697,1.159567,1604.93
698,1.161233,1604.706
699,1.1629,1603.589
700,1.164567,1601.8
701,1.166233,1601.8
702,1.1679,1601.13
703,1.169567,1599.416
704,1.171233,1594.201
705,1.1729,1594.201
706,1.174567,1590.475
707,1.176233,1588.017
708,1.1779,1583.993
709,1.179567,1583.993
710,1.181233,1580.045
711,1.1829,1576.17
712,1.184567,1576.17
713,1.186233,1570.433
714,1.1879,1565.442
715,1.189567,1564.249
716,1.191233,1564.249
717,1.1929,1563.281
718,1.194567,1565.814
719,1.196217,1568.347
720,1.197883,1568.347
721,1.199567,1566.857
722,1.201267,1566.783
723,1.202883,1563.877
724,1.20455,1563.877
725,1.206217,1561.493
726,1.207883,1559.63
727,1.20955,1555.905
728,1.211217,1555.905
729,1.212883,1553.595
730,1.21455,1548.827
731,1.216217,1548.827
732,1.217917,1546.293
733,1.21955,1544.803
734,1.221217,1542.419
735,1.222883,1542.419
736,1.22455,1541.525
737,1.226217,1541.302
738,1.227883,1539.737
739,1.229583,1539.737
740,1.231217,1536.086
741,1.232883,1532.063
742,1.234667,1526.848
743,1.236217,1526.848
744,1.237883,1522.75
745,1.23955,1523.271
746,1.241217,1523.271
747,1.242883,1522.526
748,1.24455,1522.601
749,1.246217,1522.452
750,1.247883,1522.452
751,1.24955,1517.385
752,1.251217,1514.479
753,1.252883,1508.743
754,1.254533,1508.743
755,1.2562,1503.751
756,1.257867,1504.57
757,1.259533,1503.825
758,1.2612,1503.825
759,1.262867,1504.198
760,1.264533,1503.304
761,1.2662,1503.304
762,1.267867,1499.876
763,1.269533,1499.504
764,1.2712,1499.951
765,1.272867,1499.951
766,1.274533,1500.323
767,1.2762,1496.747
768,1.277867,1491.904
769,1.279533,1491.904
770,1.2812,1489.148
771,1.282867,1488.104
772,1.284533,1490.712
773,1.2862,1490.712
774,1.287867,1490.712
775,1.289533,1488.402
776,1.2912,1482.516
777,1.292867,1482.516
778,1.294533,1477.301
779,1.2962,1472.98
780,1.297867,1472.98
781,1.299533,1469.702
782,1.301233,1468.584
783,1.302867,1467.243
784,1.304533,1467.243
785,1.3062,1466.274
786,1.307867,1465.455
787,1.309533,1465.827
788,1.3112,1465.827
789,1.312867,1465.902
790,1.314533,1465.38
791,1.316217,1464.486
792,1.3179,1464.486
793,1.319617,1462.624
794,1.321183,1460.761
795,1.32285,1460.761
796,1.3245,1463.965
797,1.326167,1464.263
798,1.327833,1463.369
799,1.3295,1463.369
800,1.331167,1460.686
801,1.332833,1454.055
802,1.3345,1449.958
803,1.336167,1449.958
804,1.337833,1449.585
805,1.3395,1448.244
806,1.341167,1448.02
807,1.342833,1448.02
808,1.3445,1445.487
809,1.346167,1442.358
810,1.347833,1443.326
811,1.3495,1443.326
812,1.351167,1442.507
813,1.352917,1443.774
814,1.3545,1443.774
815,1.356167,1441.836
816,1.357833,1437.142
817,1.3595,1437.366
818,1.361167,1437.366
819,1.362833,1435.354
820,1.3645,1435.131
821,1.366167,1437.589
822,1.367833,1437.589
823,1.3695,1435.95
824,1.371167,1433.715
825,1.372833,1431.033
826,1.3745,1431.033
827,1.376183,1427.531
828,1.377867,1426.041
829,1.379483,1426.041
830,1.38115,1425.818
831,1.382817,1426.935
832,1.384483,1424.178
833,1.38615,1424.178
834,1.387817,1420.304
835,1.389483,1416.802
836,1.39115,1413.822
837,1.392817,1413.822
838,1.394483,1412.779
839,1.39615,1415.983
840,1.397817,1415.461
841,1.399483,1415.461
842,1.40115,1416.206
843,1.402817,1416.057
844,1.404483,1413.226
845,1.406183,1413.226
846,1.407817,1413.301
847,1.409483,1409.948
848,1.41115,1409.948
849,1.412817,1408.979
850,1.414483,1408.383
851,1.41615,1408.532
852,1.417817,1408.532
853,1.419483,1408.756
854,1.42115,1407.489
855,1.422817,1403.54
856,1.424483,1403.54
857,1.42615,1399.666
858,1.427817,1399.443
859,1.429483,1398.325
860,1.43115,1398.325
861,1.432817,1397.952
862,1.434483,1398.101
863,1.436133,1398.101
864,1.437883,1395.196
865,1.439483,1395.643
866,1.441183,1397.803
867,1.4428,1397.803
868,1.444467,1397.952
869,1.446133,1398.698
870,1.4478,1395.419
871,1.449467,1395.419
872,1.451133,1392.365
873,1.4528,1391.172
874,1.454467,1387.373
875,1.456133,1387.373
876,1.4578,1385.137
877,1.459467,1382.679
878,1.461133,1382.679
879,1.4628,1381.338
880,1.464467,1383.349
881,1.466133,1382.232
882,1.4678,1382.232
883,1.469467,1380.071
884,1.47125,1378.655
885,1.4728,1376.867
886,1.474467,1376.867
887,1.476133,1379.177
888,1.4778,1379.028
889,1.479467,1377.91
890,1.481133,1377.91
891,1.4828,1379.102
892,1.484467,1377.538
893,1.486133,1377.985
894,1.4878,1377.985
895,1.489467,1378.283
896,1.491133,1377.165
897,1.4928,1377.165
898,1.49445,1375.899
899,1.49615,1374.632
900,1.497817,1376.346
901,1.49945,1376.346
902,1.501117,1376.495
903,1.502783,1375.452
904,1.50445,1374.856
905,1.506117,1374.856
906,1.507783,1369.938
907,1.50945,1363.903
908,1.511117,1361.892
909,1.512783,1361.892
910,1.51445,1359.135
911,1.516133,1359.805
912,1.517783,1359.805
913,1.51945,1359.284
914,1.521117,1359.209
915,1.522783,1359.656
916,1.52445,1359.656
