"ID","sea_time","fid_signal"
1,0,37.935
2,0.001667,37.935
3,0.003333,37.929
4,0.005,37.889
5,0.006667,37.889
6,0.008317,37.799
7,0.009983000000000001,37.634
8,0.01165,37.494
9,0.013317,37.494
10,0.014983,37.442
11,0.01665,37.502
12,0.018317,37.663
13,0.019983,37.663
14,0.02165,37.789
15,0.023317,37.835
16,0.024983,37.856
17,0.0267,37.856
18,0.028317,37.837
19,0.029983,37.821
20,0.03165,37.821
21,0.033317,37.819
22,0.034983,37.787
23,0.03665,37.78
24,0.038317,37.78
25,0.039983,37.787
26,0.04165,37.77
27,0.043317,37.795
28,0.044983,37.795
29,0.04665,37.804
30,0.048317,37.806
31,0.049983,37.819
32,0.05165,37.819
33,0.053367,37.819
34,0.054983,37.814
35,0.05665,37.78
36,0.058317,37.78
37,0.060083,37.789
38,0.06165,37.789
39,0.063317,37.789
40,0.064983,37.804
41,0.06665,37.865
42,0.0683,37.864
43,0.069967,37.864
44,0.071633,37.868
45,0.07331699999999999,37.874
46,0.075,37.842
47,0.07663300000000001,37.842
48,0.07829999999999999,37.824
49,0.079967,37.793
50,0.081633,37.786
51,0.0833,37.786
52,0.084967,37.784
53,0.086633,37.804
54,0.0883,37.804
55,0.08996700000000001,37.856
56,0.09163300000000001,37.855
57,0.09329999999999999,37.849
58,0.094967,37.849
59,0.096633,37.84
60,0.0983,37.826
61,0.099967,37.82
62,0.101633,37.82
63,0.1033,37.815
64,0.104967,37.805
65,0.106633,37.789
66,0.1083,37.789
67,0.109967,37.79
68,0.111633,37.798
69,0.1133,37.801
70,0.114967,37.801
71,0.116633,37.799
72,0.1183,37.808
73,0.119967,37.808
74,0.121633,37.812
75,0.123317,37.836
76,0.124967,37.836
77,0.126633,37.836
78,0.128283,37.806
79,0.12995,37.778
80,0.131617,37.76
81,0.133283,37.76
82,0.13495,37.775
83,0.136617,37.794
84,0.138283,37.788
85,0.13995,37.788
86,0.141617,37.752
87,0.143283,37.742
88,0.145,37.726
89,0.146617,37.726
90,0.148283,37.753
91,0.14995,37.804
92,0.151617,37.804
93,0.153317,37.804
94,0.15495,37.829
95,0.156617,37.844
96,0.158283,37.844
97,0.15995,37.83
98,0.1617,37.826
99,0.163283,37.814
100,0.16495,37.814
101,0.166617,37.769
102,0.168283,37.765
103,0.16995,37.764
104,0.171617,37.764
105,0.173283,37.778
106,0.17495,37.84
107,0.176617,37.84
108,0.1784,37.86
109,0.17995,37.868
110,0.181617,37.841
111,0.183283,37.841
112,0.18495,37.785
113,0.186617,37.772
114,0.188267,37.736
115,0.189933,37.736
116,0.1916,37.758
117,0.193267,37.8
118,0.19505,37.815
119,0.1966,37.815
120,0.198267,37.847
121,0.199933,37.846
122,0.201667,37.846
123,0.203267,37.84
124,0.204933,37.824
125,0.2066,37.833
126,0.208267,37.833
127,0.209933,37.838
128,0.2116,37.838
129,0.213267,37.86
130,0.214933,37.86
131,0.2166,37.88
132,0.218267,37.883
133,0.219933,37.874
134,0.2216,37.874
135,0.223267,37.832
136,0.224933,37.775
137,0.226617,37.764
138,0.228267,37.764
139,0.229933,37.754
140,0.2316,37.753
141,0.233267,37.753
142,0.234933,37.753
143,0.2366,37.741
144,0.238267,37.748
145,0.239967,37.748
146,0.2416,37.745
147,0.243267,37.733
148,0.244933,37.743
149,0.246583,37.743
150,0.24825,37.756
151,0.249917,37.754
152,0.251567,37.761
153,0.253233,37.761
154,0.2549,37.771
155,0.256567,37.767
156,0.258233,37.767
157,0.259917,37.795
158,0.261567,37.806
159,0.26325,37.81
160,0.2649,37.81
161,0.266567,37.785
162,0.268233,37.799
163,0.2699,37.824
164,0.271567,37.824
165,0.273233,37.804
166,0.2749,37.803
167,0.276567,37.791
168,0.278233,37.791
169,0.279983,37.816
170,0.281567,37.844
171,0.283233,37.844
172,0.2849,37.836
173,0.286567,37.816
174,0.288233,37.792
175,0.2899,37.792
176,0.291567,37.816
177,0.293233,37.871
178,0.2949,37.915
179,0.296667,37.915
180,0.298233,37.945
181,0.2999,37.937
182,0.301567,37.92
183,0.303233,37.92
184,0.3049,37.943
185,0.306567,37.96
186,0.308217,38.008
187,0.309883,38.008
188,0.31155,38.091
189,0.313333,38.138
190,0.314883,38.138
191,0.31655,38.172
192,0.318217,38.192
193,0.319883,38.221
194,0.32155,38.221
195,0.323217,38.28
196,0.324883,38.38
197,0.32655,38.478
198,0.328217,38.478
199,0.329883,38.609
200,0.33155,38.753
201,0.33325,38.905
202,0.3349,38.905
203,0.336583,39.103
204,0.338217,39.3
205,0.339883,39.3
206,0.34155,39.461
207,0.343217,39.673
208,0.344883,39.91
209,0.34655,39.91
210,0.348217,40.145
211,0.349883,40.472
212,0.35155,40.759
213,0.353217,40.759
214,0.354883,41.066
215,0.35655,41.451
216,0.358217,41.842
217,0.359883,41.842
218,0.36155,42.329
219,0.363217,42.865
220,0.364883,43.432
221,0.36655,43.432
222,0.3682,44.07
223,0.369867,44.788
224,0.371533,44.788
225,0.3732,45.558
226,0.374867,46.423
227,0.376533,47.405
228,0.3782,47.405
229,0.379867,48.448
230,0.38155,49.621
231,0.3832,50.898
232,0.384867,50.898
233,0.386533,52.293
234,0.3882,53.798
235,0.389867,55.454
236,0.391533,55.454
237,0.3932,57.285
238,0.394867,59.254
239,0.396533,59.254
240,0.39825,61.405
241,0.399867,63.737
242,0.40155,66.256
243,0.4032,66.256
244,0.404867,68.96899999999999
245,0.406533,71.914
246,0.4082,75.10899999999999
247,0.409867,75.10899999999999
248,0.411533,78.57299999999999
249,0.4132,82.313
250,0.414867,86.389
251,0.416533,86.389
252,0.4182,90.768
253,0.419867,95.44
254,0.421533,95.44
255,0.4232,100.438
256,0.424867,105.722
257,0.426533,111.269
258,0.428183,111.269
259,0.42985,117.068
260,0.43165,123.078
261,0.433183,129.293
262,0.43485,129.293
263,0.436517,135.666
264,0.438183,142.147
265,0.43985,148.705
266,0.441517,148.705
267,0.443183,155.262
268,0.44485,161.806
269,0.446517,168.253
270,0.448183,168.253
271,0.44985,174.586
272,0.451517,180.747
273,0.453183,180.747
274,0.45485,186.731
275,0.456517,192.513
276,0.458183,198.065
277,0.45985,198.065
278,0.461517,203.373
279,0.463183,208.387
280,0.46485,213.133
281,0.466517,213.133
282,0.468183,217.569
283,0.46985,221.707
284,0.471517,225.554
285,0.473183,225.554
286,0.47485,229.083
287,0.476517,232.357
288,0.478183,232.357
289,0.47985,235.384
290,0.481517,238.105
291,0.483183,240.619
292,0.48485,240.619
293,0.486517,242.855
294,0.488167,244.851
295,0.489833,246.646
296,0.4915,246.646
297,0.493167,248.189
298,0.494833,249.551
299,0.4965,250.674
300,0.498167,250.674
301,0.499833,251.668
302,0.5014999999999999,252.488
303,0.503167,253.16
304,0.504833,253.16
305,0.5065,253.728
306,0.508167,254.089
307,0.509833,254.089
308,0.5115,254.329
309,0.513167,254.465
310,0.514833,254.47
311,0.5165,254.47
312,0.518167,254.395
313,0.519833,254.222
314,0.5215,253.965
315,0.523167,253.965
316,0.524833,253.638
317,0.5265,253.227
318,0.5281670000000001,252.76
319,0.529833,252.76
320,0.5315,252.204
321,0.5331669999999999,251.567
322,0.534833,251.567
323,0.5365,250.875
324,0.538167,250.125
325,0.539833,249.32
326,0.5415,249.32
327,0.54315,248.487
328,0.544817,247.642
329,0.5464830000000001,246.75
330,0.548133,246.75
331,0.5499000000000001,245.843
332,0.551467,244.914
333,0.553133,243.95
334,0.5548,243.95
335,0.556467,242.965
336,0.558133,241.935
337,0.5598,240.878
338,0.561467,240.878
339,0.563133,239.792
340,0.5648,238.706
341,0.5664670000000001,238.706
342,0.568133,237.65
343,0.5698,236.586
344,0.5714669999999999,235.501
345,0.573133,235.501
346,0.5748,234.38
347,0.576483,233.243
348,0.578133,232.097
349,0.5798,232.097
350,0.581467,230.932
351,0.583133,229.806
352,0.5848,228.671
353,0.586467,228.671
354,0.588133,227.532
355,0.5898,226.392
356,0.591467,226.392
357,0.593133,225.217
358,0.5948,223.999
359,0.596467,222.785
360,0.598133,222.785
361,0.5998,221.591
362,0.601467,220.41
363,0.603133,219.253
364,0.6048,219.253
365,0.60645,218.106
366,0.608117,216.947
367,0.609783,215.825
368,0.61145,215.825
369,0.613117,214.669
370,0.614783,213.488
371,0.6164500000000001,213.488
372,0.618117,212.357
373,0.619817,211.189
374,0.621467,210.062
375,0.623117,210.062
376,0.624783,208.932
377,0.62645,207.768
378,0.628117,206.635
379,0.629783,206.635
380,0.63145,205.512
381,0.633117,204.398
382,0.634783,203.289
383,0.63645,203.289
384,0.638117,202.162
385,0.639783,201.033
386,0.64145,199.921
387,0.643117,199.921
388,0.644783,198.821
389,0.64645,197.722
390,0.6481170000000001,197.722
391,0.649783,196.636
392,0.65145,195.539
393,0.6531169999999999,194.449
394,0.654783,194.449
395,0.65645,193.366
396,0.658117,192.273
397,0.659783,191.202
398,0.66145,191.202
399,0.663117,190.124
400,0.664783,189.064
401,0.6664330000000001,188.02
402,0.66825,188.02
403,0.669767,186.964
404,0.6714329999999999,185.944
405,0.6731,185.944
406,0.674767,184.909
407,0.676433,183.891
408,0.6781,182.888
409,0.679767,182.888
410,0.681433,181.88
411,0.6831,180.892
412,0.684767,179.876
413,0.686433,179.876
414,0.6881,178.874
415,0.689767,177.865
416,0.691433,176.851
417,0.6931,176.851
418,0.694767,175.849
419,0.69645,174.873
420,0.6981000000000001,173.873
421,0.699767,173.873
422,0.701433,172.933
423,0.7030999999999999,171.978
424,0.704767,171.978
425,0.706433,171.031
426,0.7081,170.094
427,0.709767,169.115
428,0.71145,169.115
429,0.7131,168.154
430,0.714767,167.203
431,0.716433,166.292
432,0.7181,166.292
433,0.719767,165.374
434,0.721433,164.448
435,0.7231,163.507
436,0.7247670000000001,163.507
437,0.726433,162.607
438,0.728083,161.704
439,0.72975,161.704
440,0.731417,160.827
441,0.733083,159.934
442,0.73475,158.993
443,0.736417,158.993
444,0.738083,158.101
445,0.73975,157.243
446,0.741417,156.399
447,0.743083,156.399
448,0.74475,155.555
449,0.746417,154.706
450,0.7480830000000001,153.854
451,0.74975,153.854
452,0.751417,153.01
453,0.75315,152.172
454,0.75475,151.35
455,0.756417,151.35
456,0.758083,150.494
457,0.75975,149.649
458,0.761417,149.649
459,0.763083,148.818
460,0.76475,147.949
461,0.766417,147.113
462,0.768083,147.113
463,0.76985,146.308
464,0.771417,145.523
465,0.773083,144.784
466,0.77475,144.784
467,0.776417,144.041
468,0.778083,143.246
469,0.7797500000000001,142.453
470,0.781417,142.453
471,0.783083,141.645
472,0.7847499999999999,140.838
473,0.786533,140.078
474,0.788067,140.078
475,0.789733,139.33
476,0.7914,138.602
477,0.793067,138.602
478,0.794733,137.86
479,0.7964,137.118
480,0.798067,136.375
481,0.799733,136.375
482,0.8014,135.597
483,0.803067,134.873
484,0.80475,134.139
485,0.806433,134.139
486,0.808067,133.409
487,0.809733,132.724
488,0.8114,132.012
489,0.813067,132.012
490,0.814733,131.352
491,0.8164,130.671
492,0.818067,130.671
493,0.819733,129.959
494,0.8214,129.262
495,0.823067,128.538
496,0.824733,128.538
497,0.8264,127.83
498,0.828067,127.174
499,0.8297330000000001,126.515
500,0.8314,126.515
501,0.83305,125.873
502,0.834717,125.241
503,0.836383,124.606
504,0.83805,124.606
505,0.839717,123.969
506,0.841383,123.306
507,0.84305,123.306
508,0.84475,122.686
509,0.846367,122.041
510,0.848033,121.387
511,0.8497,121.387
512,0.851367,120.778
513,0.853033,120.12
514,0.8547,119.508
515,0.856367,119.508
516,0.858033,118.931
517,0.8597,118.324
518,0.861367,117.745
519,0.8630330000000001,117.745
520,0.8647,117.144
521,0.866367,116.534
522,0.8680330000000001,116.534
523,0.8697,115.934
524,0.871417,115.331
525,0.8730329999999999,114.738
526,0.8747,114.738
527,0.876367,114.191
528,0.878033,113.645
529,0.879733,113.092
530,0.881367,113.092
531,0.883033,112.554
532,0.8847,112.005
533,0.886367,111.447
534,0.888033,111.447
535,0.8897,110.906
536,0.891367,110.342
537,0.893033,109.767
538,0.8947000000000001,109.767
539,0.896367,109.209
540,0.898033,108.649
541,0.8997000000000001,108.649
542,0.901367,108.108
543,0.903033,107.594
544,0.9048,107.066
545,0.906367,107.066
546,0.908033,106.555
547,0.909683,106.041
548,0.91135,105.523
549,0.913017,105.523
550,0.914683,105.014
551,0.91635,104.508
552,0.918017,104.015
553,0.919683,104.015
554,0.921367,103.508
555,0.923017,103.016
556,0.924683,103.016
557,0.92635,102.521
558,0.928017,102.028
559,0.929683,101.57
560,0.93135,101.57
561,0.933017,101.11
562,0.934683,100.672
563,0.93635,100.233
564,0.938017,100.233
565,0.939683,99.747
566,0.94135,99.289
567,0.943017,98.831
568,0.9446830000000001,98.831
569,0.94635,98.348
570,0.948017,97.89400000000001
571,0.9496830000000001,97.425
572,0.95135,97.425
573,0.953017,96.961
574,0.9546829999999999,96.54600000000001
575,0.95635,96.54600000000001
576,0.958017,96.133
577,0.959683,95.717
578,0.96135,95.294
579,0.963017,95.294
580,0.964683,94.85899999999999
581,0.966367,94.447
582,0.968,94.033
583,0.9696669999999999,94.033
584,0.971333,93.623
585,0.973,93.218
586,0.974667,92.785
587,0.976333,92.785
588,0.978,92.414
589,0.979683,92.014
590,0.981333,92.014
591,0.983,91.621
592,0.984667,91.25700000000001
593,0.986333,90.84
594,0.9880330000000001,90.84
595,0.9897,90.43300000000001
596,0.991333,90.02500000000001
597,0.993,89.601
598,0.994667,89.601
599,0.996333,89.208
600,0.998,88.866
601,0.999667,88.527
602,1.001333,88.527
603,1.003,88.166
604,1.004667,87.791
605,1.00645,87.417
606,1.008,87.417
607,1.009667,87.03100000000001
608,1.011333,86.697
609,1.013,86.697
610,1.014667,86.315
611,1.016333,85.935
612,1.018,85.596
613,1.019667,85.596
614,1.021333,85.227
615,1.0231,84.896
616,1.024667,84.56
617,1.026333,84.56
618,1.027983,84.227
619,1.02965,83.90300000000001
620,1.031317,83.583
621,1.032983,83.583
622,1.03465,83.254
623,1.036317,82.91500000000001
624,1.037983,82.91500000000001
625,1.03965,82.57899999999999
626,1.041317,82.254
627,1.042983,81.967
628,1.04465,81.967
629,1.046317,81.646
630,1.047983,81.328
631,1.04965,81.01900000000001
632,1.051317,81.01900000000001
633,1.052983,80.67400000000001
634,1.05465,80.34
635,1.056317,80.038
636,1.057983,80.038
637,1.059683,79.726
638,1.061317,79.43000000000001
639,1.063017,79.13
640,1.06465,79.13
641,1.066317,78.83
642,1.067983,78.56
643,1.06965,78.56
644,1.071317,78.27800000000001
645,1.072983,78.01600000000001
646,1.07465,77.746
647,1.076317,77.746
648,1.077983,77.44
649,1.07965,77.15600000000001
650,1.081317,76.857
651,1.082983,76.857
652,1.08465,76.556
653,1.086317,76.28100000000001
654,1.087967,76.012
655,1.089633,76.012
656,1.0913,75.75700000000001
657,1.092967,75.483
658,1.094633,75.483
659,1.0963,75.194
660,1.097967,74.907
661,1.099633,74.63500000000001
662,1.1013,74.63500000000001
663,1.102967,74.38
664,1.104633,74.127
665,1.1063,73.878
666,1.108017,73.878
667,1.109633,73.63
668,1.1113,73.36199999999999
669,1.112967,73.107
670,1.114633,73.107
671,1.1163,72.816
672,1.117967,72.536
673,1.119633,72.536
674,1.1213,72.283
675,1.122967,72.065
676,1.1247,71.85899999999999
677,1.126283,71.85899999999999
678,1.12795,71.658
679,1.129617,71.46299999999999
680,1.131283,71.197
681,1.13295,71.197
682,1.134617,70.979
683,1.136283,70.70699999999999
684,1.13795,70.45399999999999
685,1.139617,70.45399999999999
686,1.141383,70.23999999999999
687,1.14295,69.994
688,1.144617,69.77
689,1.146267,69.77
690,1.147933,69.55800000000001
691,1.1496,69.34399999999999
692,1.151267,69.34399999999999
693,1.152933,69.157
694,1.154617,68.974
695,1.156267,68.747
696,1.15805,68.747
697,1.1596,68.554
698,1.161267,68.30500000000001
699,1.162933,68.07899999999999
700,1.1646,68.07899999999999
701,1.166267,67.876
702,1.167933,67.655
703,1.1696,67.452
704,1.171267,67.452
705,1.172933,67.239
706,1.1746,67.03400000000001
707,1.176267,67.03400000000001
708,1.177933,66.816
709,1.1796,66.596
710,1.181267,66.401
711,1.182933,66.401
712,1.1846,66.20999999999999
713,1.186267,66.017
714,1.187933,65.85299999999999
715,1.1896,65.85299999999999
716,1.191267,65.645
717,1.192933,65.43899999999999
718,1.1946,65.238
719,1.196267,65.238
720,1.197933,65.026
721,1.1996,64.866
722,1.2013,64.65300000000001
723,1.202933,64.65300000000001
724,1.2046,64.48099999999999
725,1.206267,64.28100000000001
726,1.207917,64.28100000000001
727,1.209583,64.06999999999999
728,1.211267,63.907
729,1.21295,63.707
730,1.214583,63.707
731,1.21625,63.558
732,1.217917,63.404
733,1.219583,63.223
734,1.22125,63.223
735,1.222917,63.069
736,1.224583,62.896
737,1.22625,62.716
738,1.227917,62.716
739,1.229583,62.525
740,1.23125,62.317
741,1.232917,62.317
742,1.234583,62.115
743,1.23625,61.914
744,1.237917,61.755
745,1.239583,61.755
746,1.24125,61.625
747,1.242967,61.488
748,1.244583,61.364
749,1.24625,61.364
750,1.247917,61.201
751,1.249583,61.044
752,1.25125,60.908
753,1.252917,60.908
754,1.254583,60.742
755,1.25625,60.605
756,1.257917,60.605
757,1.2596,60.447
758,1.26125,60.304
759,1.262917,60.157
760,1.264583,60.157
761,1.26625,60.004
762,1.2679,59.863
763,1.269567,59.684
764,1.271233,59.684
765,1.2729,59.541
766,1.274567,59.425
767,1.27635,59.272
768,1.2779,59.272
769,1.279617,59.131
770,1.281233,59.009
771,1.2829,58.837
772,1.284567,58.837
773,1.286233,58.69
774,1.2879,58.561
775,1.289567,58.561
776,1.291233,58.404
777,1.2929,58.283
778,1.294567,58.172
779,1.296233,58.172
780,1.2979,58.046
781,1.299567,57.931
782,1.301233,57.805
783,1.3029,57.805
784,1.304617,57.644
785,1.306233,57.494
786,1.3079,57.335
787,1.309567,57.335
788,1.311233,57.199
789,1.3129,57.071
790,1.314567,57.071
791,1.316233,56.932
792,1.3179,56.822
793,1.319567,56.705
794,1.321233,56.705
795,1.3229,56.604
796,1.324567,56.5
797,1.326233,56.387
798,1.327883,56.387
799,1.32955,56.242
800,1.331217,56.098
801,1.332883,55.971
802,1.33455,55.971
803,1.336217,55.842
804,1.337883,55.718
805,1.33955,55.594
806,1.341217,55.594
807,1.342883,55.455
808,1.344567,55.313
809,1.346217,55.313
810,1.347883,55.205
811,1.34955,55.116
812,1.351217,55.014
813,1.352883,55.014
814,1.35455,54.931
815,1.356217,54.842
816,1.357883,54.727
817,1.35955,54.727
818,1.361233,54.663
819,1.362883,54.553
820,1.36455,54.455
821,1.366217,54.455
822,1.367883,54.347
823,1.36955,54.239
824,1.371217,54.239
825,1.372883,54.143
826,1.37455,54.013
827,1.376217,53.927
828,1.377967,53.927
829,1.37955,53.8
830,1.381217,53.681
831,1.382883,53.593
832,1.38455,53.593
833,1.3862,53.488
834,1.387867,53.387
835,1.389533,53.297
836,1.3912,53.297
837,1.392867,53.193
838,1.394633,53.082
839,1.3962,52.987
840,1.397867,52.987
841,1.399533,52.871
842,1.4012,52.765
843,1.402867,52.765
844,1.404533,52.649
845,1.4062,52.562
846,1.407867,52.476
847,1.409533,52.476
848,1.4112,52.413
849,1.412867,52.355
850,1.414533,52.246
851,1.416183,52.246
852,1.41785,52.197
853,1.419517,52.084
854,1.421183,51.961
855,1.422883,51.961
856,1.424517,51.87
857,1.426183,51.74
858,1.42785,51.74
859,1.429517,51.638
860,1.431183,51.548
861,1.43285,51.481
862,1.434517,51.481
863,1.436183,51.402
864,1.43785,51.318
865,1.439517,51.25
866,1.441183,51.25
867,1.44285,51.15
868,1.444517,51.057
869,1.446183,50.993
870,1.447833,50.993
871,1.4495,50.896
872,1.451167,50.806
873,1.452833,50.806
874,1.4545,50.727
875,1.456167,50.615
876,1.457833,50.537
877,1.4595,50.537
878,1.461167,50.464
879,1.462833,50.381
880,1.4645,50.323
881,1.466167,50.323
882,1.467833,50.26
883,1.4695,50.195
884,1.471167,50.114
885,1.47285,50.114
886,1.4745,50.019
887,1.476167,49.934
888,1.477833,49.877
889,1.47955,49.877
890,1.481167,49.826
891,1.482833,49.799
892,1.4845,49.799
893,1.486167,49.734
894,1.487833,49.631
895,1.4895,49.548
896,1.491167,49.548
897,1.492833,49.465
898,1.494517,49.416
899,1.49625,49.344
900,1.497833,49.344
901,1.4995,49.277
902,1.501167,49.184
903,1.502833,49.108
904,1.5045,49.108
905,1.50615,49.046
906,1.507817,48.999
907,1.509483,48.999
908,1.51115,48.944
909,1.512933,48.877
910,1.514483,48.812
911,1.51615,48.812
912,1.517817,48.714
913,1.519483,48.666
914,1.52115,48.599
915,1.522817,48.599
916,1.524483,48.549
917,1.52615,48.482
918,1.527817,48.389
919,1.529483,48.389
920,1.53115,48.304
921,1.532817,48.186
922,1.534483,48.127
923,1.53615,48.127
924,1.537817,48.056
925,1.539483,48.024
926,1.54115,48.024
927,1.542817,48.008
928,1.544483,47.973
929,1.54615,47.941
930,1.547817,47.941
931,1.549483,47.87
932,1.55115,47.799
933,1.552817,47.719
934,1.554483,47.719
935,1.55615,47.647
936,1.557833,47.577
937,1.559483,47.532
938,1.56115,47.532
939,1.562817,47.48
940,1.564483,47.438
941,1.56615,47.438
942,1.567817,47.39
943,1.569517,47.319
944,1.571133,47.252
945,1.5728,47.252
946,1.574467,47.162
947,1.576133,47.088
948,1.5778,47.033
949,1.579467,47.033
950,1.581133,46.976
951,1.5828,46.964
952,1.584467,46.93
953,1.586133,46.93
954,1.5878,46.884
955,1.589467,46.843
956,1.591133,46.778
957,1.5928,46.778
958,1.594467,46.714
959,1.596133,46.666
960,1.597867,46.666
961,1.599467,46.59
962,1.601133,46.516
963,1.6028,46.477
964,1.604467,46.477
965,1.606133,46.414
966,1.6078,46.363
967,1.609467,46.32
968,1.61115,46.32
969,1.6128,46.261
970,1.614467,46.233
