"ID","sea_time","fid_signal"
1,0,1171.529
2,0.001667,1169.667
3,0.003333,1168.698
4,0.005,1169.518
5,0.006667,1169.518
6,0.008366999999999999,1171.082
7,0.009983000000000001,1174.659
8,0.01165,1172.2
9,0.013333,1172.2
10,0.014983,1172.349
11,0.01665,1171.157
12,0.018317,1170.188
13,0.019983,1170.188
14,0.02165,1171.902
15,0.02335,1169.965
16,0.024983,1169.965
17,0.02665,1168.698
18,0.028317,1165.867
19,0.029983,1164.898
20,0.03165,1164.898
21,0.033317,1166.91
22,0.034983,1164.749
23,0.03665,1163.185
24,0.038317,1163.185
25,0.039983,1164.6
26,0.04165,1163.334
27,0.043317,1166.09
28,0.044983,1166.09
29,0.046633,1170.039
30,0.0483,1168.922
31,0.049967,1168.922
32,0.051633,1169.965
33,0.0533,1168.475
34,0.054967,1166.463
35,0.056633,1166.463
36,0.0583,1165.345
37,0.059967,1162.961
38,0.061633,1162.589
39,0.0633,1162.589
40,0.064967,1162.887
41,0.066667,1164.973
42,0.0683,1165.42
43,0.069967,1165.42
44,0.071633,1166.239
45,0.07331699999999999,1165.047
46,0.07496700000000001,1166.463
47,0.07663300000000001,1166.463
48,0.07829999999999999,1169.22
49,0.079967,1168.698
50,0.081633,1168.698
51,0.083383,1169.518
52,0.084967,1166.984
53,0.086633,1163.11
54,0.0883,1163.11
55,0.08996700000000001,1161.918
56,0.09163300000000001,1164.973
57,0.09329999999999999,1165.047
58,0.094967,1165.047
59,0.096633,1165.494
60,0.0983,1168.251
61,0.100067,1166.239
62,0.101633,1166.239
63,0.1033,1169.145
64,0.104967,1171.976
65,0.106617,1171.976
66,0.108283,1170.412
67,0.10995,1170.263
68,0.111617,1166.835
69,0.113283,1166.835
70,0.114967,1167.357
71,0.11665,1170.412
72,0.118283,1168.624
73,0.11995,1168.624
74,0.121617,1170.859
75,0.123283,1168.698
76,0.12495,1167.059
77,0.126617,1167.059
78,0.128283,1169.965
79,0.12995,1168.698
80,0.131617,1168.475
81,0.133283,1168.475
82,0.13495,1167.357
83,0.136617,1164.898
84,0.138283,1164.898
85,0.13995,1164.228
86,0.141617,1166.09
87,0.143283,1165.941
88,0.14495,1165.941
89,0.146617,1168.326
90,0.1483,1170.188
91,0.14995,1169.071
92,0.151617,1169.071
93,0.153283,1172.051
94,0.15495,1171.157
95,0.156617,1168.922
96,0.158283,1168.922
97,0.15995,1166.91
98,0.161617,1164.228
99,0.163283,1164.228
100,0.16495,1162.291
101,0.1666,1162.887
102,0.168267,1163.408
103,0.169933,1163.408
104,0.1716,1164.004
105,0.173267,1166.612
106,0.174933,1166.016
107,0.1766,1166.016
108,0.178267,1167.655
109,0.179933,1168.996
110,0.1816,1170.114
111,0.183267,1170.114
112,0.18495,1174.137
113,0.1866,1175.478
114,0.188267,1172.945
115,0.189933,1172.945
116,0.1916,1169.22
117,0.1933,1165.643
118,0.194933,1165.643
119,0.1966,1163.185
120,0.198267,1165.569
121,0.199933,1166.761
122,0.201667,1166.761
123,0.203267,1166.612
124,0.204933,1166.984
125,0.2066,1164.898
126,0.208267,1164.898
127,0.209933,1164.451
128,0.2116,1164.675
129,0.213267,1164.377
130,0.214933,1164.377
131,0.2166,1163.185
132,0.21835,1164.973
133,0.219933,1164.973
134,0.221617,1166.016
135,0.223267,1167.879
136,0.224933,1169.89
137,0.226583,1169.89
138,0.22825,1168.4
139,0.229917,1166.984
140,0.231583,1164.675
141,0.23325,1164.675
142,0.234917,1165.047
143,0.236583,1166.984
144,0.23825,1170.263
145,0.239917,1170.263
146,0.2416,1171.082
147,0.24325,1170.188
148,0.244917,1165.718
149,0.246583,1165.718
150,0.24825,1163.036
151,0.249917,1163.855
152,0.251583,1163.855
153,0.25325,1164.451
154,0.254917,1168.773
155,0.256583,1167.953
156,0.25825,1167.953
157,0.259917,1168.251
158,0.261583,1166.835
159,0.26325,1165.122
160,0.264917,1165.122
161,0.266583,1168.177
162,0.26825,1168.4
163,0.269917,1169.369
164,0.271583,1169.369
165,0.27325,1169.592
166,0.274917,1166.09
167,0.276583,1166.09
168,0.27825,1167.655
169,0.279917,1169.741
170,0.281583,1168.922
171,0.28325,1168.922
172,0.284933,1168.922
173,0.286567,1165.569
174,0.288233,1164.377
175,0.2899,1164.377
176,0.291567,1166.314
177,0.29325,1169.741
178,0.294967,1170.784
179,0.296567,1170.784
180,0.298233,1170.486
181,0.2999,1170.114
182,0.30155,1170.114
183,0.303217,1167.432
184,0.304883,1165.345
185,0.30655,1163.632
186,0.308217,1163.632
187,0.309883,1161.993
188,0.31155,1165.271
189,0.313217,1166.239
190,0.314883,1166.239
191,0.31655,1167.506
192,0.318217,1168.549
193,0.319933,1167.432
194,0.32155,1167.432
195,0.323217,1168.698
196,0.324883,1171.455
197,0.32655,1174.435
198,0.328217,1174.435
199,0.329883,1176.596
200,0.33155,1182.78
201,0.333217,1182.78
202,0.334883,1183.152
203,0.3366,1184.568
204,0.338217,1189.038
205,0.339883,1189.038
206,0.34155,1189.858
207,0.343217,1194.403
208,0.344883,1194.328
209,0.346533,1194.328
210,0.3482,1192.391
211,0.349867,1192.54
212,0.351533,1190.305
213,0.353317,1190.305
214,0.354867,1194.179
215,0.356533,1196.638
216,0.3582,1196.638
217,0.359867,1195.967
218,0.361533,1197.085
219,0.3632,1195.744
220,0.364867,1195.744
221,0.366567,1191.869
222,0.368267,1189.485
223,0.369867,1188.293
224,0.371533,1188.293
225,0.3732,1188.442
226,0.374867,1187.921
227,0.376533,1187.101
228,0.3782,1187.101
229,0.379867,1185.685
230,0.381533,1182.333
231,0.3832,1182.333
232,0.384867,1182.333
233,0.386533,1182.78
234,0.3882,1183.078
235,0.389867,1183.078
236,0.391533,1182.705
237,0.3932,1180.545
238,0.394867,1178.905
239,0.396533,1178.905
240,0.3982,1178.533
241,0.399867,1179.129
242,0.401533,1179.874
243,0.4032,1179.874
244,0.404867,1179.501
245,0.406517,1178.16
246,0.408183,1177.862
247,0.40985,1177.862
248,0.411517,1177.788
249,0.413183,1176.372
250,0.41485,1176.372
251,0.416533,1174.584
252,0.418183,1172.87
253,0.41985,1171.976
254,0.421517,1171.976
255,0.423183,1175.553
256,0.42485,1178.011
257,0.426517,1178.533
258,0.428183,1178.533
259,0.42985,1179.203
260,0.431517,1177.043
261,0.433183,1177.639
262,0.43485,1177.639
263,0.436517,1178.235
264,0.438283,1180.545
265,0.43985,1181.364
266,0.441517,1181.364
267,0.4432,1180.023
268,0.44485,1180.321
269,0.446517,1180.321
270,0.448183,1178.235
271,0.44985,1176.596
272,0.451517,1176.372
273,0.453183,1176.372
274,0.454867,1172.87
275,0.456517,1174.063
276,0.458183,1175.329
277,0.45985,1175.329
278,0.461517,1175.702
279,0.463183,1178.533
280,0.46485,1177.713
281,0.466517,1177.713
282,0.468167,1176.372
283,0.469833,1174.584
284,0.471617,1170.412
285,0.473167,1170.412
286,0.474833,1167.655
287,0.4765,1169.294
288,0.478167,1169.294
289,0.479833,1169.89
290,0.4815,1174.882
291,0.483167,1175.031
292,0.484833,1175.031
293,0.4865,1173.69
294,0.488167,1172.498
295,0.489833,1169.22
296,0.4915,1169.22
297,0.493167,1169.816
298,0.494833,1171.678
299,0.4965,1171.678
300,0.498167,1177.266
301,0.499833,1181.141
302,0.5014999999999999,1187.324
303,0.503167,1187.324
304,0.504833,1192.763
305,0.5065,1197.085
306,0.508167,1202.896
307,0.509833,1202.896
308,0.5115,1209.378
309,0.5132,1218.319
310,0.514833,1229.793
311,0.5165,1229.793
312,0.518167,1244.172
313,0.519833,1263.246
314,0.5215,1281.947
315,0.523167,1281.947
316,0.524817,1304.597
317,0.526483,1332.462
318,0.52815,1332.462
319,0.529833,1359.358
320,0.531533,1391.545
321,0.53315,1425.669
322,0.534817,1425.669
323,0.536483,1464.859
324,0.53815,1508.892
325,0.539817,1558.065
326,0.541483,1558.065
327,0.54315,1614.094
328,0.544817,1673.624
329,0.5464830000000001,1737.699
330,0.54815,1737.699
331,0.549817,1806.915
332,0.5514829999999999,1882.687
333,0.55315,1882.687
334,0.554817,1958.907
335,0.5565330000000001,2040.938
336,0.55815,2128.854
337,0.559817,2128.854
338,0.561483,2215.803
339,0.56315,2310.723
340,0.564817,2408.773
341,0.566483,2408.773
342,0.56815,2506.748
343,0.569817,2606.958
344,0.571483,2707.094
345,0.573167,2707.094
346,0.574817,2808.124
347,0.576483,2908.856
348,0.5781500000000001,3013.462
349,0.579817,3013.462
350,0.581483,3117.77
351,0.5831499999999999,3221.035
352,0.584817,3221.035
353,0.586467,3324.002
354,0.588133,3424.063
355,0.5899,3524.721
356,0.591467,3524.721
357,0.593117,3624.782
358,0.594783,3726.408
359,0.59645,3823.638
360,0.598117,3823.638
361,0.599783,3916.472
362,0.60145,4005.358
363,0.603117,4087.463
364,0.604783,4087.463
365,0.60645,4168.525
366,0.608117,4247.278
367,0.609783,4247.278
368,0.61145,4322.604
369,0.613117,4391.521
370,0.614783,4456.863
371,0.6164500000000001,4456.863
372,0.618117,4517.66
373,0.619783,4570.484
374,0.6214499999999999,4622.787
375,0.623167,4622.787
376,0.624783,4671.216
377,0.62645,4714.355
378,0.628117,4754.588
379,0.629783,4754.588
380,0.63145,4790.723
381,0.633117,4818.216
382,0.634783,4838.705
383,0.63645,4838.705
384,0.638117,4855.171
385,0.639783,4864.856
386,0.64145,4864.856
387,0.643117,4868.507
388,0.644783,4869.625
389,0.646433,4869.401
390,0.6481,4869.401
391,0.649767,4865.75
392,0.651433,4855.692
393,0.6531,4841.834
394,0.654767,4841.834
395,0.65645,4823.059
396,0.6581,4798.919
397,0.659767,4781.038
398,0.661433,4781.038
399,0.6631,4759.953
400,0.664767,4733.056
401,0.6664330000000001,4733.056
402,0.6681,4702.062
403,0.669767,4664.287
404,0.6714329999999999,4628.524
405,0.6731,4628.524
406,0.674817,4591.346
407,0.676433,4555.21
408,0.6781,4517.883
409,0.679767,4517.883
410,0.681433,4477.054
411,0.6831,4436.374
412,0.684767,4395.544
413,0.686433,4395.544
414,0.6881,4352.555
415,0.689767,4308.596
416,0.691433,4308.596
417,0.6931,4268.512
418,0.694767,4226.417
419,0.696433,4188.121
420,0.6981000000000001,4188.121
421,0.699767,4146.993
422,0.701433,4102.737
423,0.7030999999999999,4061.013
424,0.704767,4061.013
425,0.706417,4018.247
426,0.7081499999999999,3977.567
427,0.70975,3937.259
428,0.711417,3937.259
429,0.713083,3897.771
430,0.71475,3858.805
431,0.716417,3821.626
432,0.718083,3821.626
433,0.71975,3783.107
434,0.721417,3742.725
435,0.723083,3742.725
436,0.72475,3702.119
437,0.726417,3661.215
438,0.728083,3622.025
439,0.72975,3622.025
440,0.73145,3585.219
441,0.733083,3549.755
442,0.73475,3516.376
443,0.736417,3516.376
444,0.738083,3484.264
445,0.73975,3450.587
446,0.741417,3419.593
447,0.743083,3419.593
448,0.74475,3386.512
449,0.746417,3353.059
450,0.7480830000000001,3353.059
451,0.74975,3323.927
452,0.751417,3293.529
453,0.7530829999999999,3264.77
454,0.75475,3264.77
455,0.756417,3237.203
456,0.758083,3208.071
457,0.75975,3181.547
458,0.761417,3181.547
459,0.763083,3152.49
460,0.76475,3127.009
461,0.7664,3098.845
462,0.7680670000000001,3098.845
463,0.769733,3069.714
464,0.7714,3046.84
465,0.7730669999999999,3021.285
466,0.774733,3021.285
467,0.7764,2996.251
468,0.778067,2973.08
469,0.779733,2973.08
470,0.7814,2950.877
471,0.783067,2927.929
472,0.784733,2904.907
473,0.786433,2904.907
474,0.788067,2885.386
475,0.789733,2859.98
476,0.7914,2835.169
477,0.793117,2835.169
478,0.794733,2816.021
479,0.796417,2793.297
480,0.798067,2774.298
481,0.799733,2774.298
482,0.8014,2754.703
483,0.803067,2732.575
484,0.804733,2732.575
485,0.8064,2709.478
486,0.808067,2687.946
487,0.809733,2670.884
488,0.8114,2670.884
489,0.813067,2653.152
490,0.814733,2637.58
491,0.8164,2618.954
492,0.818067,2618.954
493,0.819733,2598.241
494,0.8214,2581.403
495,0.823067,2562.106
496,0.824733,2562.106
497,0.8265169999999999,2549.961
498,0.82805,2535.135
499,0.829717,2520.233
500,0.831383,2520.233
501,0.83305,2507.046
502,0.834717,2487.823
503,0.836383,2487.823
504,0.83805,2473.295
505,0.839717,2458.542
506,0.841383,2446.622
507,0.84305,2446.622
508,0.8447170000000001,2432.242
509,0.846383,2416.298
510,0.84805,2404.302
511,0.8497169999999999,2404.302
512,0.851383,2387.911
513,0.85305,2377.704
514,0.8547169999999999,2365.634
515,0.856383,2365.634
516,0.85805,2351.85
517,0.859717,2338.588
518,0.861383,2338.588
519,0.86305,2324.358
520,0.864717,2312.362
521,0.866383,2298.951
522,0.86805,2298.951
523,0.869733,2285.764
524,0.8714499999999999,2271.235
525,0.873067,2258.047
526,0.874717,2258.047
527,0.876383,2248.138
528,0.87805,2238.602
529,0.879717,2228.32
530,0.881383,2228.32
531,0.88305,2219.751
532,0.8847,2206.937
533,0.88635,2206.937
534,0.8880169999999999,2196.357
535,0.889683,2188.385
536,0.89135,2178.028
537,0.8930169999999999,2178.028
538,0.894683,2168.491
539,0.89635,2158.359
540,0.898017,2149.269
541,0.899683,2149.269
542,0.90135,2138.987
543,0.903017,2128.109
544,0.904683,2115.741
545,0.90635,2115.741
546,0.908017,2100.989
547,0.909683,2090.856
548,0.9114,2080.947
549,0.913017,2080.947
550,0.914683,2071.41
551,0.91635,2066.865
552,0.918017,2066.865
553,0.919683,2059.49
554,0.92135,2052.933
555,0.923017,2049.357
556,0.924683,2049.357
557,0.92635,2040.64
558,0.928017,2034.009
559,0.929683,2027.75
560,0.93135,2027.75
561,0.933017,2019.48
562,0.934683,2012.029
563,0.93635,2004.057
564,0.938033,2004.057
565,0.939683,1992.434
566,0.941383,1983.419
567,0.943017,1983.419
568,0.9448,1977.608
569,0.94635,1968.816
570,0.948,1964.048
571,0.949667,1964.048
572,0.951333,1957.938
573,0.953,1949.146
574,0.954667,1943.26
575,0.956333,1943.26
576,0.958,1936.182
577,0.959667,1927.912
578,0.961333,1922.175
579,0.963,1922.175
580,0.9646670000000001,1915.172
581,0.966333,1909.137
582,0.968,1905.635
583,0.9696669999999999,1905.635
584,0.971333,1899.526
585,0.973,1891.702
586,0.974667,1891.702
587,0.976333,1884.401
588,0.978,1875.684
589,0.979667,1869.127
590,0.981333,1869.127
591,0.983,1866.594
592,0.984667,1861.602
593,0.986333,1857.057
594,0.988,1857.057
595,0.989667,1850.873
596,0.991333,1846.477
597,0.993,1844.317
598,0.994667,1844.317
599,0.996333,1837.239
600,0.998,1832.917
601,0.999667,1832.917
602,1.001333,1824.126
603,1.003,1816.75
604,1.004667,1816.75
605,1.00635,1816.75
606,1.008033,1812.801
607,1.00965,1806.542
608,1.011317,1802.519
609,1.012983,1802.519
610,1.01465,1794.547
611,1.016317,1790.822
612,1.017983,1791.716
613,1.019683,1791.716
614,1.021317,1787.916
615,1.022983,1784.489
616,1.02465,1776.442
617,1.026317,1776.442
618,1.027983,1768.917
619,1.029667,1765.713
620,1.031317,1765.713
621,1.032983,1760.647
622,1.03465,1757.443
623,1.036317,1753.941
624,1.037983,1753.941
625,1.03965,1747.981
626,1.041317,1742.244
627,1.042983,1736.954
628,1.04465,1736.954
629,1.046367,1732.558
630,1.048,1728.684
631,1.04965,1726.448
632,1.051317,1726.448
633,1.052983,1723.915
634,1.05465,1719.743
635,1.056317,1719.743
636,1.057983,1714.826
637,1.05965,1708.493
638,1.061317,1703.65
639,1.063067,1703.65
640,1.06465,1699.776
641,1.0663,1695.231
642,1.067967,1691.207
643,1.069633,1691.207
644,1.0713,1688.153
645,1.072967,1683.682
646,1.074633,1678.541
647,1.0763,1678.541
648,1.077967,1676.381
649,1.07975,1674.518
650,1.0813,1674.518
651,1.083017,1672.581
652,1.084633,1670.271
653,1.0863,1668.26
654,1.087967,1668.26
655,1.089633,1663.789
656,1.0913,1659.021
657,1.092967,1655.817
658,1.094633,1655.817
659,1.0963,1651.347
660,1.097967,1647.174
661,1.099633,1643.896
662,1.1013,1643.896
663,1.102967,1642.63
664,1.104633,1639.351
665,1.1063,1635.552
666,1.107983,1635.552
667,1.109633,1631.752
668,1.1113,1625.791
669,1.112967,1625.791
670,1.114633,1622.736
671,1.1163,1620.948
672,1.117967,1621.097
673,1.119633,1621.097
674,1.1213,1621.023
675,1.122967,1620.203
676,1.124633,1616.925
677,1.126283,1616.925
678,1.12795,1611.337
679,1.129617,1606.569
680,1.131283,1602.247
681,1.13295,1602.247
682,1.134617,1598.671
683,1.136283,1594.648
684,1.13795,1594.648
685,1.139617,1593.828
686,1.141283,1591.966
687,1.14295,1590.773
688,1.144617,1590.773
689,1.146283,1592.264
690,1.147967,1587.942
691,1.149617,1583.546
692,1.151283,1583.546
693,1.15295,1580.417
694,1.154617,1576.17
695,1.156283,1573.861
696,1.15795,1573.861
697,1.159617,1571.104
698,1.161283,1569.614
699,1.16295,1567.9
700,1.16465,1567.9
701,1.166283,1565.367
702,1.16795,1563.877
703,1.169617,1563.877
704,1.171283,1561.418
705,1.17295,1559.034
706,1.174617,1556.352
707,1.176267,1556.352
708,1.177933,1555.383
709,1.1796,1554.787
710,1.181333,1552.701
711,1.182933,1552.701
712,1.1846,1552.328
713,1.18625,1548.529
714,1.187917,1544.803
715,1.189583,1544.803
716,1.19125,1542.717
717,1.192917,1539.29
718,1.194583,1539.29
719,1.19625,1537.129
720,1.197983,1532.957
721,1.199583,1530.275
722,1.201283,1530.275
723,1.202917,1528.859
724,1.204583,1526.848
725,1.20625,1527.369
726,1.207917,1527.369
727,1.209583,1524.985
728,1.21125,1523.048
729,1.212917,1519.099
730,1.214583,1519.099
731,1.21625,1513.66
732,1.217917,1508.892
733,1.219583,1505.166
734,1.22125,1505.166
735,1.222933,1506.582
736,1.2246,1506.805
737,1.22625,1506.805
738,1.227917,1509.86
739,1.229583,1506.507
740,1.23125,1504.943
741,1.232917,1504.943
742,1.234583,1501.963
743,1.23625,1495.63
744,1.237917,1494.81
745,1.239583,1494.81
746,1.24125,1490.191
747,1.242917,1490.414
748,1.244583,1490.191
749,1.246233,1490.191
750,1.2479,1490.042
751,1.249567,1489.148
752,1.251233,1489.148
753,1.2529,1487.508
754,1.254567,1486.093
755,1.256233,1486.167
756,1.2579,1486.167
757,1.259567,1487.583
758,1.261233,1485.199
759,1.2629,1484.826
760,1.264567,1484.826
761,1.266233,1480.877
762,1.2679,1474.246
763,1.269567,1468.882
764,1.271233,1468.882
765,1.2729,1464.71
766,1.274567,1465.604
767,1.276267,1468.882
768,1.2779,1468.882
769,1.279567,1469.776
770,1.281233,1471.415
771,1.283,1471.415
772,1.284567,1467.466
773,1.286233,1464.933
774,1.2879,1463.667
775,1.289567,1463.667
776,1.291233,1460.463
777,1.2929,1459.122
778,1.294567,1454.428
779,1.296233,1454.428
780,1.2979,1453.385
781,1.2996,1452.863
782,1.301233,1452.938
783,1.3029,1452.938
784,1.30455,1453.087
785,1.306217,1452.044
786,1.307883,1452.044
787,1.30955,1448.244
788,1.311217,1443.922
789,1.312883,1442.134
790,1.31455,1442.134
791,1.316333,1441.315
792,1.317883,1439.825
793,1.31955,1440.048
794,1.321217,1440.048
795,1.322883,1438.633
796,1.32455,1436.397
797,1.326217,1435.131
798,1.327883,1435.131
799,1.32955,1435.95
800,1.331217,1436.621
801,1.332883,1436.621
802,1.33455,1437.142
803,1.336217,1436.77
804,1.337883,1436.248
805,1.33955,1436.248
806,1.341217,1433.79
807,1.342883,1431.331
808,1.34455,1429.17
809,1.346217,1429.17
810,1.347883,1425.371
811,1.34955,1424.7
812,1.351217,1423.135
813,1.352883,1423.135
814,1.35455,1423.657
815,1.356217,1424.253
816,1.357883,1422.241
817,1.35955,1422.241
818,1.361217,1420.23
819,1.3629,1420.453
820,1.364583,1420.453
821,1.3662,1418.814
822,1.367867,1416.206
823,1.369533,1414.94
824,1.3712,1414.94
825,1.372917,1412.705
826,1.374533,1408.458
827,1.3762,1408.83
828,1.377867,1408.83
829,1.379533,1406.968
830,1.3812,1402.572
831,1.382867,1401.678
832,1.384533,1401.678
833,1.3862,1401.38
834,1.387867,1401.976
835,1.389533,1401.976
836,1.3912,1402.348
837,1.392867,1401.603
838,1.394533,1398.399
839,1.3962,1398.399
840,1.397867,1395.792
841,1.399533,1397.058
842,1.4012,1396.015
843,1.402867,1396.015
844,1.404533,1396.015
845,1.4062,1396.313
846,1.407867,1392.886
847,1.409533,1392.886
848,1.4112,1391.992
849,1.412867,1389.086
850,1.414533,1386.628
851,1.4162,1386.628
852,1.417867,1387.149
853,1.419533,1384.02
854,1.4212,1384.02
855,1.422867,1382.902
856,1.424533,1384.839
857,1.426183,1382.828
858,1.42785,1382.828
859,1.429517,1385.584
860,1.431183,1388.341
861,1.43285,1386.181
862,1.434633,1386.181
863,1.436183,1384.839
864,1.43785,1383.498
865,1.439517,1381.561
866,1.441183,1381.561
867,1.44285,1380.444
868,1.444517,1381.114
869,1.4462,1381.114
870,1.44785,1382.157
871,1.449517,1381.338
872,1.4512,1380.295
873,1.45285,1380.295
874,1.454517,1379.028
875,1.456183,1376.122
876,1.45785,1375.079
877,1.459517,1375.079
878,1.461183,1372.546
879,1.46285,1370.683
880,1.464517,1369.938
881,1.466167,1369.938
882,1.467833,1369.417
883,1.4695,1366.958
884,1.471167,1366.958
885,1.472833,1366.511
886,1.4745,1366.064
887,1.476167,1365.319
888,1.477833,1365.319
889,1.4795,1369.64
890,1.481167,1370.013
891,1.482833,1368.672
892,1.4845,1368.672
893,1.48615,1365.691
894,1.487817,1361.668
895,1.489483,1359.209
896,1.49115,1359.209
897,1.492817,1359.805
898,1.494483,1359.954
899,1.49615,1362.935
900,1.497817,1362.935
901,1.499483,1361.743
902,1.50115,1357.868
903,1.502817,1357.868
904,1.504483,1356.676
905,1.50615,1351.908
906,1.507817,1351.833
907,1.509483,1351.833
908,1.511183,1351.014
909,1.512817,1348.406
910,1.514483,1349.747
911,1.51615,1349.747
912,1.517817,1351.014
913,1.519533,1350.939
914,1.52115,1352.727
915,1.522817,1352.727
916,1.524483,1350.567
917,1.52615,1349.524
918,1.527817,1349.524
919,1.529483,1350.418
920,1.53115,1350.716
921,1.532817,1349.449
