"ID","sea_time","fid_signal"
1,0,1170.933
2,0.001667,1170.039
3,0.003333,1170.039
4,0.005,1171.306
5,0.006667,1168.251
6,0.008333,1168.4
7,0.01,1168.4
8,0.011667,1164.675
9,0.013333,1162.44
10,0.015,1164.153
11,0.016667,1164.153
12,0.01835,1164.898
13,0.020033,1168.847
14,0.02165,1170.412
15,0.023317,1170.412
16,0.024983,1169.443
17,0.02665,1169.965
18,0.028317,1169.965
19,0.029983,1170.784
20,0.03165,1169.22
21,0.033317,1170.114
22,0.034983,1170.114
23,0.03665,1168.4
24,0.038317,1165.718
25,0.039983,1164.675
26,0.04175,1164.675
27,0.043317,1161.62
28,0.044983,1164.079
29,0.04665,1165.643
30,0.048333,1165.643
31,0.049983,1170.337
32,0.05165,1174.212
33,0.053317,1174.286
34,0.054983,1174.286
35,0.05665,1172.498
36,0.058317,1170.412
37,0.059983,1170.412
38,0.06165,1169.071
39,0.063317,1166.835
40,0.064983,1169.145
41,0.06665,1169.145
42,0.068317,1169.592
43,0.069983,1170.561
44,0.07165000000000001,1171.082
45,0.07331699999999999,1171.082
46,0.07498299999999999,1171.231
47,0.07665,1169.89
48,0.078317,1170.784
49,0.079967,1170.784
50,0.081633,1169.816
51,0.0833,1166.91
52,0.084967,1166.91
53,0.086633,1167.208
54,0.0883,1165.122
55,0.08995,1168.773
56,0.09165,1168.773
57,0.093283,1171.753
58,0.09495000000000001,1173.913
59,0.09661699999999999,1175.702
60,0.098283,1175.702
61,0.09995,1173.019
62,0.101617,1170.635
63,0.1033,1168.326
64,0.10495,1168.326
65,0.106617,1165.867
66,0.108283,1166.016
67,0.10995,1166.165
68,0.111617,1166.165
69,0.113283,1165.494
70,0.11495,1165.643
71,0.116617,1165.643
72,0.118283,1165.718
73,0.11995,1166.09
74,0.121633,1166.239
75,0.123283,1166.239
76,0.12495,1165.271
77,0.126683,1164.898
78,0.128283,1164.526
79,0.12995,1164.526
80,0.131617,1165.271
81,0.133283,1165.345
82,0.13495,1163.781
83,0.136617,1163.781
84,0.138283,1163.632
85,0.139933,1163.334
86,0.1416,1163.334
87,0.143267,1166.463
88,0.144933,1167.357
89,0.1466,1167.953
90,0.148267,1167.953
91,0.149933,1169.071
92,0.1516,1168.847
93,0.153267,1169.741
94,0.154933,1169.741
95,0.1566,1168.475
96,0.158267,1166.612
97,0.15995,1161.769
98,0.1616,1161.769
99,0.163267,1161.099
100,0.164933,1163.259
101,0.166633,1166.314
102,0.168267,1166.314
103,0.169933,1169.294
104,0.1716,1169.965
105,0.173267,1169.965
106,0.174933,1168.4
107,0.1766,1167.208
108,0.178267,1166.388
109,0.179933,1166.388
110,0.1816,1168.326
111,0.183267,1170.859
112,0.184933,1169.741
113,0.1866,1169.741
114,0.188267,1171.008
115,0.189933,1169.965
116,0.1916,1166.761
117,0.193267,1166.761
118,0.194933,1167.655
119,0.1966,1168.326
120,0.198267,1168.326
121,0.199917,1166.537
122,0.201583,1168.773
123,0.20325,1169.369
124,0.204917,1169.369
125,0.206583,1166.761
126,0.20825,1166.239
127,0.209917,1163.408
128,0.211583,1163.408
129,0.21325,1160.875
130,0.214917,1165.122
131,0.216583,1168.4
132,0.218283,1168.4
133,0.219917,1172.2
134,0.221583,1172.721
135,0.22325,1172.721
136,0.224917,1169.294
137,0.226583,1168.475
138,0.22825,1166.984
139,0.229917,1166.984
140,0.231583,1167.208
141,0.23325,1169.22
142,0.23495,1166.91
143,0.236583,1166.91
144,0.23825,1165.345
145,0.239917,1167.133
146,0.241583,1165.271
147,0.24325,1165.271
148,0.244967,1166.165
149,0.246583,1168.847
150,0.24825,1166.835
151,0.249917,1166.835
152,0.251583,1171.008
153,0.25325,1173.988
154,0.254917,1173.988
155,0.256583,1174.51
156,0.25825,1176.596
157,0.259917,1176.894
158,0.261567,1176.894
159,0.263233,1178.309
160,0.2649,1180.396
161,0.266567,1185.462
162,0.268233,1185.462
163,0.2699,1194.85
164,0.271567,1208.708
165,0.273233,1224.652
166,0.2749,1224.652
167,0.276567,1243.427
168,0.278333,1264.587
169,0.2799,1264.587
170,0.281567,1284.629
171,0.283233,1313.016
172,0.2849,1344.085
173,0.286567,1344.085
174,0.288233,1374.93
175,0.2899,1412.109
176,0.291567,1449.883
177,0.293233,1449.883
178,0.2949,1494.81
179,0.296567,1545.027
180,0.298233,1600.236
181,0.2999,1600.236
182,0.301567,1659.84
183,0.303233,1725.107
184,0.3049,1795.068
185,0.306583,1795.068
186,0.308233,1870.692
187,0.3099,1950.711
188,0.311567,1950.711
189,0.313233,2034.903
190,0.3149,2128.854
191,0.316567,2230.182
192,0.318233,2230.182
193,0.319883,2341.718
194,0.32155,2461.299
195,0.323217,2587.81
196,0.324883,2587.81
197,0.32655,2727.881
198,0.328217,2887.249
199,0.329883,3070.757
200,0.331567,3070.757
201,0.333217,3287.643
202,0.334883,3546.253
203,0.33655,3546.253
204,0.338217,3857.985
205,0.339883,4229.322
206,0.34155,4665.554
207,0.343217,4665.554
208,0.344883,5164.668
209,0.34655,5710.572
210,0.348217,6281.584
211,0.349883,6281.584
212,0.35155,6847.903
213,0.353217,7372.126
214,0.354883,7826.239
215,0.35655,7826.239
216,0.358217,8186.102
217,0.359883,8432.790999999999
218,0.36155,8564.517
219,0.36325,8564.517
220,0.364883,8576.065000000001
221,0.36655,8482.486000000001
222,0.368217,8482.486000000001
223,0.369883,8298.084000000001
224,0.37155,8036.122
225,0.373217,7721.707
226,0.374883,7721.707
227,0.37655,7360.28
228,0.37825,6974.265
229,0.379967,6576.627
230,0.381517,6576.627
231,0.383183,6177.798
232,0.38485,5793.87
233,0.386517,5424.991
234,0.388183,5424.991
235,0.38985,5076.453
236,0.391517,4747.808
237,0.393183,4747.808
238,0.39485,4440.397
239,0.3966,4157.573
240,0.398183,3901.273
241,0.39985,3901.273
242,0.401517,3667.176
243,0.403183,3454.536
244,0.40485,3260.821
245,0.406517,3260.821
246,0.408183,3083.348
247,0.40985,2923.161
248,0.411517,2778.62
249,0.413183,2778.62
250,0.41485,2649.277
251,0.416517,2532.154
252,0.418183,2532.154
253,0.41985,2423.897
254,0.421517,2329.126
255,0.423183,2241.88
256,0.42485,2241.88
257,0.426517,2163.276
258,0.428183,2096.444
259,0.42985,2036.169
260,0.431517,2036.169
261,0.433183,1979.098
262,0.43485,1926.646
263,0.436517,1874.566
264,0.438183,1874.566
265,0.439833,1824.051
266,0.4415,1781.732
267,0.443167,1745
268,0.444833,1745
269,0.4465,1712.74
270,0.448167,1685.694
271,0.4499,1685.694
272,0.4515,1658.052
273,0.453167,1630.709
274,0.454833,1606.941
275,0.4565,1606.941
276,0.458167,1581.907
277,0.459833,1559.63
278,0.4615,1538.172
279,0.463167,1538.172
280,0.464833,1517.534
281,0.4665,1501.292
282,0.468167,1485.869
283,0.469833,1485.869
284,0.4715,1473.65
285,0.473167,1461.506
286,0.474833,1461.506
287,0.4765,1447.499
288,0.478167,1433.939
289,0.479833,1419.634
290,0.481517,1419.634
291,0.483167,1410.171
292,0.484833,1400.188
293,0.4865,1393.408
294,0.488167,1393.408
295,0.489833,1387.671
296,0.4915,1378.804
297,0.493167,1374.111
298,0.494833,1374.111
299,0.4965,1364.723
300,0.498267,1356.155
301,0.499817,1350.641
302,0.501483,1350.641
303,0.50315,1341.403
304,0.504817,1334.921
305,0.5065,1334.921
306,0.50815,1328.438
307,0.509817,1322.776
308,0.511483,1318.678
309,0.51315,1318.678
310,0.514817,1314.878
311,0.516483,1308.545
312,0.51815,1302.361
313,0.519817,1302.361
314,0.521483,1297.817
315,0.523183,1293.793
316,0.524833,1293.048
317,0.526483,1293.048
318,0.52815,1288.056
319,0.529817,1282.692
320,0.531483,1282.692
321,0.53315,1278.296
322,0.534817,1275.018
323,0.536483,1273.453
324,0.53815,1273.453
325,0.539817,1273.751
326,0.541483,1272.038
327,0.54315,1269.579
328,0.544817,1269.579
329,0.5464830000000001,1268.834
330,0.54815,1266.673
331,0.549817,1265.183
332,0.5514829999999999,1265.183
333,0.55315,1262.128
334,0.554817,1259.297
335,0.5564829999999999,1259.297
336,0.55815,1257.211
337,0.5598,1255.348
338,0.561467,1251.847
339,0.563133,1251.847
340,0.5648,1248.27
341,0.5664670000000001,1241.863
342,0.568133,1238.436
343,0.5698,1238.436
344,0.5714669999999999,1238.51
345,0.573133,1236.647
346,0.5748,1237.02
347,0.576467,1237.02
348,0.578133,1232.848
349,0.5798,1231.506
350,0.581467,1229.048
351,0.583133,1229.048
352,0.5848,1226.142
353,0.586467,1229.42
354,0.588133,1229.42
355,0.5898,1228.303
356,0.5915,1228.154
357,0.593133,1228.228
358,0.59485,1228.228
359,0.596467,1224.205
360,0.598133,1219.064
361,0.5998,1216.531
362,0.601467,1216.531
363,0.603133,1214.966
364,0.6048,1213.104
365,0.606467,1217.276
366,0.608133,1217.276
367,0.6098,1219.884
368,0.611467,1219.884
369,0.613133,1219.884
370,0.6148,1220.629
371,0.616517,1215.413
372,0.618133,1213.104
373,0.619783,1213.104
374,0.6214499999999999,1210.719
375,0.623117,1211.092
376,0.624783,1213.029
377,0.62645,1213.029
378,0.628117,1210.496
379,0.629783,1209.825
380,0.63145,1206.323
381,0.6331830000000001,1206.323
382,0.634783,1204.982
383,0.63645,1204.088
384,0.638117,1206.994
385,0.639783,1206.994
386,0.64145,1208.41
387,0.643117,1209.825
388,0.644783,1209.825
389,0.64645,1210.57
390,0.6481170000000001,1208.335
391,0.649833,1209.006
392,0.65145,1209.006
393,0.6531169999999999,1205.355
394,0.654783,1203.492
395,0.65645,1202.375
396,0.658117,1202.375
397,0.659783,1202.896
398,0.66145,1206.026
399,0.663117,1207.739
400,0.664783,1207.739
401,0.66645,1206.994
402,0.668117,1201.034
403,0.669783,1201.034
404,0.671467,1199.096
405,0.6731,1198.351
406,0.674767,1198.277
407,0.676433,1198.277
408,0.6781,1198.053
409,0.67975,1193.956
410,0.681433,1194.999
411,0.683083,1194.999
412,0.68475,1194.179
413,0.6864170000000001,1193.807
414,0.688083,1195.595
415,0.689767,1195.595
416,0.69145,1191.05
417,0.693083,1188.666
418,0.69475,1189.113
419,0.696417,1189.113
420,0.698083,1186.877
421,0.69975,1186.058
422,0.701417,1186.058
423,0.703083,1188.293
424,0.70475,1190.752
425,0.706417,1192.54
426,0.708083,1192.54
427,0.70975,1196.265
428,0.711417,1195.222
429,0.713083,1194.701
430,0.71475,1194.701
431,0.716417,1195.744
432,0.71815,1192.614
433,0.71975,1191.348
434,0.721417,1191.348
435,0.723083,1190.901
436,0.72475,1191.124
437,0.726417,1191.124
438,0.728083,1193.434
439,0.72975,1193.136
440,0.731417,1191.497
441,0.733083,1191.497
442,0.7348,1188.144
443,0.736417,1186.356
444,0.738083,1188.666
445,0.739733,1188.666
446,0.7413999999999999,1191.869
447,0.7431,1196.563
448,0.744733,1199.916
449,0.7464,1199.916
450,0.748067,1201.183
451,0.749733,1197.904
452,0.751467,1194.701
453,0.753067,1194.701
454,0.754733,1189.038
455,0.7564,1187.995
456,0.758067,1187.995
457,0.759733,1189.038
458,0.7614,1190.156
459,0.7630670000000001,1193.21
460,0.764733,1193.21
461,0.7664,1192.093
462,0.768167,1189.709
463,0.769733,1188.517
464,0.7714,1188.517
465,0.7730669999999999,1190.305
466,0.774733,1189.709
467,0.7764,1189.336
468,0.778067,1189.336
469,0.779733,1187.026
470,0.78145,1186.207
471,0.783067,1186.207
472,0.784733,1187.995
473,0.7864,1188.889
474,0.788067,1189.783
475,0.789733,1189.783
476,0.7914,1184.046
477,0.793067,1180.843
478,0.794733,1179.725
479,0.7964,1179.725
480,0.798067,1177.266
481,0.799717,1181.662
482,0.801383,1184.121
483,0.80305,1184.121
484,0.804717,1187.772
485,0.806383,1191.795
486,0.80805,1191.795
487,0.809717,1190.454
488,0.811383,1188.219
489,0.8130500000000001,1186.058
490,0.814733,1186.058
491,0.816383,1183.376
492,0.8180500000000001,1182.854
493,0.819717,1181.439
494,0.821383,1181.439
495,0.8230499999999999,1183.525
496,0.824717,1183.748
497,0.826383,1183.897
498,0.82805,1183.897
499,0.829717,1184.344
500,0.831383,1183.45
501,0.83305,1182.78
502,0.834717,1182.78
503,0.836383,1182.258
504,0.83805,1181.513
505,0.839717,1181.513
506,0.841383,1176.447
507,0.84305,1176.074
508,0.8447170000000001,1175.329
509,0.846383,1175.329
510,0.84805,1177.266
511,0.8497169999999999,1178.235
512,0.851383,1177.639
513,0.85305,1177.639
514,0.8547169999999999,1179.129
515,0.856383,1180.097
516,0.858033,1184.195
517,0.859733,1184.195
518,0.8614000000000001,1186.877
519,0.8630330000000001,1186.43
520,0.8647,1186.43
521,0.866367,1185.089
522,0.8680330000000001,1184.419
523,0.8697,1183.525
524,0.871367,1183.525
525,0.8730329999999999,1181.588
526,0.8747,1181.141
527,0.876367,1176.67
528,0.878033,1176.67
529,0.8797,1177.117
530,0.881367,1177.713
531,0.883033,1177.639
532,0.8847,1177.639
533,0.886483,1180.693
534,0.888033,1176.745
535,0.8897,1177.266
536,0.891367,1177.266
537,0.893083,1179.203
538,0.8947000000000001,1179.501
539,0.896367,1179.501
540,0.898033,1179.427
541,0.8997000000000001,1179.799
542,0.901367,1176.745
543,0.903033,1176.745
544,0.9046999999999999,1172.423
545,0.906367,1175.702
546,0.908033,1176.894
547,0.9097,1176.894
548,0.911367,1177.415
549,0.913033,1181.364
550,0.9147,1180.992
551,0.916367,1180.992
552,0.918017,1179.799
553,0.919683,1180.843
554,0.92135,1180.843
555,0.923017,1179.65
556,0.924683,1182.184
557,0.92635,1182.78
558,0.928017,1182.78
559,0.929683,1181.141
560,0.93135,1182.631
561,0.933017,1180.396
562,0.934683,1180.396
563,0.93635,1182.631
564,0.938017,1185.834
565,0.939683,1183.823
566,0.94135,1183.823
567,0.943017,1184.344
568,0.944717,1181.886
569,0.94635,1180.172
570,0.948017,1180.172
571,0.9496830000000001,1180.246
572,0.95135,1179.576
573,0.953017,1179.576
574,0.9546829999999999,1177.192
575,0.95635,1173.317
576,0.958017,1171.976
577,0.959717,1171.976
578,0.96135,1167.655
579,0.963,1169.294
580,0.9646670000000001,1171.529
581,0.966333,1171.529
582,0.968,1173.765
583,0.9696669999999999,1178.384
584,0.971383,1180.693
585,0.973,1180.693
586,0.974667,1180.172
587,0.976333,1180.172
588,0.978,1180.172
589,0.97965,1180.843
590,0.981317,1177.788
591,0.9829830000000001,1178.756
592,0.98465,1178.756
593,0.986317,1179.278
594,0.9879829999999999,1177.713
595,0.98965,1178.235
596,0.991317,1178.235
597,0.9929829999999999,1178.905
598,0.99465,1177.639
599,0.996317,1178.682
600,0.997983,1178.682
601,0.99965,1178.384
602,1.001317,1178.458
603,1.002983,1178.458
604,1.00475,1176.745
605,1.006317,1175.702
606,1.007983,1172.796
607,1.00965,1172.796
608,1.011317,1171.306
609,1.012983,1173.243
610,1.01465,1172.572
611,1.016317,1172.572
612,1.017983,1175.627
613,1.01965,1176.074
614,1.021317,1175.404
615,1.022983,1175.404
616,1.02465,1175.702
617,1.026317,1173.69
618,1.027983,1171.082
619,1.02965,1171.082
620,1.031317,1172.349
621,1.033,1173.765
622,1.03465,1173.765
623,1.036333,1176.074
624,1.037983,1179.278
625,1.03965,1180.321
626,1.0413,1180.321
627,1.042967,1177.713
628,1.044633,1176.968
629,1.0463,1175.702
630,1.047967,1175.702
631,1.049633,1172.2
632,1.0513,1172.945
633,1.052967,1173.913
634,1.054633,1173.913
635,1.0563,1173.765
636,1.057967,1174.659
637,1.059633,1174.659
638,1.0613,1173.019
639,1.062967,1169.592
640,1.064633,1170.486
641,1.0663,1170.486
642,1.067967,1171.902
643,1.069633,1171.604
644,1.0713,1171.604
645,1.072967,1171.604
646,1.074633,1169.816
647,1.0763,1167.208
648,1.077967,1168.102
649,1.079633,1168.102
650,1.0813,1171.753
651,1.082967,1173.466
652,1.084633,1174.063
653,1.0863,1174.063
654,1.087967,1175.404
655,1.0897,1175.255
656,1.0913,1175.255
657,1.092967,1173.541
658,1.094633,1173.541
659,1.0963,1173.913
660,1.097967,1173.913
661,1.09965,1172.945
662,1.10135,1172.051
663,1.103,1170.933
664,1.104617,1170.933
665,1.106283,1171.082
666,1.10795,1171.306
667,1.109617,1172.051
668,1.111283,1172.051
669,1.11295,1175.925
670,1.114617,1173.69
671,1.116283,1173.69
672,1.11795,1173.615
673,1.119617,1175.478
674,1.121283,1176.745
675,1.123067,1176.745
676,1.124617,1178.905
677,1.126283,1178.384
678,1.12795,1177.49
679,1.129617,1177.49
680,1.131283,1175.404
681,1.13295,1175.776
682,1.134617,1175.851
683,1.136283,1175.851
684,1.137967,1176.372
685,1.139617,1175.18
686,1.141283,1172.647
687,1.14295,1172.647
688,1.144617,1171.678
689,1.146283,1172.647
690,1.14795,1172.647
691,1.149617,1173.019
692,1.151283,1173.615
693,1.15295,1171.976
694,1.154617,1171.976
695,1.156283,1171.902
696,1.15795,1171.902
697,1.1596,1171.604
698,1.161267,1171.604
699,1.162933,1174.51
700,1.1646,1172.796
701,1.166267,1172.125
702,1.167933,1172.125
703,1.1696,1171.678
704,1.171267,1169.22
705,1.173,1169.22
706,1.1746,1168.102
707,1.176267,1168.549
708,1.177933,1167.655
709,1.1796,1167.655
710,1.181267,1168.326
711,1.182933,1167.357
712,1.184617,1165.047
713,1.186267,1165.047
714,1.187933,1166.016
715,1.1896,1167.953
716,1.191267,1170.412
717,1.192933,1170.412
718,1.1946,1172.647
719,1.196267,1173.913
720,1.197933,1173.913
721,1.1996,1175.329
722,1.201267,1176.223
723,1.202933,1176.447
724,1.2046,1176.447
725,1.206267,1176.372
726,1.207967,1172.87
727,1.2096,1171.902
728,1.211267,1171.902
729,1.212933,1169.816
730,1.2146,1172.125
731,1.216267,1173.466
732,1.217933,1173.466
733,1.219583,1172.2
734,1.22125,1174.733
735,1.222917,1172.2
736,1.22465,1172.2
737,1.22625,1173.094
738,1.227917,1177.117
739,1.229583,1177.117
740,1.23125,1179.576
741,1.232917,1181.737
742,1.234583,1179.129
743,1.23625,1179.129
744,1.237917,1174.882
745,1.239583,1171.231
746,1.24135,1169.592
747,1.242917,1169.592
748,1.244633,1170.635
749,1.24625,1170.412
750,1.247917,1168.549
751,1.249583,1168.549
752,1.25125,1169.22
753,1.252917,1168.847
754,1.254567,1168.847
755,1.256233,1172.423
756,1.2579,1172.125
757,1.259567,1170.784
758,1.261233,1170.784
759,1.2629,1171.38
760,1.264567,1168.549
761,1.266233,1171.604
762,1.2679,1171.604
763,1.269567,1170.859
764,1.271233,1172.87
765,1.272917,1172.051
766,1.274567,1172.051
767,1.276233,1170.188
768,1.2779,1172.87
769,1.279567,1172.572
770,1.281217,1172.572
771,1.282883,1175.255
772,1.28455,1178.235
773,1.286217,1178.235
774,1.287883,1176.745
775,1.28955,1175.478
776,1.291217,1173.988
777,1.292883,1173.988
778,1.29455,1173.765
779,1.296217,1174.435
780,1.297883,1172.87
781,1.29955,1172.87
782,1.301217,1171.455
783,1.302883,1169.518
784,1.30455,1166.91
785,1.306217,1166.91
786,1.307883,1169.592
787,1.30955,1172.349
788,1.311267,1172.349
789,1.3129,1171.306
790,1.31455,1172.721
791,1.316217,1173.019
792,1.317883,1173.019
793,1.31955,1173.243
794,1.321217,1174.212
795,1.322883,1173.615
796,1.32455,1173.615
797,1.326283,1171.604
798,1.327883,1171.008
799,1.32955,1169.816
800,1.331217,1169.816
801,1.332883,1169.071
802,1.33455,1170.412
803,1.336217,1170.412
804,1.337883,1172.349
805,1.339533,1175.627
806,1.3412,1179.129
807,1.342867,1179.129
808,1.344533,1178.16
809,1.3462,1173.615
810,1.347867,1169.518
811,1.349533,1169.518
812,1.3512,1166.537
813,1.352867,1164.153
814,1.354533,1166.761
815,1.3562,1166.761
816,1.357867,1169.741
817,1.359667,1170.114
818,1.3612,1173.541
819,1.362867,1173.541
820,1.364533,1171.529
821,1.3662,1172.051
822,1.367867,1172.051
823,1.369533,1171.902
824,1.3712,1169.518
825,1.372867,1169.741
826,1.374533,1169.741
827,1.376267,1170.114
828,1.377867,1171.529
829,1.379533,1174.36
830,1.3812,1174.36
831,1.382867,1175.106
832,1.384533,1170.933
833,1.3862,1171.976
834,1.387867,1171.976
835,1.389567,1172.125
836,1.3912,1171.827
837,1.392867,1171.827
838,1.394533,1175.925
839,1.3962,1175.627
840,1.39785,1174.733
841,1.399517,1174.733
842,1.401183,1176.596
843,1.40285,1175.18
844,1.404517,1174.957
845,1.406183,1174.957
846,1.40785,1174.286
847,1.409517,1172.423
848,1.411183,1172.349
849,1.41285,1172.349
850,1.414517,1169.071
851,1.416183,1166.835
852,1.41785,1165.792
853,1.419517,1165.792
854,1.421183,1167.804
855,1.42285,1171.976
856,1.424517,1171.976
857,1.426183,1173.466
858,1.42785,1175.18
859,1.429517,1175.776
860,1.431183,1175.776
861,1.43285,1175.553
862,1.43455,1175.031
863,1.436183,1174.957
864,1.43785,1174.957
865,1.439517,1170.859
866,1.441183,1170.114
867,1.44285,1170.263
868,1.444517,1170.263
869,1.446183,1169.145
870,1.44785,1169.518
871,1.449517,1169.518
872,1.451183,1167.953
873,1.45285,1169.667
874,1.454517,1171.231
875,1.456183,1171.231
876,1.457833,1170.859
877,1.4595,1170.635
878,1.461267,1170.635
879,1.462833,1170.635
880,1.4645,1168.027
881,1.466167,1170.263
882,1.467833,1169.518
883,1.4695,1169.518
884,1.471167,1167.655
885,1.472833,1171.827
886,1.4745,1173.243
887,1.476167,1173.243
888,1.47785,1177.117
889,1.4795,1177.266
890,1.481167,1177.266
891,1.482833,1175.106
892,1.4845,1172.945
893,1.486167,1168.549
894,1.487833,1168.549
895,1.4895,1166.537
896,1.491167,1168.102
897,1.492833,1170.71
898,1.494617,1170.71
899,1.496167,1171.604
900,1.497833,1174.584
901,1.4995,1171.753
902,1.501167,1171.753
903,1.502833,1169.369
904,1.5045,1170.71
905,1.506167,1170.71
906,1.507833,1168.027
907,1.5095,1170.561
908,1.511167,1170.412
909,1.512833,1170.412
910,1.5145,1171.231
911,1.516167,1174.063
912,1.517817,1175.329
913,1.519483,1175.329
914,1.52115,1173.839
915,1.522817,1173.839
916,1.5245,1172.349
917,1.5262,1172.349
918,1.527817,1169.89
