"ID","sea_time","fid_signal"
1,0,1167.208
2,0.001667,1168.624
3,0.003417,1171.157
4,0.005,1171.455
5,0.006667,1171.455
6,0.008333,1167.804
7,0.01,1166.537
8,0.011667,1164.451
9,0.01335,1164.451
10,0.015,1161.695
11,0.016667,1162.887
12,0.018333,1163.483
13,0.020067,1163.483
14,0.021667,1166.388
15,0.023333,1168.773
16,0.025,1168.773
17,0.026667,1169.294
18,0.028333,1169.071
19,0.03,1168.773
20,0.031667,1168.773
21,0.033333,1166.91
22,0.035,1166.761
23,0.036767,1169.816
24,0.038333,1169.816
25,0.04,1170.114
26,0.041667,1172.498
27,0.043333,1171.082
28,0.045,1171.082
29,0.046667,1167.506
30,0.048333,1166.314
31,0.05,1166.835
32,0.051667,1166.835
33,0.053333,1169.22
34,0.055,1168.326
35,0.056667,1168.326
36,0.058367,1169.071
37,0.059983,1168.922
38,0.06165,1169.443
39,0.063317,1169.443
40,0.064983,1172.498
41,0.06665,1171.306
42,0.068317,1170.263
43,0.069983,1170.263
44,0.07165000000000001,1168.326
45,0.07331699999999999,1166.314
46,0.07498299999999999,1165.718
47,0.07665,1165.718
48,0.078317,1166.835
49,0.079983,1167.58
50,0.08165,1167.58
51,0.083317,1168.624
52,0.084983,1167.208
53,0.08665,1166.314
54,0.08831700000000001,1166.314
55,0.08998299999999999,1166.314
56,0.09165,1165.494
57,0.093317,1166.612
58,0.094983,1166.612
59,0.096667,1167.282
60,0.098317,1168.773
61,0.099983,1169.071
62,0.10165,1169.071
63,0.103317,1170.784
64,0.104983,1169.741
65,0.10665,1169.22
66,0.108317,1169.22
67,0.109983,1171.157
68,0.11165,1168.549
69,0.113317,1168.549
70,0.114983,1167.432
71,0.11665,1164.302
72,0.1183,1162.067
73,0.119967,1162.067
74,0.1217,1163.185
75,0.1233,1163.483
76,0.124967,1167.208
77,0.126633,1167.208
78,0.128317,1167.059
79,0.129967,1166.612
80,0.131633,1169.741
81,0.1333,1169.741
82,0.134967,1171.529
83,0.136633,1174.435
84,0.138333,1174.435
85,0.139967,1176.819
86,0.141633,1174.137
87,0.1433,1169.294
88,0.144967,1169.294
89,0.146633,1167.133
90,0.1483,1165.345
91,0.149967,1165.122
92,0.151633,1165.122
93,0.1533,1165.569
94,0.155067,1165.271
95,0.156633,1165.42
96,0.1583,1165.42
97,0.159967,1166.165
98,0.161633,1166.91
99,0.1633,1168.996
100,0.164967,1168.996
101,0.166633,1167.953
102,0.1683,1166.537
103,0.169967,1166.537
104,0.171633,1165.718
105,0.1733,1165.569
106,0.174967,1165.867
107,0.176617,1165.867
108,0.178283,1164.377
109,0.17995,1164.973
110,0.181617,1164.824
111,0.183283,1164.824
112,0.18495,1167.655
113,0.186617,1170.784
114,0.188283,1170.188
115,0.189967,1170.188
116,0.191617,1170.337
117,0.193283,1168.326
118,0.19495,1168.326
119,0.196617,1166.984
120,0.198283,1169.518
121,0.19995,1167.804
122,0.201617,1167.804
123,0.2033,1167.133
124,0.20495,1167.953
125,0.206617,1165.345
126,0.208283,1165.345
127,0.20995,1161.695
128,0.211617,1158.863
129,0.213283,1157.746
130,0.21495,1157.746
131,0.216617,1157.522
132,0.218283,1161.844
133,0.21995,1165.42
134,0.221617,1165.42
135,0.223283,1166.984
136,0.22495,1167.506
137,0.226617,1167.506
138,0.228283,1166.91
139,0.22995,1167.357
140,0.231617,1167.208
141,0.233283,1167.208
142,0.23495,1168.624
143,0.2366,1167.58
144,0.238267,1165.867
145,0.240017,1165.867
146,0.241583,1165.047
147,0.24325,1164.973
148,0.244917,1164.228
149,0.246583,1164.228
150,0.24825,1164.898
151,0.249917,1164.004
152,0.251583,1164.004
153,0.25325,1166.016
154,0.254917,1170.263
155,0.256583,1172.498
156,0.25825,1172.498
157,0.259917,1175.18
158,0.261583,1175.553
159,0.26325,1176
160,0.264917,1176
161,0.266583,1177.415
162,0.26825,1177.266
163,0.269917,1180.843
164,0.271583,1180.843
165,0.273317,1186.729
166,0.274917,1193.583
167,0.276583,1193.583
168,0.278267,1204.163
169,0.279917,1212.656
170,0.281583,1225.248
171,0.28325,1225.248
172,0.284917,1238.808
173,0.286583,1255.572
174,0.28825,1270.324
175,0.289917,1270.324
176,0.291583,1285.672
177,0.29325,1305.416
178,0.294917,1324.192
179,0.296583,1324.192
180,0.298233,1350.045
181,0.2999,1379.251
182,0.301567,1406.893
183,0.303233,1406.893
184,0.3049,1438.782
185,0.306567,1474.842
186,0.308233,1474.842
187,0.3099,1510.754
188,0.311567,1549.944
189,0.313233,1593.754
190,0.3149,1593.754
191,0.316567,1635.104
192,0.318233,1684.278
193,0.3199,1739.04
194,0.321567,1739.04
195,0.323233,1795.664
196,0.3249,1856.312
197,0.326567,1916.811
198,0.328233,1916.811
199,0.3299,1983.941
200,0.331567,2056.956
201,0.333233,2056.956
202,0.3349,2134.889
203,0.336567,2223.551
204,0.338233,2312.288
205,0.3399,2312.288
206,0.341567,2408.549
207,0.34325,2513.304
208,0.344917,2622.306
209,0.346567,2622.306
210,0.348233,2749.488
211,0.3499,2893.284
212,0.351567,3060.103
213,0.353233,3060.103
214,0.3549,3256.947
215,0.356567,3494.62
216,0.358233,3781.915
217,0.359883,3781.915
218,0.36155,4132.167
219,0.363217,4553.199
220,0.3649,4553.199
221,0.36655,5040.094
222,0.368217,5591.884
223,0.369883,6195.158
224,0.37155,6195.158
225,0.373217,6830.32
226,0.374883,7478.818
227,0.37655,8112.341
228,0.378217,8112.341
229,0.379883,8708.983
230,0.38155,9242.967000000001
231,0.383217,9694.472
232,0.384883,9694.472
233,0.38655,10051.578
234,0.388217,10308.475
235,0.389883,10308.475
236,0.391667,10464.117
237,0.393217,10526.181
238,0.394883,10499.582
239,0.39655,10499.582
240,0.398217,10388.419
241,0.399883,10208.189
242,0.40155,9969.174999999999
243,0.403217,9969.174999999999
244,0.404883,9687.17
245,0.40655,9376.406000000001
246,0.408217,9043.737999999999
247,0.409883,9043.737999999999
248,0.41155,8698.031000000001
249,0.413217,8345.619000000001
250,0.414883,8345.619000000001
251,0.41655,7993.579
252,0.4182,7644.221
253,0.419883,7303.953
254,0.421583,7303.953
255,0.423267,6974.936
256,0.424867,6657.839
257,0.426533,6360.188
258,0.4282,6360.188
259,0.429867,6076.321
260,0.431533,5804.822
261,0.4332,5550.534
262,0.434867,5550.534
263,0.436533,5305.633
264,0.4382,5078.465
265,0.439867,4868.582
266,0.441533,4868.582
267,0.4432,4665.926
268,0.444867,4478.395
269,0.446533,4478.395
270,0.4482,4301.295
271,0.449867,4135.221
272,0.451533,3979.653
273,0.4532,3979.653
274,0.454867,3832.653
275,0.456533,3694.743
276,0.4582,3564.581
277,0.459867,3564.581
278,0.461533,3445.074
279,0.4632,3333.688
280,0.464867,3225.952
281,0.466533,3225.952
282,0.4682,3128.126
283,0.469867,3033.653
284,0.471533,3033.653
285,0.4732,2947.226
286,0.474867,2866.238
287,0.4766,2784.655
288,0.478183,2784.655
289,0.47985,2711.49
290,0.481517,2643.019
291,0.483183,2576.262
292,0.48485,2576.262
293,0.486567,2515.838
294,0.488183,2458.394
295,0.48985,2401.024
296,0.491517,2401.024
297,0.4932,2348.646
298,0.49485,2298.43
299,0.496517,2249.852
300,0.498183,2249.852
301,0.49985,2206.117
302,0.501517,2167.821
303,0.503183,2167.821
304,0.50485,2127.364
305,0.506517,2088.547
306,0.5081830000000001,2051.368
307,0.5099669999999999,2051.368
308,0.511517,2011.955
309,0.5131829999999999,1981.109
310,0.51485,1949.146
311,0.516517,1949.146
312,0.5181829999999999,1916.885
313,0.51985,1888.052
314,0.521517,1859.218
315,0.523183,1859.218
316,0.52485,1835.227
317,0.526517,1812.652
318,0.528183,1812.652
319,0.52985,1791.343
320,0.5315,1767.948
321,0.5331669999999999,1745.522
322,0.534833,1745.522
323,0.5365,1724.288
324,0.53815,1702.83
325,0.539833,1683.757
326,0.541483,1683.757
327,0.54315,1663.417
328,0.544817,1644.567
329,0.5464830000000001,1628.622
330,0.54815,1628.622
331,0.549817,1613.572
332,0.5514829999999999,1601.428
333,0.55315,1588.613
334,0.554817,1588.613
335,0.556517,1574.233
336,0.55815,1561.642
337,0.559817,1561.642
338,0.561483,1545.995
339,0.56315,1530.871
340,0.564817,1518.428
341,0.566483,1518.428
342,0.56815,1503.602
343,0.569817,1492.798
344,0.571483,1485.05
345,0.57315,1485.05
346,0.574833,1475.438
347,0.576483,1466.274
348,0.5781500000000001,1456.365
349,0.579817,1456.365
350,0.581483,1446.754
351,0.5831499999999999,1437.813
352,0.584817,1437.813
353,0.586483,1432.225
354,0.58815,1427.68
355,0.589817,1420.677
356,0.591483,1420.677
357,0.59315,1413.822
358,0.5948329999999999,1407.117
359,0.596483,1396.537
360,0.598133,1396.537
361,0.5998,1388.49
362,0.601467,1378.879
363,0.603133,1369.864
364,0.6048,1369.864
365,0.606467,1364.276
366,0.608133,1358.092
367,0.6098,1358.092
368,0.611467,1355.857
369,0.613133,1349.3
370,0.6148,1343.414
371,0.616467,1343.414
372,0.618133,1339.167
373,0.6198,1332.462
374,0.621467,1327.991
375,0.623133,1327.991
376,0.6248,1326.874
377,0.626467,1325.682
378,0.62815,1321.658
379,0.6298,1321.658
380,0.631467,1318.902
381,0.6331329999999999,1311.675
382,0.6348,1303.554
383,0.636467,1303.554
384,0.638133,1300.722
385,0.6398,1299.903
386,0.641467,1299.903
387,0.643133,1299.828
388,0.6448,1298.338
389,0.646467,1294.538
390,0.648133,1294.538
391,0.6498,1289.323
392,0.651467,1285.002
393,0.653133,1282.021
394,0.6548,1282.021
395,0.656467,1279.414
396,0.658117,1275.241
397,0.659783,1272.187
398,0.66145,1272.187
399,0.663117,1269.951
400,0.664783,1266.748
401,0.66645,1266.748
402,0.668117,1263.991
403,0.669817,1261.234
404,0.67145,1258.18
405,0.673117,1258.18
406,0.674783,1255.944
407,0.67645,1256.168
408,0.678117,1254.752
409,0.679783,1254.752
410,0.68145,1251.176
411,0.683117,1248.419
412,0.684783,1246.333
413,0.68645,1246.333
414,0.688117,1241.416
415,0.689783,1238.883
416,0.69145,1237.392
417,0.693117,1237.392
418,0.694783,1234.263
419,0.69645,1232.624
420,0.698117,1232.624
421,0.699783,1231.953
422,0.701467,1228.973
423,0.703117,1225.919
424,0.704783,1225.919
425,0.70645,1228.079
426,0.708117,1226.589
427,0.7097830000000001,1226.813
428,0.71145,1226.813
429,0.713167,1225.173
430,0.714767,1222.64
431,0.716433,1221.374
432,0.7181,1221.374
433,0.719767,1221.523
434,0.721433,1221.672
435,0.7231,1221.672
436,0.7247670000000001,1220.331
437,0.726433,1218.692
438,0.7281,1217.425
439,0.729867,1217.425
440,0.731433,1217.276
441,0.7331,1214.221
442,0.7347669999999999,1211.837
443,0.736433,1211.837
444,0.7381,1208.708
445,0.739767,1207.441
446,0.741433,1206.249
447,0.7431,1206.249
448,0.744767,1205.727
449,0.74655,1207.143
450,0.7481,1203.716
451,0.749767,1203.716
452,0.751433,1203.939
453,0.7531,1205.504
454,0.754767,1205.504
455,0.756433,1206.92
456,0.7581,1206.771
457,0.759783,1208.41
458,0.761433,1208.41
459,0.7631,1206.696
460,0.764767,1205.28
461,0.766433,1207.739
462,0.7681,1207.739
463,0.769767,1206.473
464,0.771433,1204.535
465,0.7731,1201.853
466,0.774767,1201.853
467,0.776417,1202.449
468,0.778083,1203.492
469,0.7797500000000001,1203.492
470,0.781433,1207.814
471,0.783133,1207.59
472,0.7847499999999999,1201.257
473,0.786417,1201.257
474,0.788083,1196.563
475,0.78975,1193.136
476,0.791417,1191.944
477,0.793083,1191.944
478,0.79475,1194.775
479,0.796417,1196.265
480,0.798083,1195.595
481,0.79975,1195.595
482,0.801417,1195.893
483,0.803083,1196.414
484,0.80475,1193.881
485,0.8064170000000001,1193.881
486,0.808083,1191.497
487,0.80975,1189.411
488,0.8114170000000001,1189.411
489,0.813083,1186.505
490,0.81475,1188.368
491,0.8164169999999999,1187.846
492,0.818083,1187.846
493,0.81975,1187.176
494,0.821433,1187.399
495,0.823067,1186.803
496,0.824733,1186.803
497,0.8264,1187.399
498,0.828067,1186.729
499,0.8297330000000001,1188.144
500,0.8314,1188.144
501,0.833067,1186.356
502,0.8347329999999999,1186.729
503,0.8364,1186.729
504,0.83805,1186.132
505,0.839717,1182.631
506,0.8414,1184.866
507,0.843083,1184.866
508,0.8447170000000001,1182.78
509,0.8464,1183.972
510,0.848117,1184.866
511,0.8497169999999999,1184.866
512,0.851383,1182.333
513,0.85305,1182.407
514,0.8547169999999999,1181.96
515,0.856383,1181.96
516,0.85805,1181.29
517,0.859717,1183.748
518,0.861383,1183.748
519,0.86305,1183.748
520,0.8648,1181.96
521,0.866383,1179.65
522,0.86805,1179.65
523,0.869717,1175.925
524,0.871383,1179.129
525,0.87305,1180.768
526,0.874717,1180.768
527,0.876383,1184.121
528,0.87805,1184.642
529,0.879717,1185.015
530,0.8815,1185.015
531,0.88305,1186.952
532,0.884717,1185.462
533,0.886383,1183.301
534,0.88805,1183.301
535,0.889717,1176.67
536,0.891383,1172.721
537,0.89305,1172.721
538,0.894717,1171.678
539,0.896367,1173.541
540,0.898033,1177.341
541,0.8997000000000001,1177.341
542,0.901367,1178.384
543,0.903033,1179.352
544,0.9046999999999999,1176.968
545,0.906367,1176.968
546,0.908033,1175.627
547,0.9097,1176.745
548,0.911367,1179.799
549,0.913033,1179.799
550,0.9147,1183.897
551,0.916367,1183.674
552,0.918033,1183.674
553,0.9197,1183.525
554,0.921367,1181.29
555,0.923033,1181.439
556,0.9247,1181.439
557,0.9263670000000001,1181.364
558,0.928033,1179.278
559,0.9297,1178.458
560,0.9313669999999999,1178.458
561,0.933033,1173.541
562,0.9347,1172.572
563,0.9363669999999999,1173.839
564,0.938033,1173.839
565,0.9397,1173.69
566,0.941367,1179.129
567,0.943033,1180.992
568,0.9447,1180.992
569,0.946367,1178.384
570,0.948033,1178.086
571,0.9497,1178.086
572,0.951367,1177.639
573,0.953033,1176.447
574,0.9547,1177.49
575,0.956367,1177.49
576,0.958017,1176.298
577,0.959683,1172.87
578,0.96135,1173.615
579,0.963017,1173.615
580,0.964683,1175.031
581,0.9664,1177.043
582,0.968017,1178.533
583,0.969683,1178.533
584,0.97135,1179.427
585,0.973017,1179.203
586,0.974683,1179.203
587,0.9763500000000001,1178.533
588,0.978017,1178.682
589,0.979683,1179.948
590,0.9813499999999999,1179.948
591,0.983067,1176.67
592,0.984683,1176.894
593,0.986383,1177.043
594,0.9880330000000001,1177.043
595,0.989683,1174.957
596,0.99135,1176.596
597,0.993017,1177.266
598,0.994683,1177.266
599,0.996367,1176.074
600,0.998017,1175.329
601,0.9998,1176.521
602,1.00135,1176.521
603,1.003017,1174.137
604,1.004683,1176
605,1.00635,1176
606,1.008017,1176.596
607,1.009683,1174.212
608,1.01135,1172.945
609,1.013017,1172.945
610,1.014683,1171.306
611,1.01635,1170.412
612,1.018,1170.859
613,1.019667,1170.859
614,1.021333,1172.125
615,1.023,1172.498
616,1.024667,1170.784
617,1.026333,1170.784
618,1.028,1174.137
619,1.029667,1173.392
620,1.031333,1173.392
621,1.033,1170.784
622,1.034667,1170.412
623,1.036333,1168.326
624,1.038,1168.326
625,1.039667,1167.58
626,1.041333,1167.282
627,1.043,1168.177
628,1.044667,1168.177
629,1.046333,1166.761
630,1.048,1167.879
631,1.049667,1168.326
632,1.051333,1168.326
633,1.053,1169.145
634,1.054667,1168.251
635,1.056367,1169.741
636,1.058,1169.741
637,1.059667,1171.753
638,1.061333,1170.71
639,1.063,1170.71
640,1.064667,1173.615
641,1.066333,1173.019
642,1.068,1173.392
643,1.069667,1173.392
644,1.071333,1177.266
645,1.073,1177.341
646,1.074667,1175.478
647,1.076333,1175.478
648,1.077983,1171.753
649,1.07965,1167.133
650,1.081317,1165.122
651,1.082983,1165.122
652,1.08465,1167.208
653,1.086317,1168.847
654,1.087983,1168.847
655,1.08965,1168.773
656,1.091317,1170.784
657,1.092983,1171.529
658,1.09465,1171.529
659,1.096317,1173.243
660,1.097983,1177.341
661,1.09965,1178.384
662,1.101317,1178.384
663,1.102983,1175.851
664,1.10465,1175.776
665,1.106317,1174.957
666,1.107983,1174.957
667,1.10965,1174.36
668,1.111317,1175.776
669,1.112983,1175.776
670,1.114633,1177.266
671,1.1163,1176.372
672,1.118067,1174.51
673,1.119633,1174.51
674,1.1213,1175.404
675,1.122967,1173.541
676,1.124633,1173.466
677,1.1263,1173.466
678,1.127967,1175.627
679,1.129633,1174.063
680,1.1313,1174.51
681,1.132967,1174.51
682,1.134667,1177.117
683,1.1363,1176.521
684,1.13795,1179.65
685,1.139617,1179.65
686,1.141283,1180.246
687,1.14295,1178.533
688,1.144617,1178.533
689,1.146283,1179.278
690,1.14795,1177.788
691,1.149617,1175.776
692,1.151283,1175.776
693,1.15295,1173.69
694,1.154617,1171.455
695,1.156283,1170.71
696,1.15795,1170.71
697,1.159617,1169.667
698,1.161283,1169.741
699,1.16295,1171.231
700,1.164617,1171.231
701,1.166283,1170.486
702,1.16795,1173.019
703,1.169617,1173.019
704,1.1713,1176.223
705,1.17295,1175.329
706,1.174617,1172.945
707,1.176283,1172.945
708,1.17795,1170.337
709,1.179617,1165.792
710,1.181283,1164.526
711,1.18295,1164.526
712,1.184617,1168.773
713,1.186283,1169.294
714,1.18795,1172.945
715,1.189617,1172.945
716,1.191283,1175.106
717,1.19295,1173.69
718,1.194617,1173.69
719,1.196283,1174.435
720,1.197933,1175.031
721,1.1996,1174.063
722,1.201267,1174.063
723,1.203033,1171.827
724,1.204633,1171.753
725,1.206267,1169.518
726,1.207933,1169.518
727,1.2096,1170.337
728,1.211267,1169.443
729,1.212933,1168.698
730,1.2146,1168.698
731,1.216267,1168.698
732,1.217933,1166.835
733,1.2196,1167.953
734,1.221267,1167.953
735,1.222933,1170.263
736,1.2246,1171.529
737,1.226267,1171.529
738,1.227933,1173.466
739,1.2296,1174.882
740,1.231267,1174.733
741,1.232933,1174.733
742,1.2346,1171.902
743,1.236367,1169.741
744,1.237933,1167.282
745,1.2396,1167.282
746,1.241267,1165.047
747,1.242933,1164.451
748,1.2446,1164.675
749,1.246267,1164.675
750,1.247933,1166.016
751,1.2496,1168.4
752,1.251267,1168.4
753,1.252933,1171.678
754,1.2546,1170.784
755,1.25625,1170.039
756,1.257917,1170.039
757,1.259583,1167.879
758,1.26125,1168.698
759,1.262917,1170.114
760,1.264583,1170.114
761,1.26625,1173.988
762,1.267917,1173.69
763,1.269583,1170.337
764,1.27125,1170.337
765,1.272917,1167.879
766,1.274583,1166.537
767,1.27625,1168.102
768,1.277967,1168.102
769,1.279583,1169.741
770,1.28125,1173.094
771,1.282917,1173.094
772,1.284583,1173.541
773,1.28625,1174.882
774,1.287917,1175.925
775,1.289583,1175.925
776,1.291283,1173.839
777,1.292917,1173.69
778,1.294583,1171.976
779,1.29625,1171.976
780,1.297917,1168.251
781,1.299583,1170.337
782,1.30125,1168.698
783,1.302917,1168.698
784,1.304583,1169.518
785,1.30625,1168.996
786,1.307917,1168.996
787,1.309583,1166.165
788,1.31125,1165.345
789,1.312917,1164.526
790,1.314583,1164.526
791,1.316233,1169.22
792,1.3179,1170.859
793,1.319567,1172.498
794,1.321317,1172.498
795,1.3229,1173.466
796,1.324567,1170.114
797,1.326233,1172.2
798,1.3279,1172.2
799,1.329567,1174.584
800,1.331233,1174.212
801,1.3329,1174.807
802,1.334567,1174.807
803,1.336233,1170.263
804,1.3379,1167.655
805,1.339567,1167.655
806,1.341233,1165.42
807,1.3429,1167.357
808,1.344567,1169.965
809,1.346233,1169.965
810,1.3479,1169.145
811,1.349583,1169.816
812,1.351233,1166.537
813,1.3529,1166.537
814,1.354667,1169.294
815,1.356233,1169.294
816,1.3579,1169.816
817,1.359567,1169.816
818,1.361233,1169.89
819,1.3629,1168.177
820,1.364567,1168.177
821,1.366233,1169.965
822,1.3679,1171.529
823,1.369567,1172.051
824,1.371233,1172.051
825,1.3729,1171.157
826,1.374567,1171.976
827,1.376217,1173.019
828,1.377883,1173.019
829,1.37955,1173.839
830,1.381233,1174.733
831,1.382933,1171.157
832,1.38455,1171.157
833,1.386217,1169.22
834,1.387883,1170.263
835,1.38955,1168.624
836,1.391217,1168.624
837,1.392883,1171.678
838,1.39455,1173.765
839,1.396217,1173.765
840,1.397883,1173.317
841,1.399567,1175.031
842,1.401217,1172.423
843,1.402883,1172.423
844,1.40455,1168.251
845,1.4062,1167.58
846,1.407867,1165.345
847,1.409533,1165.345
848,1.4112,1165.867
849,1.412867,1167.729
850,1.41455,1165.941
851,1.416233,1165.941
852,1.417867,1165.047
853,1.419533,1164.6
854,1.4212,1164.6
855,1.422867,1164.004
856,1.424533,1169.741
857,1.4262,1172.2
858,1.427867,1172.2
859,1.429533,1170.561
860,1.4312,1168.177
861,1.432867,1163.11
862,1.434533,1163.11
863,1.4362,1164.228
864,1.43785,1166.165
865,1.4396,1167.059
866,1.441183,1167.059
867,1.44285,1167.804
868,1.444517,1165.122
869,1.446183,1165.122
870,1.44785,1165.345
871,1.449517,1165.792
872,1.451183,1167.58
873,1.45285,1167.58
874,1.454517,1167.655
875,1.45625,1168.251
876,1.45785,1169.145
877,1.459533,1169.145
878,1.461183,1167.804
879,1.46285,1167.953
880,1.464517,1166.388
881,1.466183,1166.388
882,1.46785,1166.761
883,1.469517,1168.027
884,1.471183,1169.667
885,1.47295,1169.667
886,1.474517,1171.902
887,1.476183,1174.733
888,1.47785,1174.733
889,1.479517,1172.796
890,1.481183,1173.392
891,1.48285,1172.572
892,1.484517,1172.572
893,1.486183,1168.102
894,1.48785,1169.816
895,1.489517,1167.506
896,1.491183,1167.506
897,1.49285,1166.835
898,1.494533,1167.879
899,1.496167,1166.239
900,1.497833,1166.239
901,1.4995,1169.369
902,1.501167,1171.38
903,1.502833,1171.38
904,1.5045,1172.647
905,1.506167,1175.404
906,1.507833,1173.168
907,1.5095,1173.168
908,1.511167,1174.51
909,1.512833,1175.031
910,1.5145,1171.753
911,1.516167,1171.753
912,1.517833,1171.827
913,1.5195,1169.145
914,1.521167,1167.357
915,1.522833,1167.357
916,1.5245,1169.22
917,1.526167,1168.698
918,1.527833,1168.549
