"ID","sea_time","fid_signal"
1,0,141.792
2,0.001667,141.792
3,0.003333,141.777
4,0.005,141.598
5,0.006667,141.621
6,0.008333,141.621
7,0.01,141.859
8,0.011717,141.695
9,0.013333,141.695
10,0.015033,141.501
11,0.016667,141.218
12,0.018333,141.151
13,0.02,141.151
14,0.021667,141.256
15,0.023333,141.226
16,0.025,141.285
17,0.026667,141.285
18,0.028333,141.144
19,0.029983,141.248
20,0.03165,141.65
21,0.033317,141.65
22,0.034983,141.621
23,0.03665,141.561
24,0.0384,141.755
25,0.039983,141.755
26,0.04165,141.434
27,0.043317,141.65
28,0.044983,141.65
29,0.04665,141.986
30,0.048317,141.911
31,0.049983,142.336
32,0.05165,142.336
33,0.053317,142.246
34,0.054983,142.246
35,0.05665,142.433
36,0.058317,142.433
37,0.059967,142.343
38,0.061633,142.373
39,0.0633,142.172
40,0.064967,142.172
41,0.066633,141.777
42,0.0683,141.636
43,0.069967,141.636
44,0.071717,141.792
45,0.0733,141.911
46,0.07496700000000001,142.179
47,0.07663300000000001,142.179
48,0.07829999999999999,142.217
49,0.079967,141.904
50,0.081633,141.673
51,0.0833,141.673
52,0.084967,141.442
53,0.086633,141.218
54,0.0883,141.189
55,0.09,141.189
56,0.091617,141.203
57,0.093283,141.159
58,0.09495000000000001,141.159
59,0.09661699999999999,141.375
60,0.098283,141.352
61,0.09995,141.509
62,0.101617,141.509
63,0.103283,141.509
64,0.10495,141.285
65,0.106617,141.583
66,0.108317,141.583
67,0.10995,141.412
68,0.111617,141.405
69,0.113283,141.352
70,0.11495,141.352
71,0.116617,140.965
72,0.118283,140.861
73,0.11995,140.734
74,0.121617,140.734
75,0.123283,140.764
76,0.12495,140.958
77,0.126617,140.958
78,0.128283,141.054
79,0.12995,141.27
80,0.131617,141.524
81,0.133283,141.524
82,0.13495,141.636
83,0.136617,141.777
84,0.138283,141.978
85,0.13995,141.978
86,0.141617,141.807
87,0.143283,141.881
88,0.14495,142.112
89,0.146617,142.112
90,0.148283,142.194
91,0.14995,142.291
92,0.1516,142.291
93,0.153267,142.224
94,0.15495,141.867
95,0.15665,141.487
96,0.158267,141.487
97,0.159933,141.315
98,0.1616,141.151
99,0.163267,141.114
100,0.164933,141.114
101,0.1666,141.293
102,0.168267,141.673
103,0.169933,142.083
104,0.1716,142.083
105,0.173267,142.336
106,0.174933,142.463
107,0.1766,142.03
108,0.178267,142.03
109,0.179933,141.777
110,0.1816,141.807
111,0.183267,141.807
112,0.184933,141.867
113,0.1866,141.971
114,0.188267,141.881
115,0.190017,141.881
116,0.191617,141.665
117,0.193267,141.375
118,0.194933,141.345
119,0.1966,141.345
120,0.198267,141.39
121,0.199933,141.434
122,0.2016,141.598
123,0.203267,141.598
124,0.204933,141.636
125,0.2066,141.539
126,0.208267,141.539
127,0.209933,141.703
128,0.211583,141.554
129,0.21325,141.524
130,0.214917,141.524
131,0.216583,141.516
132,0.21825,141.531
133,0.219917,141.36
134,0.221583,141.36
135,0.22325,141.613
136,0.224917,141.695
137,0.226583,141.717
138,0.228283,141.717
139,0.229917,142.09
140,0.231583,142.112
141,0.23325,141.926
142,0.234917,141.926
143,0.236583,141.852
144,0.23825,141.628
145,0.239917,141.628
146,0.241583,141.576
147,0.24325,141.911
148,0.244917,141.986
149,0.246583,141.986
150,0.24825,142.358
151,0.249917,142.552
152,0.251583,142.358
153,0.253267,142.358
154,0.254917,142.515
155,0.256583,142.314
156,0.25825,142.5
157,0.259917,142.5
158,0.261583,143.528
159,0.26325,144.683
160,0.264917,144.683
161,0.266583,146.672
162,0.26825,149.108
163,0.2699,152.037
164,0.2716,152.037
165,0.273233,155.978
166,0.2749,161.171
167,0.276567,167.921
168,0.278233,167.921
169,0.2799,176.251
170,0.281567,186.22
171,0.283233,197.85
172,0.2849,197.85
173,0.286567,211.082
174,0.288233,226.371
175,0.2899,226.371
176,0.291633,243.954
177,0.293233,263.818
178,0.2949,286.154
179,0.296567,286.154
180,0.298267,310.6
181,0.2999,337.593
182,0.301567,367.522
183,0.303233,367.522
184,0.3049,400.312
185,0.306567,436.693
186,0.3083,476.018
187,0.3099,476.018
188,0.311567,518.754
189,0.313233,565.477
190,0.3149,616.275
191,0.316567,616.275
192,0.318233,671.491
193,0.3199,731.498
194,0.321567,731.498
195,0.323233,796.288
196,0.325,866.525
197,0.326567,943.005
198,0.328233,943.005
199,0.3299,1026.72
200,0.33155,1119.427
201,0.333217,1222.499
202,0.334883,1222.499
203,0.33655,1338.631
204,0.338217,1469.374
205,0.339883,1616.247
206,0.34155,1616.247
207,0.343217,1779.787
208,0.344883,1958.4
209,0.34655,1958.4
210,0.348217,2148.718
211,0.349883,2344.832
212,0.351533,2539.404
213,0.3532,2539.404
214,0.354867,2723.508
215,0.356533,2888.434
216,0.3582,3026.508
217,0.359867,3026.508
218,0.361533,3131.464
219,0.363233,3199.98
220,0.364867,3230.482
221,0.366533,3230.482
222,0.3682,3224.611
223,0.369867,3184.959
224,0.371583,3115.527
225,0.3732,3115.527
226,0.374867,3021.672
227,0.376533,2907.857
228,0.3782,2907.857
229,0.379867,2779.961
230,0.381533,2642.661
231,0.3832,2500.057
232,0.384867,2500.057
233,0.386533,2356.261
234,0.3882,2213.657
235,0.389867,2074.696
236,0.391517,2074.696
237,0.393183,1941.04
238,0.39485,1813.777
239,0.396517,1694.016
240,0.398183,1694.016
241,0.39985,1581.393
242,0.401517,1476.534
243,0.403183,1476.534
244,0.40485,1378.775
245,0.406517,1288.168
246,0.408183,1204.9
247,0.409917,1204.9
248,0.411517,1128.025
249,0.413183,1057.632
250,0.41485,993.006
251,0.416517,993.006
252,0.418183,933.744
253,0.41985,879.452
254,0.421517,829.697
255,0.423183,829.697
256,0.42485,784.144
257,0.426567,742.234
258,0.4282,703.789
259,0.42985,703.789
260,0.431517,668.466
261,0.433183,635.944
262,0.43485,635.944
263,0.436517,606.097
264,0.438183,578.552
265,0.43985,553.101
266,0.441517,553.101
267,0.443283,529.446
268,0.44485,507.683
269,0.446517,487.551
270,0.448217,487.551
271,0.449867,469.305
272,0.4515,452.489
273,0.453167,436.544
274,0.454833,436.544
275,0.4565,421.934
276,0.458167,407.837
277,0.459833,407.837
278,0.4615,394.747
279,0.463167,382.759
280,0.464833,371.62
281,0.4665,371.62
282,0.468167,361.308
283,0.469833,351.608
284,0.4715,342.615
285,0.473167,342.615
286,0.474833,333.95
287,0.4765,326.015
288,0.478167,318.527
289,0.479833,318.527
290,0.4815,311.203
291,0.483167,304.58
292,0.484833,304.58
293,0.4865,298.023
294,0.488167,292.115
295,0.489833,286.482
296,0.4915,286.482
297,0.493167,281.14
298,0.494833,276.431
299,0.4965,271.901
300,0.498167,271.901
301,0.499833,267.774
302,0.5014999999999999,263.445
303,0.503167,259.362
304,0.504833,259.362
305,0.5065,255.16
306,0.508167,251.45
307,0.509833,247.94
308,0.511533,247.94
309,0.51315,244.245
310,0.514833,241.16
311,0.516533,241.16
312,0.51815,237.912
313,0.519817,235.021
314,0.521483,232.451
315,0.52315,232.451
316,0.524817,229.523
317,0.526483,226.915
318,0.5282,224.523
319,0.529817,224.523
320,0.531483,222.34
321,0.53315,220.463
322,0.534817,218.302
323,0.536483,218.302
324,0.53815,216.29
325,0.539817,214.1
326,0.541483,214.1
327,0.54315,211.932
328,0.5448499999999999,210.084
329,0.5464830000000001,208.333
330,0.54815,208.333
331,0.549817,206.53
332,0.5514829999999999,204.749
333,0.55315,203.244
334,0.554817,203.244
335,0.5564829999999999,201.657
336,0.55815,200.376
337,0.559817,198.953
338,0.5616,198.953
339,0.56315,197.649
340,0.564817,196.218
341,0.566483,195.004
342,0.56815,195.004
343,0.569817,194.021
344,0.5714669999999999,192.665
345,0.573133,192.665
346,0.5748,191.465
347,0.576467,190.228
348,0.578133,189.14
349,0.5798,189.14
350,0.581467,188.068
351,0.583133,187.293
352,0.5848,186.451
353,0.586467,186.451
354,0.588167,185.527
355,0.5898,184.923
356,0.591467,184.23
357,0.593133,184.23
358,0.5948,183.582
359,0.596467,182.852
360,0.598133,182.852
361,0.5998,181.98
362,0.601467,180.706
363,0.603133,179.581
364,0.6048,179.581
365,0.6065,178.546
366,0.608133,177.592
367,0.6098,177.182
368,0.611467,177.182
369,0.613133,176.638
370,0.6148,176.273
371,0.616467,175.811
372,0.618133,175.811
373,0.6198,175.171
374,0.621467,174.403
375,0.623133,173.688
376,0.6248,173.688
377,0.626467,172.995
378,0.6281330000000001,172.608
379,0.6298,172.608
380,0.63145,172.183
381,0.633117,171.497
382,0.634783,171.185
383,0.63645,171.185
384,0.638117,170.678
385,0.639783,170.082
386,0.641433,169.821
387,0.6431,169.821
388,0.644767,169.463
389,0.6465,168.741
390,0.6481,168.473
391,0.649767,168.473
392,0.651433,168.137
393,0.6531,167.608
394,0.654767,167.608
395,0.656467,167.407
396,0.6581,166.975
397,0.659767,166.349
398,0.661433,166.349
399,0.6631,166.178
400,0.664767,165.813
401,0.6664330000000001,165.537
402,0.6681,165.537
403,0.669767,165.559
404,0.6714329999999999,164.911
405,0.6731,164.501
406,0.674767,164.501
407,0.676433,164.077
408,0.6781,163.496
409,0.679817,163.421
410,0.681433,163.421
411,0.6831,163.108
412,0.684767,162.795
413,0.686433,162.795
414,0.6881,162.803
415,0.689767,162.505
416,0.6914169999999999,162.356
417,0.693083,162.356
418,0.69475,162.251
419,0.696433,161.812
420,0.698117,161.305
421,0.69975,161.305
422,0.701417,160.91
423,0.703083,160.366
424,0.70475,159.875
425,0.706417,159.875
426,0.708083,159.763
427,0.70975,159.666
428,0.711417,159.666
429,0.713083,159.48
430,0.71475,159.249
431,0.716417,159.1
432,0.718083,159.1
433,0.71975,158.951
434,0.721417,159.204
435,0.723083,159.167
436,0.72475,159.167
437,0.726417,158.958
438,0.728083,158.653
439,0.7297670000000001,157.9
440,0.731417,157.9
441,0.733083,157.744
442,0.73475,157.543
443,0.736417,157.543
444,0.738083,157.364
445,0.73975,157.706
446,0.741417,157.818
447,0.743083,157.818
448,0.74475,157.595
449,0.746417,157.446
450,0.7480830000000001,156.872
451,0.74975,156.872
452,0.7514,156.485
453,0.753067,156.619
454,0.754733,156.499
455,0.7564,156.499
456,0.758067,156.336
457,0.759733,156.224
458,0.7614,155.933
459,0.7630670000000001,155.933
460,0.7648,156
461,0.7664,156.09
462,0.7680670000000001,156.09
463,0.769733,155.844
464,0.7714,155.732
465,0.7730669999999999,155.278
466,0.774733,155.278
467,0.776417,155.032
468,0.778067,154.898
469,0.779733,154.451
470,0.7814,154.451
471,0.783067,154.041
472,0.784733,153.713
473,0.7864,153.817
474,0.788067,153.817
475,0.789733,153.922
476,0.7914,154.056
477,0.793067,154.056
478,0.794733,153.929
479,0.7964,153.4
480,0.798183,153.035
481,0.799733,153.035
482,0.8014,152.856
483,0.803067,152.983
484,0.804733,152.901
485,0.8064,152.901
486,0.808067,153.139
487,0.809767,153.013
488,0.811383,152.834
489,0.8130500000000001,152.834
490,0.814717,153.117
491,0.816383,152.767
492,0.8180500000000001,152.677
493,0.819717,152.677
494,0.821383,152.506
495,0.8230499999999999,152.096
496,0.824717,152.096
497,0.826383,151.955
498,0.82805,151.992
499,0.829717,151.947
500,0.8314,151.947
501,0.83305,151.798
502,0.834717,151.888
503,0.836383,151.664
504,0.83805,151.664
505,0.839717,151.53
506,0.841383,151.373
507,0.84305,151.008
508,0.8447170000000001,151.008
509,0.846383,150.949
510,0.84805,151.001
511,0.8497169999999999,151.001
512,0.851383,150.941
513,0.85305,151.083
514,0.8547169999999999,150.971
515,0.856383,150.971
516,0.858067,150.815
517,0.859717,150.852
518,0.861383,150.785
519,0.86305,150.785
520,0.864717,150.956
521,0.866383,150.859
522,0.86805,150.651
523,0.869717,150.651
524,0.871367,150.599
525,0.873067,150.36
526,0.8747,150.36
527,0.876367,150.606
528,0.878033,150.755
529,0.8797,150.591
530,0.881367,150.591
531,0.883117,150.621
532,0.8847,150.174
533,0.886367,150.055
534,0.888033,150.055
535,0.8897,150.003
536,0.891367,149.928
537,0.893033,149.965
538,0.8947000000000001,149.965
539,0.896367,149.712
540,0.898033,149.451
541,0.899783,149.094
542,0.901367,149.094
543,0.903033,148.892
544,0.9046999999999999,149.079
545,0.906367,149.079
546,0.908033,149.205
547,0.9097,149.57
548,0.911367,149.772
549,0.913033,149.772
550,0.9147,149.831
551,0.916467,149.779
552,0.918033,149.474
553,0.9197,149.474
554,0.921367,149.272
555,0.923033,149.071
556,0.9247,148.959
557,0.9263670000000001,148.959
558,0.928033,148.833
559,0.9297,148.751
560,0.9313669999999999,148.751
561,0.9330000000000001,148.84
562,0.934667,149.012
563,0.936333,149.123
564,0.9379999999999999,149.123
565,0.939667,149.101
566,0.941333,148.9
567,0.9429999999999999,148.848
568,0.944667,148.848
569,0.946333,148.937
570,0.948033,149.205
571,0.94975,149.25
572,0.951333,149.25
573,0.953,148.952
574,0.954667,148.669
575,0.956333,148.222
576,0.958,148.222
577,0.959667,147.827
578,0.961333,147.961
579,0.963,147.961
580,0.9646670000000001,147.961
581,0.966333,147.931
582,0.968,148.371
583,0.9696669999999999,148.371
584,0.971333,148.535
585,0.973,148.542
586,0.974667,148.818
587,0.976333,148.818
588,0.978,148.393
589,0.979667,147.745
590,0.981333,147.738
591,0.983,147.738
592,0.984667,147.574
593,0.986333,147.551
594,0.988,147.551
595,0.989667,147.931
596,0.991317,147.574
597,0.9929829999999999,147.231
598,0.99465,147.231
599,0.996317,147.402
600,0.997983,147.372
601,0.99965,147.715
602,1.001383,147.715
603,1.002983,147.782
604,1.00465,147.372
605,1.006333,147.112
606,1.007983,147.112
607,1.00965,147.03
608,1.011317,147.052
609,1.012983,147.216
610,1.01465,147.216
611,1.016317,147.402
612,1.018067,147.335
613,1.01965,147.335
614,1.021317,147.156
615,1.023017,147.417
616,1.02465,147.186
617,1.026317,147.186
618,1.027983,146.955
619,1.02965,147.32
620,1.031317,147.343
621,1.032983,147.343
622,1.03475,147.209
623,1.036317,147.343
624,1.037983,147.283
625,1.03965,147.283
626,1.041317,147.186
627,1.042983,147.291
628,1.04465,147.291
629,1.046317,147.127
630,1.047983,146.531
631,1.04965,146.061
632,1.0513,146.061
633,1.052967,146.203
634,1.054633,146.344
635,1.0563,146.851
636,1.057967,146.851
637,1.059633,147.186
638,1.0613,147.022
639,1.062967,147.06
640,1.064633,147.06
641,1.0663,146.724
642,1.067967,146.59
643,1.069633,146.59
644,1.0713,146.642
645,1.072967,146.344
646,1.074633,146.754
647,1.0763,146.754
648,1.077967,146.747
649,1.079633,146.605
650,1.0813,146.903
651,1.082967,146.903
652,1.084633,146.538
653,1.086333,146.538
654,1.087967,146.344
655,1.089633,146.344
656,1.0913,145.882
657,1.092967,146.098
658,1.094633,146.262
659,1.0963,146.262
660,1.097967,146.456
661,1.099633,146.866
662,1.1013,146.866
663,1.102967,146.322
664,1.104633,145.92
665,1.106317,146.076
666,1.107967,146.076
667,1.109633,145.912
668,1.111283,146.091
669,1.11295,145.979
670,1.114617,145.979
671,1.116283,145.48
672,1.11795,145.368
673,1.119667,145.525
674,1.121283,145.525
675,1.12295,145.577
676,1.124617,146.039
677,1.126283,146.039
678,1.12795,146.195
679,1.129617,146.165
680,1.131283,146.307
681,1.13295,146.307
682,1.134617,146.277
683,1.136333,146.188
684,1.13795,146.3
685,1.139617,146.3
686,1.141283,146.061
687,1.14295,145.935
688,1.144617,145.875
689,1.146283,145.875
690,1.14795,145.562
691,1.149617,145.555
692,1.151283,145.487
693,1.15305,145.487
694,1.154617,145.622
695,1.156283,145.741
696,1.15795,145.741
697,1.159617,145.994
698,1.1613,146.024
699,1.16295,145.987
700,1.164617,145.987
701,1.166283,146.173
702,1.16795,146.292
703,1.169617,146.352
704,1.171267,146.352
705,1.172933,146.084
706,1.1746,145.8
707,1.176267,145.413
708,1.177933,145.413
709,1.1796,145.346
710,1.181267,145.264
711,1.182933,145.264
712,1.1846,145.011
713,1.186267,145.063
714,1.187933,145.122
715,1.1896,145.122
716,1.191267,145.309
717,1.192933,145.711
718,1.1946,145.89
719,1.196267,145.89
720,1.19795,145.8
721,1.199633,145.584
722,1.201267,145.316
723,1.202933,145.316
724,1.2046,145.026
725,1.206267,144.862
726,1.207933,144.988
727,1.2096,144.988
728,1.211267,144.973
729,1.212933,144.951
730,1.2146,144.951
731,1.216267,145.011
732,1.217933,144.839
733,1.2196,144.787
734,1.221267,144.787
735,1.222933,144.981
736,1.224583,144.869
737,1.226267,145.026
738,1.227917,145.026
739,1.229583,145.018
740,1.231233,144.884
741,1.2329,144.877
742,1.234567,144.877
743,1.236233,144.757
744,1.237933,144.936
745,1.239567,144.936
746,1.241233,144.906
747,1.2429,144.906
748,1.244567,145.115
749,1.246233,145.115
750,1.2479,145.242
751,1.249567,145.204
752,1.251233,145.242
753,1.2529,145.242
754,1.254633,145.055
755,1.256233,144.854
756,1.2579,144.683
757,1.259567,144.683
758,1.261233,144.504
759,1.2629,144.355
760,1.264567,144.355
761,1.266233,144.295
762,1.2679,144.415
763,1.269567,144.526
764,1.2713,144.526
765,1.2729,144.623
766,1.274567,144.623
767,1.276233,144.757
768,1.2779,144.757
769,1.279567,144.683
770,1.281233,144.981
771,1.2829,145.204
772,1.284567,145.204
773,1.286233,145.04
774,1.288,145.085
775,1.289567,144.75
776,1.291217,144.75
777,1.292883,144.437
778,1.29455,144.549
779,1.296217,144.549
780,1.297883,144.556
781,1.29955,144.608
782,1.301217,144.996
783,1.302917,144.996
784,1.30455,145.137
785,1.306217,145.167
786,1.307883,144.914
787,1.30955,144.914
788,1.311217,144.504
789,1.312883,144.266
790,1.31455,144.199
791,1.316217,144.199
792,1.317883,144.638
793,1.31955,144.586
794,1.321217,144.586
795,1.322883,144.646
796,1.32455,144.385
797,1.326217,143.893
798,1.327883,143.893
799,1.32955,144.094
800,1.331217,144.072
801,1.332883,144.325
802,1.33455,144.325
803,1.336217,144.452
804,1.337883,144.303
805,1.33955,143.99
806,1.341217,143.99
807,1.342883,143.684
808,1.34455,143.729
809,1.346217,143.714
810,1.347883,143.714
811,1.34955,144.206
812,1.3512,144.638
813,1.352867,144.638
814,1.354533,144.437
815,1.3562,144.437
816,1.357867,144.251
817,1.359533,144.251
818,1.361217,144.139
819,1.3629,144.199
820,1.3646,144.072
821,1.3662,144.072
822,1.367867,143.893
823,1.369533,143.871
824,1.3712,144.012
825,1.3729,144.012
826,1.374533,143.96
827,1.3762,144.102
828,1.377867,144.102
829,1.379533,143.99
830,1.3812,143.975
831,1.382867,144.333
832,1.384533,144.333
833,1.3862,144.273
834,1.387867,144.355
835,1.38955,144.511
836,1.3912,144.511
837,1.392867,144.392
838,1.394533,144.228
839,1.3962,144.31
840,1.397867,144.31
841,1.399533,144.266
842,1.4012,144.333
843,1.402867,144.474
844,1.404533,144.474
845,1.4063,144.146
846,1.407867,143.833
847,1.409533,143.833
848,1.411183,143.461
849,1.41285,143.595
850,1.414517,143.923
851,1.416183,143.923
852,1.41785,143.901
853,1.419517,144.131
854,1.421183,144.005
855,1.42285,144.005
856,1.424517,143.781
857,1.426183,144.146
858,1.42785,144.228
859,1.429517,144.228
860,1.431183,144.228
861,1.43285,144.348
862,1.434517,144.348
863,1.436183,144.355
864,1.437867,144.243
865,1.439517,144.243
866,1.441183,144.243
867,1.44285,144.064
868,1.444517,143.826
869,1.446183,143.558
870,1.44785,143.558
871,1.449517,143.602
872,1.451183,143.737
873,1.45285,143.602
874,1.454517,143.602
875,1.456183,143.982
876,1.45785,143.915
877,1.459517,143.982
878,1.461183,143.982
879,1.46285,144.34
880,1.464517,144.042
881,1.466183,144.042
882,1.46785,143.968
883,1.469517,143.714
884,1.471167,143.55
885,1.472833,143.55
886,1.4745,143.55
887,1.476167,143.573
888,1.477833,143.841
889,1.4795,143.841
890,1.481167,143.684
891,1.482833,143.588
892,1.4845,143.342
893,1.486167,143.342
894,1.487833,143.178
895,1.4895,143.148
896,1.491217,143.148
897,1.492833,143.23
898,1.4945,143.275
899,1.496167,143.304
900,1.497833,143.304
901,1.4995,143.252
902,1.501167,143.267
903,1.502833,143.349
904,1.5045,143.349
905,1.506167,143.133
906,1.507917,143.416
907,1.509517,143.409
908,1.511217,143.409
909,1.512833,143.446
910,1.5145,143.498
911,1.51615,143.498
912,1.517817,143.29
913,1.519483,143.483
914,1.52115,143.491
915,1.522817,143.491
916,1.5246,143.453
917,1.52615,143.409
918,1.527817,143.193
919,1.529467,143.193
920,1.531133,143.364
921,1.5328,143.491
922,1.534467,143.453
923,1.536133,143.453
924,1.5378,143.595
925,1.539467,143.684
926,1.541133,143.617
927,1.5428,143.617
928,1.544467,143.588
929,1.546133,143.357
930,1.5478,143.357
931,1.549467,142.992
932,1.551133,142.85
933,1.5528,142.88
934,1.554467,142.88
935,1.556133,143.126
936,1.5578,143.267
937,1.559467,143.543
938,1.561133,143.543
939,1.5628,143.796
940,1.564467,143.588
941,1.566133,143.409
942,1.5678,143.409
943,1.569467,143.185
944,1.571133,142.969
945,1.5728,142.969
946,1.574467,143.155
947,1.576133,143.208
948,1.5778,143.29
949,1.5795,143.29
950,1.581133,143.498
951,1.5828,143.275
952,1.584467,143.252
953,1.586133,143.252
954,1.587817,143.364
955,1.589467,143.148
956,1.591117,143.17
957,1.592783,143.17
958,1.59445,143.133
959,1.596117,143.245
960,1.597783,143.282
961,1.59945,143.282
962,1.601117,143.282
963,1.602783,143.632
964,1.60445,143.632
965,1.606117,143.521
966,1.607783,143.677
