"ID","sea_time","fid_signal"
1,0,140.347
2,0.001667,140.339
3,0.003333,140.421
4,0.005,140.421
5,0.0067,140.54
6,0.008333,140.347
7,0.01,140.347
8,0.0117,140.384
9,0.013333,140.384
10,0.015,140.272
11,0.016667,140.272
12,0.018333,140.488
13,0.02,140.481
14,0.021667,140.473
15,0.023317,140.473
16,0.024983,140.265
17,0.02665,140.131
18,0.028417,140.138
19,0.029983,140.138
20,0.03165,140.19
21,0.033317,140.548
22,0.034983,140.548
23,0.03665,140.555
24,0.038317,140.473
25,0.039983,140.607
26,0.04165,140.607
27,0.043317,140.466
28,0.044983,140.712
29,0.04665,140.473
30,0.048317,140.473
31,0.049983,139.944
32,0.05165,140.078
33,0.053317,139.989
34,0.054983,139.989
35,0.05665,140.294
36,0.058317,140.414
37,0.06,140.302
38,0.06165,140.302
39,0.063317,140.212
40,0.064983,140.168
41,0.06665,140.168
42,0.068317,140.19
43,0.069983,140.235
44,0.07165000000000001,140.361
45,0.07331699999999999,140.361
46,0.07498299999999999,140.227
47,0.07665,140.16
48,0.078317,140.212
49,0.079967,140.212
50,0.081633,140.071
51,0.083333,140.071
52,0.08500000000000001,140.563
53,0.086633,140.563
54,0.0883,140.63
55,0.08996700000000001,140.615
56,0.09163300000000001,140.615
57,0.09329999999999999,140.667
58,0.094967,140.443
59,0.096633,140.235
60,0.0983,140.235
61,0.099967,140.183
62,0.101633,140.294
63,0.1033,140.183
64,0.104967,140.183
65,0.106633,140.287
66,0.1083,140.421
67,0.109967,140.697
68,0.111633,140.697
69,0.113367,140.89
70,0.114967,140.89
71,0.116633,140.89
72,0.1183,141.01
73,0.119967,140.786
74,0.121633,140.645
75,0.1233,140.645
76,0.124967,140.607
77,0.126633,140.391
78,0.1283,140.131
79,0.129967,140.131
80,0.131633,140.153
81,0.1333,139.907
82,0.134967,140.063
83,0.136633,140.063
84,0.1383,140.317
85,0.139967,140.458
86,0.141617,140.488
87,0.143283,140.488
88,0.14495,140.414
89,0.146733,140.406
90,0.148267,140.406
91,0.149933,140.332
92,0.1516,140.443
93,0.153267,140.309
94,0.154933,140.309
95,0.1566,140.488
96,0.158267,140.332
97,0.15995,140.376
98,0.1616,140.376
99,0.163267,140.719
100,0.164933,140.689
101,0.1666,140.853
102,0.168267,140.853
103,0.169933,140.823
104,0.1716,140.563
105,0.173267,140.563
106,0.174933,140.54
107,0.1766,140.399
108,0.178267,140.719
109,0.179933,140.719
110,0.1816,140.838
111,0.183267,140.51
112,0.184933,140.414
113,0.1866,140.414
114,0.188267,140.25
115,0.189933,140.034
116,0.1916,140.294
117,0.193267,140.294
118,0.194933,140.443
119,0.1966,140.488
120,0.198267,140.592
121,0.199933,140.592
122,0.2016,140.51
123,0.20325,140.727
124,0.204917,140.727
125,0.206583,140.727
126,0.20825,140.749
127,0.209917,140.518
128,0.211583,140.518
129,0.21325,140.317
130,0.214917,140.063
131,0.216583,140.108
132,0.21825,140.108
133,0.219917,140.63
134,0.221583,140.697
135,0.22325,141.449
136,0.224917,141.449
137,0.226583,142.381
138,0.228283,143.372
139,0.229917,143.372
140,0.23165,145.562
141,0.23325,148.319
142,0.234933,151.992
143,0.236583,151.992
144,0.23825,157.148
145,0.239917,163.764
146,0.241583,172.131
147,0.24325,172.131
148,0.244917,182.465
149,0.246583,195.369
150,0.24825,210.106
151,0.249917,210.106
152,0.251583,227.086
153,0.25325,246.584
154,0.254917,246.584
155,0.256583,267.67
156,0.25825,291.102
157,0.259917,316.136
158,0.261583,316.136
159,0.263233,343.189
160,0.265,372.231
161,0.266567,403.255
162,0.268233,403.255
163,0.2699,436.79
164,0.271567,472.553
165,0.273233,510.536
166,0.2749,510.536
167,0.276567,551.09
168,0.278233,594.616
169,0.2799,641.085
170,0.281567,641.085
171,0.283233,691.079
172,0.2849,744.894
173,0.286567,744.894
174,0.288233,802.651
175,0.2899,864.677
176,0.291567,932.016
177,0.293233,932.016
178,0.2949,1004.674
179,0.296567,1083.136
180,0.298233,1168.326
181,0.2999,1168.326
182,0.301567,1260.452
183,0.303267,1360.148
184,0.3049,1468.465
185,0.306567,1468.465
186,0.308233,1585.692
187,0.3099,1713.157
188,0.311567,1713.157
189,0.313233,1851.998
190,0.3149,2003.409
191,0.316567,2169.929
192,0.31825,2169.929
193,0.3199,2354.041
194,0.32155,2560.072
195,0.323217,2793.036
196,0.324883,2793.036
197,0.32655,3058.955
198,0.328217,3363.587
199,0.329883,3711.753
200,0.33155,3711.753
201,0.333217,4104.972
202,0.334883,4539.505
203,0.33655,5005.523
204,0.338217,5005.523
205,0.339883,5486.451
206,0.34155,5960.122
207,0.343217,5960.122
208,0.344883,6401.427
209,0.34655,6784.67
210,0.348217,7086.478
211,0.34995,7086.478
212,0.35155,7289.238
213,0.353217,7381.745
214,0.354883,7360.95
215,0.35655,7360.95
216,0.358217,7231.847
217,0.359883,7005.58
218,0.36155,6698.303
219,0.363217,6698.303
220,0.364883,6328.702
221,0.3666,5915.873
222,0.368217,5915.873
223,0.369883,5477.771
224,0.37155,5029.939
225,0.373217,4585.728
226,0.374883,4585.728
227,0.37655,4155.233
228,0.37825,3746.495
229,0.379883,3364.548
230,0.381533,3364.548
231,0.3833,3012.844
232,0.384867,2692.163
233,0.386533,2402.559
234,0.3882,2402.559
235,0.389867,2143.39
236,0.391533,1912.557
237,0.3932,1708.247
238,0.394867,1708.247
239,0.396533,1527.853
240,0.3982,1369.193
241,0.399867,1369.193
242,0.401533,1229.636
243,0.4032,1107.439
244,0.404867,1000.583
245,0.406533,1000.583
246,0.4082,906.9
247,0.409883,825.122
248,0.411567,753.462
249,0.4132,753.462
250,0.414867,690.401
251,0.416533,634.991
252,0.4182,586.1369999999999
253,0.419867,586.1369999999999
254,0.421533,542.8869999999999
255,0.4232,505
256,0.424867,505
257,0.426533,471.413
258,0.4282,441.827
259,0.429867,415.899
260,0.431533,415.899
261,0.4332,392.81
262,0.434867,372.306
263,0.436533,353.493
264,0.4382,353.493
265,0.43985,336.595
266,0.441517,321.686
267,0.443167,308.409
268,0.444833,308.409
269,0.4465,296.69
270,0.448167,285.968
271,0.44985,275.999
272,0.4515,275.999
273,0.453167,267.379
274,0.454833,259.72
275,0.4565,259.72
276,0.458167,252.806
277,0.459833,246.212
278,0.4615,239.73
279,0.463167,239.73
280,0.464833,233.762
281,0.4665,228.629
282,0.468183,224.069
283,0.469833,224.069
284,0.4715,219.792
285,0.473167,216
286,0.474833,212.371
287,0.4765,212.371
288,0.478167,209.033
289,0.479833,205.994
290,0.4815,205.994
291,0.483167,202.909
292,0.4849,200.13
293,0.4865,197.597
294,0.488167,197.597
295,0.489833,195.369
296,0.491533,193.641
297,0.493167,191.83
298,0.494833,191.83
299,0.4965,190.094
300,0.498167,188.343
301,0.499833,186.719
302,0.501567,186.719
303,0.50315,185.013
304,0.504817,183.545
305,0.506483,183.545
306,0.50815,182.226
307,0.509817,180.863
308,0.511483,179.805
309,0.51315,179.805
310,0.514817,178.814
311,0.516483,177.763
312,0.51825,176.832
313,0.519817,176.832
314,0.521483,175.819
315,0.52315,174.962
316,0.524817,174.418
317,0.526483,174.418
318,0.5282,173.517
319,0.529817,172.541
320,0.531483,171.81
321,0.53315,171.81
322,0.534817,170.812
323,0.536483,170.141
324,0.53815,170.141
325,0.539817,169.449
326,0.541483,168.532
327,0.54315,168.003
328,0.544817,168.003
329,0.5464830000000001,167.407
330,0.54815,167.146
331,0.549817,166.513
332,0.5514829999999999,166.513
333,0.55315,165.991
334,0.554817,165.485
335,0.5564829999999999,164.881
336,0.55815,164.881
337,0.559817,164.539
338,0.561483,164.27
339,0.563133,164.27
340,0.5648,163.794
341,0.5664670000000001,163.309
342,0.568133,163.056
343,0.5698,163.056
344,0.5714669999999999,162.512
345,0.573133,162.08
346,0.5748,161.923
347,0.576467,161.923
348,0.578133,161.499
349,0.579817,161.149
350,0.581467,160.94
351,0.583133,160.94
352,0.5848,160.411
353,0.586467,160.083
354,0.588133,159.487
355,0.5898,159.487
356,0.591467,159.07
357,0.593133,158.876
358,0.5948,158.876
359,0.596467,158.638
360,0.598133,158.608
361,0.5998,158.504
362,0.601517,158.504
363,0.60325,158.332
364,0.6048,158.019
365,0.606467,157.61
366,0.608133,157.61
367,0.6098,157.088
368,0.611467,156.775
369,0.613133,156.41
370,0.6148,156.41
371,0.616467,156.365
372,0.618133,156.38
373,0.6198669999999999,156.187
374,0.6214499999999999,156.187
375,0.623117,156.283
376,0.624783,155.866
377,0.62645,155.866
378,0.628117,155.479
379,0.629783,155.002
380,0.63145,154.883
381,0.633117,154.883
382,0.634783,154.749
383,0.636567,154.547
384,0.638133,154.54
385,0.639783,154.54
386,0.64145,153.907
387,0.643117,153.862
388,0.644783,153.929
389,0.64645,153.929
390,0.6481170000000001,154.071
391,0.649783,154.153
392,0.65145,154.153
393,0.6531169999999999,154.063
394,0.654783,153.81
395,0.65645,153.303
396,0.658117,153.303
397,0.659783,153.102
398,0.66145,152.96
399,0.663117,152.811
400,0.664783,152.811
401,0.66645,152.923
402,0.668117,153.027
403,0.669817,153.139
404,0.67145,153.139
405,0.673117,153.102
406,0.674783,152.685
407,0.676467,152.685
408,0.678117,152.148
409,0.679783,151.828
410,0.681433,151.455
411,0.6831,151.455
412,0.684767,151.552
413,0.686433,151.835
414,0.6881,151.776
415,0.689767,151.776
416,0.691433,151.873
417,0.6931,151.753
418,0.694767,151.239
419,0.696433,151.239
420,0.6981000000000001,151.001
421,0.699767,150.919
422,0.701433,150.919
423,0.7030999999999999,150.815
424,0.704767,150.897
425,0.706433,150.755
426,0.7081,150.755
427,0.709767,150.517
428,0.711433,150.152
429,0.7131,149.921
430,0.714767,149.921
431,0.716433,150.032
432,0.7181,150.025
433,0.719767,150.248
434,0.721467,150.248
435,0.7231,150.397
436,0.7247670000000001,150.144
437,0.726433,150.174
438,0.7281,150.174
439,0.7297670000000001,150.174
440,0.731417,150.137
441,0.733083,150.137
442,0.73475,149.928
443,0.736417,149.6
444,0.738117,149.19
445,0.73975,149.19
446,0.741417,148.952
447,0.743067,149.302
448,0.744733,149.563
449,0.7464,149.563
450,0.748067,149.98
451,0.749733,149.898
452,0.751417,149.436
453,0.7530829999999999,149.436
454,0.754733,149.168
455,0.7564,148.855
456,0.758067,148.855
457,0.759733,149.101
458,0.7614,149.406
459,0.7630670000000001,149.645
460,0.764733,149.645
461,0.7664,149.488
462,0.7680670000000001,149.176
463,0.769733,148.833
464,0.7714,148.833
465,0.7730669999999999,148.557
466,0.774733,148.55
467,0.7764,148.475
468,0.778067,148.475
469,0.779733,148.356
470,0.7814,148.259
471,0.783067,148.445
472,0.784733,148.445
473,0.7864,148.498
474,0.788067,148.244
475,0.789733,148.244
476,0.7914,148.013
477,0.793067,147.633
478,0.794733,147.38
479,0.7964,147.38
480,0.798067,147.581
481,0.799733,147.872
482,0.8014,148.088
483,0.80305,148.088
484,0.804717,148.229
485,0.806383,148.147
486,0.80805,148.058
487,0.809717,148.058
488,0.811383,147.864
489,0.813067,148.05
490,0.814717,148.05
491,0.816383,147.901
492,0.8181,147.551
493,0.819717,147.358
494,0.821383,147.358
495,0.8230499999999999,146.933
496,0.82475,146.933
497,0.826383,147.261
498,0.82805,147.261
499,0.829717,147.268
500,0.831383,147.253
501,0.83305,147.186
502,0.834717,147.186
503,0.836383,146.948
504,0.83805,146.866
505,0.839717,146.747
506,0.841383,146.747
507,0.84305,146.843
508,0.8447170000000001,146.843
509,0.846383,146.843
510,0.84805,146.776
511,0.8497169999999999,146.866
512,0.851383,146.59
513,0.85305,146.59
514,0.8547169999999999,146.717
515,0.856383,146.933
516,0.85805,146.806
517,0.859717,146.806
518,0.861367,147.082
519,0.8630330000000001,146.978
520,0.8647,146.948
521,0.866367,146.948
522,0.8680330000000001,147.097
523,0.8697,147.246
524,0.871367,147.246
525,0.873167,147.194
526,0.8747,147.074
527,0.876367,146.709
528,0.878033,146.709
529,0.8797,146.158
530,0.881367,145.942
531,0.883033,145.681
532,0.8847,145.681
533,0.886367,145.674
534,0.888033,145.718
535,0.8897,145.651
536,0.891367,145.651
537,0.89305,146.031
538,0.8947000000000001,146.56
539,0.896367,146.56
540,0.898033,146.776
541,0.8997000000000001,146.881
542,0.901367,146.739
543,0.903033,146.739
544,0.9046999999999999,146.411
545,0.906367,146.665
546,0.908033,146.739
547,0.9097,146.739
548,0.911367,146.464
549,0.91305,146.545
550,0.9147,146.203
551,0.916367,146.203
552,0.918033,145.92
553,0.9197,145.86
554,0.92135,145.733
555,0.923017,145.733
556,0.924683,145.674
557,0.92635,145.763
558,0.928017,145.763
559,0.929683,146.128
560,0.93135,145.905
561,0.933017,145.987
562,0.934683,145.987
563,0.93635,146.039
564,0.938017,145.912
565,0.939683,145.964
566,0.94135,145.964
567,0.943017,145.786
568,0.9446830000000001,145.882
569,0.94635,145.622
570,0.948017,145.622
571,0.9496830000000001,145.592
572,0.95135,145.547
573,0.953017,145.547
574,0.9546829999999999,145.331
575,0.95635,145.547
576,0.958017,145.54
577,0.959683,145.54
578,0.961383,145.51
579,0.963017,145.376
580,0.964683,145.108
581,0.96635,145.108
582,0.968017,145.204
583,0.969683,145.42
584,0.97135,145.398
585,0.973017,145.398
586,0.974683,145.637
587,0.9763500000000001,145.771
588,0.978017,145.413
589,0.979683,145.413
590,0.981333,145.651
591,0.983,145.495
592,0.984667,145.495
593,0.986333,145.212
594,0.988,145.189
595,0.989667,145.018
596,0.99135,145.018
597,0.993,145.1
598,0.994667,145.16
599,0.996333,145.361
600,0.998,145.361
601,0.999667,145.264
602,1.001333,144.966
603,1.003,144.556
604,1.004667,144.556
605,1.006367,144.4
606,1.008,144.653
607,1.009667,144.653
608,1.011333,144.981
609,1.013,145.309
610,1.014667,145.413
611,1.016333,145.413
612,1.018,145.182
613,1.019667,145.13
614,1.021333,145.152
615,1.022983,145.152
616,1.02465,144.996
617,1.026317,144.757
618,1.027983,144.593
619,1.02965,144.593
620,1.031317,144.802
621,1.032983,144.958
622,1.03465,144.958
623,1.036317,145.264
624,1.038,145.242
625,1.03965,144.832
626,1.041317,144.832
627,1.042967,144.698
628,1.044633,144.631
629,1.0463,144.258
630,1.047967,144.258
631,1.049633,144.131
632,1.0513,144.139
633,1.052967,144.094
634,1.054633,144.094
635,1.0563,144.593
636,1.057967,144.862
637,1.059633,144.713
638,1.0613,144.713
639,1.062967,144.608
640,1.064633,144.131
641,1.0663,144.131
642,1.067967,144.05
643,1.069633,144.355
644,1.0713,144.415
645,1.072967,144.415
646,1.074633,144.69
647,1.076367,144.698
648,1.077967,144.139
649,1.079667,144.139
650,1.0813,144.31
651,1.082967,144.467
652,1.084633,144.444
653,1.0863,144.444
654,1.087967,144.906
655,1.089633,144.415
656,1.0913,144.415
657,1.092967,144.213
658,1.094633,144.117
659,1.0963,143.774
660,1.097967,143.774
661,1.099633,144.035
662,1.101283,143.751
663,1.10295,143.61
664,1.104617,143.61
665,1.106283,143.647
666,1.10795,143.826
667,1.109767,144.154
668,1.111283,144.154
669,1.11295,144.362
670,1.114617,144.504
671,1.116283,144.206
672,1.11795,144.206
673,1.119617,143.878
674,1.121283,143.625
675,1.12295,143.625
676,1.124617,143.483
677,1.126283,143.364
678,1.12795,143.394
679,1.129617,143.394
680,1.131283,143.55
681,1.13295,143.528
682,1.134617,143.424
683,1.136283,143.424
684,1.13795,143.416
685,1.139617,143.372
686,1.141283,143.588
687,1.14295,143.588
688,1.144617,143.692
689,1.146283,143.751
690,1.14795,143.751
691,1.149617,143.781
692,1.151283,143.565
693,1.15295,143.923
694,1.154617,143.923
695,1.156283,144.035
696,1.15795,144.109
697,1.159617,143.997
698,1.161283,143.997
699,1.162933,143.93
700,1.1646,143.878
701,1.166283,144.05
702,1.167983,144.05
703,1.1696,144.355
704,1.171267,144.266
705,1.17295,144.362
706,1.1746,144.362
707,1.176267,144.169
708,1.177933,143.856
709,1.1796,143.856
710,1.181267,143.662
711,1.182933,143.491
712,1.1846,143.245
713,1.186267,143.245
714,1.187933,143.491
715,1.1896,143.573
716,1.191267,143.58
717,1.192933,143.58
718,1.19465,143.945
719,1.196267,143.901
720,1.197933,144.072
721,1.1996,144.072
722,1.201267,144.31
723,1.202933,144.035
724,1.2046,144.035
725,1.206267,144.05
726,1.207933,143.774
727,1.2096,143.573
728,1.211267,143.573
729,1.212933,143.789
730,1.2146,143.61
731,1.216267,143.751
732,1.217933,143.751
733,1.2196,143.774
734,1.221267,143.602
735,1.222917,143.677
736,1.224583,143.677
737,1.22625,143.819
738,1.228033,143.595
739,1.229583,143.498
740,1.23125,143.498
741,1.232917,143.424
742,1.234583,143.252
743,1.23625,143.252
744,1.237917,143.416
745,1.239583,143.297
746,1.24125,143.17
747,1.242917,143.17
748,1.244583,143.074
749,1.246267,143.021
750,1.247933,143.103
751,1.249583,143.103
752,1.25125,143.26
753,1.252917,143.111
754,1.254583,143.074
755,1.25625,143.074
756,1.257917,143.103
757,1.259583,143.334
758,1.26125,143.334
759,1.262917,143.692
760,1.264583,143.67
761,1.26625,143.647
762,1.267917,143.647
763,1.2696,143.401
764,1.27125,143.088
765,1.272917,143.081
766,1.274583,143.081
767,1.27625,143.081
768,1.277917,143.006
769,1.279583,142.962
770,1.28125,142.962
771,1.2829,142.895
772,1.284567,142.79
773,1.286233,142.79
774,1.2879,142.835
775,1.289567,142.954
776,1.291233,142.917
777,1.2929,142.917
778,1.294567,142.924
779,1.296233,143.185
780,1.2979,143.215
781,1.299567,143.215
782,1.301233,143.282
783,1.3029,143.304
784,1.304567,143.096
785,1.306233,143.096
786,1.307917,143.312
787,1.309567,143.483
788,1.311233,143.565
789,1.31295,143.565
790,1.31455,143.327
791,1.316217,142.999
792,1.317883,142.999
793,1.319567,142.895
794,1.321217,142.761
795,1.322883,142.857
796,1.32455,142.857
797,1.326217,142.768
798,1.327883,142.984
799,1.329667,143.364
800,1.331217,143.364
801,1.332883,143.424
802,1.33455,143.841
803,1.336217,143.64
804,1.337883,143.64
805,1.33955,143.617
806,1.341217,143.662
807,1.342867,143.662
808,1.344533,143.357
809,1.3463,143.357
810,1.347867,143.006
811,1.349533,143.006
812,1.3512,142.954
813,1.352867,142.932
814,1.354533,142.783
815,1.3562,142.783
816,1.357867,143.044
817,1.359533,143.059
818,1.3612,143.059
819,1.362967,143.059
820,1.364533,143.111
821,1.3662,142.977
822,1.367867,143.141
823,1.369533,143.141
824,1.3712,143.208
825,1.372867,143.126
826,1.374533,143.126
827,1.3762,143.126
828,1.377867,143.036
829,1.379533,143.148
830,1.3812,143.148
831,1.382867,143.297
832,1.384533,143.021
833,1.386233,142.932
834,1.387867,142.932
835,1.389533,142.932
836,1.3912,142.85
837,1.392867,142.872
838,1.394533,142.872
839,1.3962,142.813
840,1.397867,142.485
841,1.399533,142.485
842,1.401183,142.634
843,1.40285,142.91
844,1.404517,142.954
845,1.406183,142.954
846,1.40785,142.835
847,1.409533,142.731
848,1.411217,142.902
849,1.41285,142.902
850,1.414517,142.805
851,1.416183,143.29
852,1.41785,143.498
853,1.419517,143.498
854,1.421183,143.059
855,1.42285,143.282
856,1.424517,142.91
857,1.426183,142.91
858,1.42785,142.671
859,1.429517,143.059
860,1.431183,143.059
861,1.43285,142.843
862,1.434517,142.895
863,1.436183,142.924
864,1.43785,142.924
865,1.439517,142.805
866,1.441183,143.014
867,1.44285,143.133
868,1.444533,143.133
869,1.446183,143.267
870,1.447917,143.193
871,1.449517,143.088
872,1.451183,143.088
873,1.45285,143.148
874,1.454533,143.237
875,1.456183,143.237
876,1.45785,143.312
877,1.459517,143.208
878,1.461167,143.312
879,1.462833,143.312
880,1.464583,142.783
881,1.466167,142.589
882,1.467833,142.589
883,1.4695,142.589
884,1.471167,142.671
885,1.472833,143.014
886,1.4745,143.193
887,1.476167,143.193
888,1.477833,143.178
889,1.4795,142.969
890,1.481267,143.074
891,1.482833,143.074
892,1.4845,143.297
893,1.486167,143.461
894,1.487833,143.461
895,1.4895,143.394
896,1.491167,143.126
897,1.492833,142.716
898,1.4945,142.716
899,1.496167,142.619
900,1.497833,142.291
901,1.4995,142.351
902,1.501167,142.351
903,1.502867,142.395
904,1.5045,142.41
905,1.506167,142.939
906,1.507833,142.939
907,1.5095,143.044
908,1.511167,143.096
909,1.512833,143.096
910,1.5145,142.954
911,1.516167,142.47
912,1.517833,142.373
913,1.5195,142.373
914,1.52115,142.023
915,1.522817,141.777
916,1.524483,141.971
917,1.52615,141.971
918,1.527817,141.911
919,1.5295,142.165
920,1.5312,142.366
921,1.532817,142.366
922,1.534483,142.097
923,1.53615,141.904
924,1.537817,141.904
925,1.539483,141.859
926,1.54115,141.799
927,1.542817,141.896
928,1.544483,141.896
929,1.54615,142.179
930,1.547817,142.395
931,1.549483,142.559
932,1.55115,142.559
933,1.552817,143.006
934,1.554483,142.85
935,1.55615,142.515
936,1.557817,142.515
937,1.559483,142.12
938,1.56115,141.583
939,1.562817,141.852
940,1.564483,141.852
941,1.566167,141.814
942,1.567817,142.246
943,1.569483,142.246
944,1.57115,142.239
945,1.572817,141.941
946,1.574483,142.299
947,1.57615,142.299
948,1.577817,142.217
949,1.579483,142.381
950,1.581133,142.507
951,1.58285,142.507
952,1.584467,142.12
953,1.586133,142.053
954,1.5878,142.254
955,1.589467,142.254
956,1.591133,142.276
957,1.5928,142.403
958,1.594467,142.403
959,1.596133,142.209
960,1.5978,142.299
961,1.599583,142.418
962,1.601133,142.418
963,1.6028,142.574
