"ID","sea_time","fid_signal"
1,0,1176.074
2,0.001683,1176.745
3,0.003333,1176.745
4,0.005,1173.466
5,0.006667,1171.231
6,0.008333,1170.561
7,0.01,1170.561
8,0.011667,1169.89
9,0.013333,1168.475
10,0.015067,1168.624
11,0.016667,1168.624
12,0.018333,1164.824
13,0.02,1165.42
14,0.02165,1165.42
15,0.023317,1168.027
16,0.024983,1169.965
17,0.02665,1172.2
18,0.028317,1172.2
19,0.029983,1168.549
20,0.03165,1167.953
21,0.033317,1165.941
22,0.034983,1165.941
23,0.03665,1165.792
24,0.038317,1166.984
25,0.040033,1166.91
26,0.04165,1166.91
27,0.043317,1166.686
28,0.044983,1164.6
29,0.04665,1162.44
30,0.048433,1162.44
31,0.049983,1163.259
32,0.05165,1163.483
33,0.053317,1163.483
34,0.054983,1166.91
35,0.05665,1170.486
36,0.058317,1171.231
37,0.059983,1171.231
38,0.06165,1173.243
39,0.06335,1172.721
40,0.064983,1171.455
41,0.06665,1171.455
42,0.068317,1167.58
43,0.069983,1167.432
44,0.07165000000000001,1166.388
45,0.07331699999999999,1166.388
46,0.07498299999999999,1166.016
47,0.07665,1166.686
48,0.07829999999999999,1166.686
49,0.079967,1164.451
50,0.081617,1164.004
51,0.083283,1166.761
52,0.08495,1166.761
53,0.086617,1169.071
54,0.088283,1172.125
55,0.08995,1175.329
56,0.091617,1175.329
57,0.093283,1171.753
58,0.09495000000000001,1168.251
59,0.09661699999999999,1164.6
60,0.098283,1164.6
61,0.09995,1163.483
62,0.101617,1166.388
63,0.103283,1171.753
64,0.10495,1171.753
65,0.106617,1172.945
66,0.108283,1172.721
67,0.109967,1172.721
68,0.111617,1170.337
69,0.113283,1165.196
70,0.11495,1164.898
71,0.116617,1164.898
72,0.118283,1163.259
73,0.11995,1166.239
74,0.121617,1169.741
75,0.123283,1169.741
76,0.12495,1168.847
77,0.126617,1169.369
78,0.128283,1165.718
79,0.12995,1165.718
80,0.131617,1165.42
81,0.13335,1165.643
82,0.13495,1165.643
83,0.136617,1167.953
84,0.138283,1169.518
85,0.139933,1167.133
86,0.1416,1167.133
87,0.143267,1168.624
88,0.14495,1169.667
89,0.14665,1168.847
90,0.148267,1168.847
91,0.149933,1171.976
92,0.1516,1171.902
93,0.153267,1169.294
94,0.154933,1169.294
95,0.1566,1168.922
96,0.158267,1164.004
97,0.159933,1163.557
98,0.1616,1163.557
99,0.163267,1162.887
100,0.164933,1163.855
101,0.166717,1163.855
102,0.168267,1168.698
103,0.169933,1168.027
104,0.1716,1166.984
105,0.173267,1166.984
106,0.174933,1166.537
107,0.176617,1165.792
108,0.178267,1166.016
109,0.179933,1166.016
110,0.1816,1168.698
111,0.183267,1168.847
112,0.184933,1167.58
113,0.1866,1167.58
114,0.188283,1168.027
115,0.189933,1166.835
116,0.1916,1166.835
117,0.193267,1169.369
118,0.194933,1171.008
119,0.1966,1171.157
120,0.198267,1171.157
121,0.199933,1170.337
122,0.201583,1168.326
123,0.20325,1166.463
124,0.204917,1166.463
125,0.206583,1165.867
126,0.20825,1167.133
127,0.209917,1166.91
128,0.211583,1166.91
129,0.21325,1166.239
130,0.214917,1168.624
131,0.216583,1168.624
132,0.21825,1170.859
133,0.219917,1172.051
134,0.221583,1174.137
135,0.22325,1174.137
136,0.224917,1172.125
137,0.2266,1171.827
138,0.228283,1175.702
139,0.229917,1175.702
140,0.231583,1180.843
141,0.23325,1187.399
142,0.234917,1195.446
143,0.236583,1195.446
144,0.23825,1203.045
145,0.239917,1212.209
146,0.241583,1225.323
147,0.24325,1225.323
148,0.244917,1237.541
149,0.246583,1254.678
150,0.24825,1254.678
151,0.249917,1276.284
152,0.25165,1301.02
153,0.25325,1332.834
154,0.254917,1332.834
155,0.256583,1364.723
156,0.25825,1396.686
157,0.259933,1432.672
158,0.261567,1432.672
159,0.263233,1467.466
160,0.2649,1507.774
161,0.266567,1553.297
162,0.268383,1553.297
163,0.2699,1601.13
164,0.271567,1650.602
165,0.273233,1650.602
166,0.2749,1700.223
167,0.276567,1751.855
168,0.278233,1806.319
169,0.2799,1806.319
170,0.281567,1870.915
171,0.283233,1940.429
172,0.285017,2015.01
173,0.286567,2015.01
174,0.288233,2093.762
175,0.2899,2176.687
176,0.291567,2266.69
177,0.293233,2266.69
178,0.2949,2366.9
179,0.296567,2477.691
180,0.298233,2596.08
181,0.2999,2596.08
182,0.301567,2722.74
183,0.303233,2857
184,0.3049,2857
185,0.306567,3005.639
186,0.308233,3165.975
187,0.3099,3343.597
188,0.311567,3343.597
189,0.313233,3539.398
190,0.3149,3751.144
191,0.316567,3988.668
192,0.31825,3988.668
193,0.319933,4257.709
194,0.32155,4566.535
195,0.323217,4924.014
196,0.324883,4924.014
197,0.32655,5344.078
198,0.328217,5837.306
199,0.329883,5837.306
200,0.33155,6410.256
201,0.33325,7062.629
202,0.334883,7779.524
203,0.33655,7779.524
204,0.338217,8531.437
205,0.339883,9289.682000000001
206,0.34155,10012.09
207,0.343217,10012.09
208,0.344883,10652.542
209,0.34655,11176.616
210,0.348217,11547.58
211,0.349883,11547.58
212,0.35155,11743.232
213,0.353217,11757.463
214,0.354883,11601.299
215,0.35655,11601.299
216,0.358217,11286.735
217,0.359883,10844.99
218,0.36155,10844.99
219,0.363217,10304.228
220,0.364883,9693.802
221,0.36655,9045.974
222,0.368217,9045.974
223,0.369867,8383.691000000001
224,0.371533,7731.84
225,0.3732,7097.423
226,0.374867,7097.423
227,0.376533,6494.671
228,0.3782,5930.141
229,0.379867,5407.482
230,0.381517,5407.482
231,0.383183,4930.124
232,0.38485,4501.492
233,0.386517,4501.492
234,0.388183,4119.054
235,0.38985,3777.295
236,0.391517,3475.1
237,0.393183,3475.1
238,0.39485,3205.463
239,0.396517,2969.354
240,0.398183,2765.283
241,0.39985,2765.283
242,0.401517,2588.034
243,0.403283,2430.23
244,0.40485,2289.638
245,0.406517,2289.638
246,0.408183,2163.947
247,0.40985,2053.678
248,0.411517,2053.678
249,0.413183,1961.961
250,0.41485,1880.154
251,0.416517,1808.107
252,0.418183,1808.107
253,0.41995,1745.745
254,0.421517,1690.611
255,0.423183,1642.704
256,0.42485,1642.704
257,0.426517,1598.895
258,0.428183,1561.642
259,0.42985,1525.879
260,0.431517,1525.879
261,0.433183,1494.81
262,0.43485,1468.062
263,0.436517,1441.687
264,0.438183,1441.687
265,0.43985,1420.453
266,0.4415,1400.784
267,0.443167,1400.784
268,0.444833,1384.765
269,0.4465,1369.938
270,0.448167,1356.974
271,0.449833,1356.974
272,0.4515,1346.171
273,0.453167,1334.101
274,0.454833,1326.427
275,0.4565,1326.427
276,0.458167,1316.965
277,0.459833,1306.906
278,0.4615,1300.722
279,0.463167,1300.722
280,0.464833,1290.739
281,0.4665,1283.288
282,0.468167,1283.288
283,0.46985,1276.583
284,0.4715,1269.057
285,0.4732,1265.109
286,0.474833,1265.109
287,0.4765,1259.819
288,0.478167,1255.572
289,0.479833,1252.815
290,0.4815,1252.815
291,0.483167,1248.717
292,0.484833,1246.035
293,0.4865,1244.247
294,0.488167,1244.247
295,0.489833,1238.808
296,0.4915,1235.083
297,0.493167,1230.24
298,0.494833,1230.24
299,0.4965,1227.185
300,0.498167,1224.652
301,0.499833,1224.652
302,0.501483,1223.46
303,0.50315,1223.981
304,0.504833,1221.97
305,0.506483,1221.97
306,0.50815,1222.64
307,0.509817,1221.001
308,0.511483,1217.276
309,0.51315,1217.276
310,0.514817,1217.648
311,0.516483,1217.276
312,0.51815,1214.892
313,0.519817,1214.892
314,0.521533,1215.339
315,0.52315,1214.966
316,0.524817,1214.966
317,0.526483,1212.806
318,0.52815,1213.625
319,0.529817,1211.39
320,0.531483,1211.39
321,0.53315,1208.708
322,0.534817,1206.622
323,0.536483,1203.418
324,0.53825,1203.418
325,0.539817,1203.492
326,0.541483,1203.79
327,0.54315,1203.567
328,0.544817,1203.567
329,0.5464830000000001,1205.429
330,0.54815,1205.727
331,0.549817,1204.386
332,0.5514829999999999,1204.386
333,0.55315,1204.461
334,0.554817,1203.12
335,0.5564829999999999,1203.12
336,0.55815,1202.449
337,0.5598,1201.853
338,0.561467,1202.673
339,0.563133,1202.673
340,0.5648,1202.971
341,0.5664670000000001,1201.555
342,0.568133,1202.3
343,0.5698,1202.3
344,0.5714669999999999,1202.077
345,0.573133,1200.661
346,0.5748,1198.202
347,0.576467,1198.202
348,0.578133,1195.371
349,0.579817,1192.912
350,0.581467,1192.912
351,0.583133,1193.136
352,0.5848,1194.775
353,0.586467,1194.701
354,0.588133,1194.701
355,0.5898,1193.136
356,0.591467,1192.987
357,0.593133,1192.614
358,0.5948,1192.614
359,0.596467,1190.677
360,0.598133,1192.316
361,0.5998,1192.316
362,0.601467,1192.316
363,0.603133,1190.826
364,0.6048,1190.156
365,0.606467,1190.901
366,0.608133,1190.901
367,0.6098,1188.442
368,0.611467,1189.113
369,0.61315,1189.113
370,0.6148169999999999,1190.901
371,0.616467,1189.858
372,0.618133,1189.187
373,0.619783,1189.187
374,0.6214499999999999,1186.505
375,0.623133,1185.685
376,0.624783,1182.035
377,0.62645,1182.035
378,0.628117,1181.364
379,0.629783,1185.313
380,0.63145,1183.823
381,0.633117,1183.823
382,0.634783,1188.293
383,0.63645,1191.199
384,0.638117,1191.199
385,0.639783,1188.144
386,0.64145,1187.772
387,0.643117,1183.972
388,0.644783,1183.972
389,0.64645,1182.631
390,0.6481170000000001,1182.854
391,0.649783,1183.674
392,0.65145,1183.674
393,0.6531169999999999,1184.568
394,0.654783,1183.003
395,0.65655,1181.364
396,0.658117,1181.364
397,0.659783,1180.768
398,0.661433,1179.65
399,0.6631,1179.65
400,0.664767,1182.556
401,0.6664330000000001,1186.132
402,0.6681,1185.909
403,0.669767,1185.909
404,0.6714329999999999,1189.113
405,0.6731,1185.238
406,0.674767,1183.972
407,0.676433,1183.972
408,0.6781,1186.207
409,0.679767,1185.685
410,0.6814170000000001,1186.43
411,0.683083,1186.43
412,0.68475,1184.27
413,0.6864170000000001,1182.556
414,0.6881,1181.066
415,0.689783,1181.066
416,0.6914670000000001,1180.396
417,0.693083,1180.917
418,0.69475,1180.917
419,0.696417,1180.097
420,0.698083,1179.725
421,0.69975,1183.227
422,0.701417,1183.227
423,0.703083,1182.407
424,0.70475,1183.376
425,0.706417,1182.109
426,0.708083,1182.109
427,0.70975,1181.737
428,0.711417,1184.866
429,0.713083,1183.674
430,0.71475,1183.674
431,0.716417,1183.674
432,0.718083,1181.811
433,0.71975,1181.811
434,0.721417,1181.737
435,0.723083,1184.419
436,0.72475,1186.058
437,0.726417,1186.058
438,0.728083,1188.144
439,0.72975,1187.772
440,0.731417,1186.132
441,0.733083,1186.132
442,0.73475,1186.058
443,0.736417,1183.003
444,0.738083,1180.396
445,0.73975,1180.396
446,0.741433,1177.937
447,0.743067,1174.584
448,0.744733,1175.18
449,0.7464,1175.18
450,0.748067,1176.074
451,0.749733,1175.776
452,0.7514,1175.776
453,0.753067,1176.894
454,0.75475,1176.968
455,0.7564,1176.819
456,0.758117,1176.819
457,0.759767,1179.874
458,0.7614,1183.525
459,0.7630670000000001,1182.184
460,0.764767,1182.184
461,0.7664,1184.419
462,0.7680670000000001,1183.376
463,0.769733,1181.439
464,0.7714,1181.439
465,0.7730669999999999,1182.333
466,0.77485,1180.172
467,0.7764,1180.172
468,0.778067,1179.948
469,0.779733,1179.278
470,0.7814,1179.948
471,0.783067,1179.948
472,0.784733,1180.172
473,0.7864,1178.756
474,0.788067,1178.682
475,0.789733,1178.682
476,0.7914,1175.553
477,0.793067,1176.074
478,0.794733,1175.553
479,0.7964,1175.553
480,0.798067,1175.106
481,0.799733,1177.043
482,0.801383,1177.043
483,0.80305,1175.851
484,0.804717,1177.415
485,0.806383,1177.192
486,0.80805,1177.192
487,0.809717,1177.192
488,0.811383,1174.584
489,0.8130500000000001,1172.125
490,0.814717,1172.125
491,0.816383,1172.274
492,0.8180500000000001,1172.2
493,0.819717,1173.913
494,0.821383,1173.913
495,0.8230499999999999,1176.223
496,0.824717,1174.212
497,0.826383,1172.423
498,0.82805,1172.423
499,0.829717,1171.306
500,0.831383,1171.082
501,0.833083,1171.082
502,0.834717,1174.584
503,0.836383,1173.988
504,0.83805,1175.329
505,0.839717,1175.329
506,0.841383,1175.404
507,0.84305,1172.721
508,0.84475,1177.937
509,0.846383,1177.937
510,0.84805,1178.607
511,0.8497169999999999,1176.149
512,0.851383,1172.796
513,0.85305,1172.796
514,0.8547169999999999,1170.188
515,0.856383,1172.572
516,0.85805,1172.572
517,0.8597669999999999,1175.851
518,0.861367,1180.693
519,0.8630330000000001,1183.823
520,0.8647,1183.823
521,0.866367,1185.387
522,0.8680330000000001,1187.101
523,0.8697,1187.026
524,0.871367,1187.026
525,0.8730329999999999,1183.897
526,0.8747,1179.948
527,0.876367,1178.831
528,0.878033,1178.831
529,0.8797,1178.235
530,0.881367,1176.149
531,0.883033,1174.286
532,0.8847,1174.286
533,0.886367,1172.125
534,0.888033,1172.721
535,0.8897,1172.721
536,0.891367,1175.553
537,0.89315,1176.894
538,0.8947000000000001,1177.266
539,0.896367,1177.266
540,0.898033,1177.415
541,0.8997000000000001,1174.212
542,0.901367,1170.933
543,0.903033,1170.933
544,0.9046999999999999,1169.22
545,0.906367,1167.953
546,0.908033,1168.027
547,0.9097,1168.027
548,0.9113830000000001,1172.051
549,0.913033,1173.094
550,0.9147,1173.094
551,0.916367,1173.168
552,0.918033,1177.266
553,0.9197,1178.16
554,0.92135,1178.16
555,0.923017,1179.65
556,0.924683,1178.682
557,0.92635,1174.36
558,0.928017,1174.36
559,0.929683,1171.38
560,0.93135,1170.561
561,0.933017,1173.094
562,0.934683,1173.094
563,0.93635,1173.913
564,0.938017,1176.745
565,0.939717,1178.756
566,0.94135,1178.756
567,0.943017,1178.384
568,0.9446830000000001,1177.788
569,0.94635,1177.788
570,0.948017,1175.106
571,0.9496830000000001,1173.168
572,0.951333,1172.87
573,0.953,1172.87
574,0.954667,1172.125
575,0.956333,1171.902
576,0.958,1171.976
577,0.959667,1171.976
578,0.961333,1171.976
579,0.963,1174.882
580,0.9646670000000001,1173.988
581,0.966333,1173.988
582,0.968,1171.529
583,0.9696669999999999,1170.039
584,0.971333,1170.039
585,0.973,1170.784
586,0.974667,1171.008
587,0.976333,1173.466
588,0.977983,1173.466
589,0.979667,1176.745
590,0.981317,1175.106
591,0.9829830000000001,1178.309
592,0.98465,1178.309
593,0.986367,1177.341
594,0.9879829999999999,1175.106
595,0.98965,1176.521
596,0.991317,1176.521
597,0.9929829999999999,1174.807
598,0.99465,1173.69
599,0.996317,1173.69
600,0.997983,1173.317
601,0.99965,1172.125
602,1.001317,1173.094
603,1.002983,1173.094
604,1.00465,1174.212
605,1.006317,1173.839
606,1.007983,1172.274
607,1.00965,1172.274
608,1.011417,1169.667
609,1.012983,1168.922
610,1.01465,1169.592
611,1.016317,1169.592
612,1.017983,1168.549
613,1.01965,1171.082
614,1.021317,1173.466
615,1.022983,1173.466
616,1.02465,1174.733
617,1.026317,1174.957
618,1.028,1174.957
619,1.02965,1173.168
620,1.031317,1172.498
621,1.032983,1170.039
622,1.03465,1170.039
623,1.036317,1169.965
624,1.037983,1169.071
625,1.03965,1169.667
626,1.0413,1169.667
627,1.042967,1169.145
628,1.044633,1171.678
629,1.0463,1173.765
630,1.047967,1173.765
631,1.049633,1174.063
632,1.0513,1174.807
633,1.052967,1174.807
634,1.054633,1172.796
635,1.0563,1174.137
636,1.057967,1170.933
637,1.059633,1170.933
638,1.061333,1169.518
639,1.062967,1171.753
640,1.064633,1170.188
641,1.0663,1170.188
642,1.067967,1170.486
643,1.069633,1174.435
644,1.0713,1174.212
645,1.072967,1174.212
646,1.074633,1172.423
647,1.0763,1173.392
648,1.077967,1170.412
649,1.079633,1170.412
650,1.0813,1169.071
651,1.082967,1171.008
652,1.084633,1171.008
653,1.0863,1168.922
654,1.087967,1167.953
655,1.089633,1168.698
656,1.0913,1168.698
657,1.092967,1170.337
658,1.094633,1172.423
659,1.096333,1170.933
660,1.097967,1170.933
661,1.099617,1169.592
662,1.101283,1167.506
663,1.10295,1169.294
664,1.104617,1169.294
665,1.106283,1170.337
666,1.10795,1169.965
667,1.109617,1169.965
668,1.111283,1169.22
669,1.11295,1166.612
670,1.114617,1170.188
671,1.1163,1170.188
672,1.11795,1171.827
673,1.119617,1173.243
674,1.121283,1172.721
675,1.12295,1172.721
676,1.124617,1171.082
677,1.126283,1169.816
678,1.12795,1167.879
679,1.129667,1167.879
680,1.131283,1170.263
681,1.132983,1170.039
682,1.134617,1173.317
683,1.136283,1173.317
684,1.13795,1173.466
685,1.139617,1174.659
686,1.141283,1174.659
687,1.14295,1176.149
688,1.144617,1175.776
689,1.146283,1176.074
690,1.14795,1176.074
691,1.149617,1173.541
692,1.151283,1173.988
693,1.15295,1173.913
694,1.154617,1173.913
695,1.156283,1173.243
696,1.15795,1171.604
697,1.1596,1168.027
698,1.161267,1168.027
699,1.162933,1164.004
700,1.1646,1164.228
701,1.166267,1164.228
702,1.167933,1164.451
703,1.1696,1167.059
704,1.171267,1171.455
705,1.172933,1171.455
706,1.1746,1173.392
707,1.176267,1173.466
708,1.177933,1174.286
709,1.1796,1174.286
710,1.181267,1171.604
711,1.182933,1172.125
712,1.1846,1172.498
713,1.186267,1172.498
714,1.187933,1170.859
715,1.1896,1172.87
716,1.191267,1171.976
717,1.192933,1171.976
718,1.1946,1173.168
719,1.196267,1174.212
720,1.197933,1174.212
721,1.1996,1173.392
722,1.201267,1175.031
723,1.20295,1173.615
724,1.204667,1173.615
725,1.206267,1173.317
726,1.207933,1171.604
727,1.2096,1170.859
728,1.211283,1170.859
729,1.212933,1173.839
730,1.2146,1171.231
731,1.216267,1172.87
732,1.217933,1172.87
733,1.2196,1171.902
734,1.22125,1171.38
735,1.222917,1171.38
736,1.224583,1174.137
737,1.22625,1172.721
738,1.227917,1173.094
739,1.229583,1173.094
740,1.23135,1171.753
741,1.232917,1170.039
742,1.234583,1169.965
743,1.23625,1169.965
744,1.237917,1168.624
745,1.239583,1171.008
746,1.24125,1172.2
747,1.2429,1172.2
748,1.244567,1172.125
749,1.246233,1172.051
750,1.248,1170.337
751,1.249567,1170.337
752,1.251233,1171.827
753,1.2529,1174.137
754,1.254567,1174.137
755,1.256233,1173.69
756,1.2579,1174.212
757,1.259567,1175.106
758,1.261233,1175.106
759,1.2629,1174.063
760,1.26465,1173.839
761,1.266233,1171.529
762,1.2679,1171.529
763,1.269567,1167.208
764,1.271233,1165.196
765,1.2729,1163.855
766,1.274567,1163.855
767,1.276233,1164.302
768,1.277917,1166.984
769,1.279583,1166.984
770,1.281217,1169.22
771,1.282883,1174.063
772,1.28455,1174.137
773,1.286217,1174.137
774,1.287883,1173.988
775,1.28955,1174.957
776,1.291217,1173.913
777,1.292883,1173.913
778,1.29455,1177.341
779,1.296217,1179.129
780,1.297883,1176.447
781,1.29955,1176.447
782,1.301217,1176.819
783,1.302883,1176.521
784,1.30455,1176.521
785,1.306217,1173.019
786,1.307883,1175.627
787,1.30955,1172.498
788,1.311217,1172.498
789,1.312883,1169.89
790,1.31455,1170.635
791,1.316217,1167.655
792,1.317883,1167.655
793,1.31955,1170.114
794,1.321217,1171.306
795,1.322883,1168.773
796,1.32455,1168.773
797,1.326217,1168.996
798,1.327883,1169.965
799,1.32955,1168.475
800,1.331217,1168.475
801,1.332883,1173.094
802,1.33455,1172.572
803,1.336217,1172.572
804,1.337883,1171.827
805,1.339533,1172.423
806,1.3412,1169.667
807,1.342867,1169.667
808,1.344533,1172.2
809,1.3462,1171.976
810,1.347883,1169.89
811,1.349633,1169.89
812,1.3512,1170.859
813,1.352867,1172.796
814,1.354533,1173.466
815,1.3562,1173.466
816,1.357867,1174.286
817,1.359533,1174.435
818,1.3612,1174.435
819,1.362867,1170.412
820,1.364533,1166.835
821,1.366267,1169.071
822,1.367867,1169.071
823,1.369533,1170.337
824,1.3712,1172.572
825,1.372867,1173.392
826,1.374533,1173.392
827,1.3762,1170.71
828,1.377867,1167.282
829,1.379533,1164.451
830,1.3812,1164.451
831,1.382967,1166.463
832,1.384533,1166.835
833,1.386217,1169.145
834,1.387867,1169.145
835,1.389533,1171.231
836,1.3912,1168.847
837,1.392867,1168.847
838,1.394533,1171.753
839,1.3962,1171.38
840,1.397867,1171.976
841,1.399533,1171.976
842,1.401183,1175.18
843,1.40285,1171.678
844,1.404517,1172.274
845,1.406183,1172.274
846,1.40785,1170.486
847,1.409517,1167.655
848,1.411183,1168.549
849,1.41285,1168.549
850,1.414517,1167.282
851,1.416183,1169.518
852,1.41785,1169.518
853,1.419567,1171.082
854,1.421183,1173.839
855,1.42285,1173.541
856,1.424517,1173.541
857,1.426183,1172.2
858,1.42785,1170.784
859,1.429517,1170.039
860,1.431183,1170.039
861,1.432883,1171.753
862,1.434517,1170.71
863,1.436183,1171.827
864,1.43785,1171.827
865,1.439517,1170.114
866,1.441183,1167.133
867,1.44285,1167.133
868,1.444517,1166.016
869,1.446183,1164.675
870,1.44785,1163.706
871,1.449517,1163.706
872,1.451183,1164.451
873,1.45285,1168.698
874,1.454517,1170.263
875,1.456183,1170.263
876,1.45785,1173.913
877,1.459517,1175.404
878,1.461167,1174.286
879,1.462833,1174.286
880,1.4645,1174.212
881,1.466167,1171.231
882,1.4679,1172.051
883,1.4695,1172.051
884,1.471167,1172.87
885,1.472833,1172.945
886,1.4745,1172.945
887,1.476167,1172.796
888,1.477833,1170.561
889,1.4795,1169.369
890,1.481167,1169.369
891,1.482833,1170.412
892,1.48455,1169.518
893,1.486167,1171.455
894,1.487833,1171.455
895,1.4895,1172.125
896,1.491183,1169.816
897,1.492833,1171.082
898,1.4945,1171.082
899,1.496167,1168.996
900,1.497833,1167.432
901,1.4995,1167.432
902,1.501283,1166.835
903,1.502833,1168.177
904,1.5045,1168.027
905,1.506167,1168.027
906,1.507833,1170.039
907,1.5095,1172.498
908,1.511167,1173.913
909,1.512833,1173.913
910,1.5145,1173.765
911,1.516167,1170.71
912,1.517833,1170.486
913,1.519483,1170.486
914,1.52115,1167.58
915,1.522833,1167.655
916,1.524533,1167.506
