"ID","sea_time","fid_signal"
1,0,1171.827
2,0.001667,1171.827
3,0.003333,1171.231
4,0.005,1173.094
5,0.006767,1173.392
6,0.008333,1173.392
7,0.009983000000000001,1173.094
8,0.0117,1171.38
9,0.013317,1171.38
10,0.015,1167.133
11,0.01665,1169.294
12,0.018317,1166.761
13,0.019983,1166.761
14,0.02165,1165.271
15,0.023317,1165.271
16,0.024983,1162.365
17,0.02665,1162.365
18,0.028317,1165.792
19,0.029983,1165.643
20,0.03165,1166.612
21,0.033317,1166.612
22,0.034983,1169.145
23,0.03665,1169.294
24,0.038317,1169.294
25,0.039983,1169.592
26,0.041667,1167.879
27,0.043317,1166.463
28,0.044983,1166.463
29,0.04665,1162.887
30,0.048317,1163.557
31,0.049983,1165.122
32,0.05165,1165.122
33,0.053317,1163.334
34,0.054983,1163.483
35,0.05665,1162.365
36,0.058317,1162.365
37,0.059983,1163.781
38,0.06165,1164.824
39,0.063317,1164.824
40,0.064983,1166.09
41,0.06665,1165.42
42,0.068317,1161.993
43,0.069983,1161.993
44,0.071633,1161.769
45,0.0733,1160.651
46,0.07496700000000001,1161.695
47,0.07663300000000001,1161.695
48,0.07829999999999999,1163.781
49,0.079967,1166.835
50,0.081633,1168.922
51,0.0833,1168.922
52,0.084967,1170.263
53,0.086633,1169.443
54,0.0883,1169.443
55,0.08996700000000001,1165.718
56,0.091683,1163.855
57,0.09329999999999999,1162.067
58,0.094967,1162.067
59,0.096633,1165.196
60,0.0983,1167.432
61,0.099967,1167.879
62,0.101633,1167.879
63,0.1033,1170.114
64,0.104967,1165.867
65,0.106633,1160.949
66,0.108367,1160.949
67,0.109967,1159.906
68,0.111633,1157.895
69,0.1133,1158.64
70,0.114967,1158.64
71,0.116667,1162.887
72,0.1183,1166.463
73,0.119967,1166.463
74,0.121633,1165.792
75,0.1233,1164.824
76,0.12505,1163.483
77,0.126633,1163.483
78,0.128283,1161.024
79,0.12995,1162.44
80,0.131617,1165.643
81,0.133283,1165.643
82,0.13495,1167.804
83,0.136617,1170.263
84,0.138267,1172.423
85,0.139933,1172.423
86,0.1416,1170.71
87,0.143267,1169.071
88,0.144933,1169.071
89,0.1466,1166.91
90,0.148267,1164.6
91,0.149933,1164.898
92,0.1516,1164.898
93,0.153267,1167.879
94,0.154933,1169.294
95,0.1566,1171.976
96,0.158267,1171.976
97,0.159933,1170.933
98,0.1616,1167.655
99,0.163267,1165.792
100,0.164933,1165.792
101,0.1666,1162.291
102,0.168267,1165.867
103,0.169933,1169.294
104,0.1716,1169.294
105,0.173267,1171.678
106,0.174933,1172.572
107,0.1766,1172.572
108,0.1783,1171.902
109,0.179933,1170.114
110,0.1816,1167.506
111,0.183267,1167.506
112,0.18495,1166.91
113,0.186633,1165.569
114,0.188267,1164.6
115,0.189933,1164.6
116,0.191583,1165.718
117,0.19325,1165.867
118,0.194917,1166.686
119,0.196583,1166.686
120,0.19825,1166.537
121,0.199917,1167.879
122,0.201583,1167.879
123,0.20325,1167.506
124,0.204917,1166.09
125,0.206583,1166.388
126,0.20825,1166.388
127,0.209967,1163.93
128,0.211583,1164.824
129,0.21325,1164.973
130,0.214917,1164.973
131,0.216583,1164.153
132,0.21825,1166.314
133,0.219917,1168.177
134,0.221583,1168.177
135,0.22325,1171.008
136,0.224917,1172.349
137,0.226583,1170.263
138,0.22825,1170.263
139,0.229917,1169.518
140,0.231583,1171.082
141,0.23325,1171.082
142,0.234917,1177.639
143,0.236583,1191.944
144,0.23825,1208.857
145,0.239917,1208.857
146,0.241583,1233.742
147,0.2433,1267.94
148,0.244917,1309.44
149,0.246583,1309.44
150,0.24825,1361.966
151,0.249917,1421.496
152,0.251567,1494.214
153,0.253233,1494.214
154,0.2549,1579.896
155,0.256567,1679.137
156,0.258233,1679.137
157,0.2599,1792.759
158,0.261583,1912.49
159,0.26325,2043.024
160,0.2649,2043.024
161,0.266567,2181.232
162,0.268233,2329.797
163,0.2699,2489.76
164,0.271567,2489.76
165,0.273233,2655.536
166,0.2749,2828.464
167,0.276567,3002.882
168,0.278233,3002.882
169,0.2799,3185.198
170,0.281567,3375.188
171,0.283233,3375.188
172,0.2849,3570.169
173,0.286567,3777.295
174,0.288233,3991.276
175,0.2899,3991.276
176,0.291567,4209.652
177,0.293233,4441.44
178,0.2949,4678.89
179,0.296567,4678.89
180,0.298233,4926.771
181,0.2999,5188.361
182,0.301567,5460.903
183,0.303233,5460.903
184,0.3049,5746.26
185,0.306567,6046.667
186,0.308233,6363.541
187,0.309883,6363.541
188,0.31155,6695.911
189,0.313217,7047.877
190,0.314883,7047.877
191,0.31655,7417.053
192,0.318217,7807.985
193,0.319883,8223.206
194,0.32155,8223.206
195,0.323217,8669.941999999999
196,0.324883,9154.305
197,0.32655,9686.871999999999
198,0.328217,9686.871999999999
199,0.329883,10293.126
200,0.33155,11006.072
201,0.333217,11881.813
202,0.334883,11881.813
203,0.33655,12988.746
204,0.338217,14407.411
205,0.339883,14407.411
206,0.34155,16225.726
207,0.343217,18501.654
208,0.344883,21260.307
209,0.34655,21260.307
210,0.348217,24455.859
211,0.349883,27953.387
212,0.35155,31548.365
213,0.353217,31548.365
214,0.354883,34976.898
215,0.35655,37970.469
216,0.358217,40285.289
217,0.359883,40285.289
218,0.36165,41754.098
219,0.363217,42298.809
220,0.364883,41931.793
221,0.36655,41931.793
222,0.368217,40749.906
223,0.369867,38906.633
224,0.371533,38906.633
225,0.3732,36583.172
226,0.374867,33956.543
227,0.376533,31195.656
228,0.3782,31195.656
229,0.379867,28424.859
230,0.381533,25743.768
231,0.3832,23217.424
232,0.384867,23217.424
233,0.386533,20879.283
234,0.3882,18747.822
235,0.389867,16826.465
236,0.391533,16826.465
237,0.3932,15107.394
238,0.394867,13578.684
239,0.396533,13578.684
240,0.3982,12224.391
241,0.399867,11023.06
242,0.401567,9959.861000000001
243,0.4032,9959.861000000001
244,0.404867,9018.556
245,0.406533,8188.337
246,0.4082,7453.934
247,0.409867,7453.934
248,0.411533,6804.69
249,0.4132,6232.858
250,0.414867,5723.983
251,0.41655,5723.983
252,0.4182,5271.957
253,0.419867,4872.978
254,0.421533,4516.318
255,0.4232,4516.318
256,0.424867,4199.296
257,0.426533,3917.515
258,0.428183,3917.515
259,0.429833,3665.686
260,0.4315,3440.38
261,0.433167,3242.493
262,0.434833,3242.493
263,0.4365,3068.224
264,0.438167,2908.93
265,0.439833,2765.134
266,0.4415,2765.134
267,0.443167,2634.525
268,0.444833,2513.155
269,0.44655,2403.632
270,0.448167,2403.632
271,0.449833,2304.614
272,0.4515,2214.76
273,0.453167,2214.76
274,0.454833,2133.399
275,0.4565,2063.14
276,0.458167,1997.724
277,0.459833,1997.724
278,0.4615,1934.916
279,0.463167,1882.091
280,0.464833,1832.47
281,0.4665,1832.47
282,0.468167,1787.171
283,0.469833,1746.714
284,0.4715,1703.203
285,0.4732,1703.203
286,0.474833,1664.162
287,0.4765,1630.709
288,0.478167,1630.709
289,0.479933,1600.31
290,0.4815,1573.116
291,0.483167,1547.784
292,0.484833,1547.784
293,0.4865,1522.303
294,0.488167,1497.045
295,0.489817,1478.791
296,0.491483,1478.791
297,0.49315,1458.004
298,0.494817,1442.358
299,0.496483,1428.723
300,0.49815,1428.723
301,0.499817,1411.364
302,0.501483,1396.835
303,0.50315,1383.275
304,0.504817,1383.275
305,0.506483,1372.397
306,0.50815,1363.307
307,0.509833,1363.307
308,0.511483,1355.41
309,0.51315,1344.83
310,0.514817,1333.803
311,0.516483,1333.803
312,0.51815,1326.427
313,0.519817,1318.082
314,0.521483,1310.483
315,0.52315,1310.483
316,0.524817,1302.734
317,0.526483,1295.656
318,0.52815,1290.59
319,0.529817,1290.59
320,0.531483,1284.48
321,0.53315,1279.712
322,0.534817,1279.712
323,0.536483,1270.697
324,0.53815,1261.532
325,0.539817,1257.062
326,0.541483,1257.062
327,0.54315,1253.262
328,0.544833,1252.07
329,0.5464830000000001,1249.462
330,0.548133,1249.462
331,0.5498,1244.396
332,0.551467,1238.137
333,0.553133,1231.432
334,0.5548,1231.432
335,0.556467,1230.463
336,0.558133,1231.581
337,0.5598,1231.208
338,0.561467,1231.208
339,0.563133,1230.687
340,0.56485,1227.185
341,0.5664670000000001,1227.185
342,0.568133,1223.385
343,0.5698,1223.013
344,0.5714669999999999,1224.875
345,0.573133,1224.875
346,0.5748,1224.13
347,0.576467,1220.703
348,0.578133,1216.978
349,0.5798,1216.978
350,0.581467,1213.625
351,0.583133,1214.445
352,0.5848,1215.711
353,0.586467,1215.711
354,0.588133,1214.817
355,0.5898,1211.613
356,0.591467,1211.613
357,0.593133,1207.59
358,0.5948329999999999,1205.727
359,0.596467,1203.716
360,0.5982499999999999,1203.716
361,0.5998,1204.684
362,0.601467,1204.535
363,0.603133,1201.108
364,0.6048,1201.108
365,0.606467,1199.245
366,0.608133,1198.053
367,0.6098,1196.712
368,0.61145,1196.712
369,0.613117,1197.457
370,0.614783,1201.034
371,0.6164500000000001,1200.214
372,0.618117,1200.214
373,0.619783,1197.532
374,0.6214499999999999,1198.5
375,0.62315,1198.5
376,0.624783,1193.285
377,0.62645,1190.677
378,0.628117,1193.062
379,0.629783,1193.062
380,0.63145,1191.944
381,0.633117,1194.104
382,0.634783,1195.446
383,0.63645,1195.446
384,0.638117,1192.465
385,0.639783,1191.72
386,0.64145,1190.454
387,0.643117,1190.454
388,0.644783,1192.242
389,0.646467,1195.073
390,0.6481170000000001,1195.073
391,0.649783,1192.465
392,0.65145,1190.603
393,0.6531169999999999,1186.505
394,0.654783,1186.505
395,0.65645,1182.854
396,0.658117,1182.78
397,0.659783,1183.227
398,0.66145,1183.227
399,0.663117,1183.599
400,0.664783,1185.685
401,0.66645,1186.729
402,0.6681,1186.729
403,0.669767,1186.356
404,0.67145,1185.164
405,0.673133,1185.76
406,0.674767,1185.76
407,0.676433,1185.164
408,0.6781,1185.536
409,0.679767,1185.536
410,0.681433,1185.983
411,0.683167,1183.078
412,0.684767,1185.909
413,0.686483,1185.909
414,0.6881,1186.207
415,0.689767,1186.207
416,0.691433,1186.877
417,0.6931,1186.877
418,0.694767,1184.195
419,0.696433,1185.909
420,0.6981000000000001,1186.058
421,0.699867,1186.058
422,0.701433,1184.717
423,0.7030999999999999,1183.376
424,0.704767,1183.376
425,0.706433,1180.321
426,0.7081,1179.799
427,0.709767,1180.992
428,0.711433,1180.992
429,0.7131,1183.301
430,0.714767,1183.45
431,0.716517,1183.674
432,0.7181,1183.674
433,0.719767,1183.45
434,0.721417,1179.576
435,0.723083,1178.905
436,0.72475,1178.905
437,0.726417,1178.682
438,0.728083,1181.141
439,0.729733,1181.141
440,0.7314000000000001,1181.513
441,0.733067,1182.407
442,0.734733,1182.631
443,0.7364000000000001,1182.631
444,0.738067,1179.576
445,0.739733,1180.023
446,0.7413999999999999,1182.407
447,0.743067,1182.407
448,0.744733,1182.556
449,0.7464,1182.258
450,0.748067,1182.631
451,0.749733,1182.631
452,0.7514,1179.576
453,0.753067,1175.255
454,0.754733,1173.541
455,0.7564,1173.541
456,0.758083,1171.678
457,0.759767,1173.913
458,0.761417,1173.913
459,0.7630670000000001,1180.992
460,0.764733,1182.854
461,0.7664,1183.45
462,0.7680670000000001,1183.45
463,0.769733,1182.705
464,0.7714,1180.396
465,0.7730669999999999,1180.023
466,0.774733,1180.023
467,0.7764,1180.619
468,0.778067,1179.278
469,0.779733,1179.278
470,0.7814,1179.278
471,0.783067,1178.458
472,0.784733,1177.788
473,0.7864,1177.788
474,0.788067,1178.831
475,0.789717,1177.341
476,0.7913829999999999,1181.066
477,0.79305,1181.066
478,0.794717,1178.905
479,0.796383,1178.384
480,0.79805,1179.948
481,0.799717,1179.948
482,0.801383,1177.192
483,0.80305,1179.278
484,0.804717,1179.278
485,0.806383,1179.278
486,0.80805,1176.968
487,0.809717,1175.106
488,0.811383,1175.478
489,0.8130500000000001,1175.478
490,0.814717,1173.913
491,0.816383,1172.051
492,0.8181,1172.051
493,0.819717,1174.063
494,0.8214,1174.733
495,0.8230499999999999,1175.18
496,0.824717,1175.18
497,0.826383,1175.255
498,0.82805,1175.255
499,0.829717,1176.67
500,0.831383,1176.67
501,0.83305,1177.862
502,0.834817,1178.98
503,0.836383,1178.607
504,0.83805,1178.607
505,0.839717,1177.713
506,0.841383,1176.149
507,0.84305,1176.149
508,0.8447170000000001,1178.98
509,0.846383,1178.011
510,0.84805,1177.713
511,0.8497,1177.713
512,0.851483,1175.18
513,0.853033,1173.988
514,0.8547,1173.988
515,0.856367,1173.988
516,0.858033,1173.839
517,0.8597,1177.862
518,0.861367,1178.235
519,0.8630330000000001,1178.235
520,0.8647,1180.097
521,0.866367,1180.545
522,0.8680330000000001,1180.545
523,0.8697,1180.172
524,0.871367,1180.396
525,0.8730329999999999,1176.745
526,0.8747,1176.745
527,0.876367,1174.659
528,0.878033,1171.306
529,0.8797,1168.996
530,0.881367,1168.996
531,0.883033,1172.572
532,0.8847,1174.51
533,0.886367,1178.16
534,0.888033,1178.16
535,0.8897,1179.203
536,0.891367,1177.49
537,0.893033,1174.807
538,0.8947000000000001,1174.807
539,0.896367,1171.38
540,0.898033,1171.976
541,0.8997000000000001,1171.976
542,0.901383,1170.561
543,0.903033,1171.529
544,0.904733,1171.38
545,0.906367,1171.38
546,0.908033,1169.294
547,0.9097,1172.274
548,0.91135,1173.094
549,0.913017,1173.094
550,0.914683,1173.392
551,0.91635,1171.976
552,0.918017,1170.188
553,0.919683,1170.188
554,0.92135,1171.604
555,0.923017,1170.635
556,0.924683,1170.635
557,0.92635,1175.255
558,0.928017,1175.478
559,0.929683,1171.38
560,0.93135,1171.38
561,0.933017,1172.945
562,0.934683,1169.071
563,0.936383,1168.102
564,0.938017,1168.102
565,0.939683,1170.71
566,0.94135,1169.741
567,0.943017,1172.572
568,0.9446830000000001,1172.572
569,0.94635,1174.36
570,0.948017,1173.988
571,0.9496830000000001,1175.478
572,0.95135,1175.478
573,0.95305,1173.988
574,0.9546829999999999,1172.2
575,0.95635,1172.2
576,0.958017,1173.317
577,0.959683,1171.678
578,0.96135,1169.369
579,0.963017,1169.369
580,0.964683,1168.996
581,0.96635,1166.165
582,0.968017,1168.326
583,0.969783,1168.326
584,0.971333,1172.274
585,0.973,1174.882
586,0.974667,1176.149
587,0.976333,1176.149
588,0.978,1176.745
589,0.979667,1176.819
590,0.981333,1176.819
591,0.983,1174.957
592,0.984667,1176.521
593,0.986333,1176.223
594,0.988,1176.223
595,0.989667,1173.094
596,0.991333,1174.733
597,0.993,1175.627
598,0.994667,1175.627
599,0.996333,1172.796
600,0.998,1175.031
601,0.999667,1175.702
602,1.001333,1175.702
603,1.003,1174.137
604,1.004667,1176.149
605,1.006333,1175.478
606,1.008,1175.478
607,1.009667,1174.063
608,1.011333,1175.329
609,1.012983,1175.329
610,1.01465,1173.392
611,1.016317,1170.263
612,1.017983,1168.4
613,1.01965,1168.4
614,1.021317,1167.804
615,1.022983,1172.721
616,1.02465,1177.266
617,1.026317,1177.266
618,1.027983,1179.799
619,1.02965,1178.235
620,1.0313,1175.627
621,1.032967,1175.627
622,1.034633,1174.137
623,1.0363,1170.71
624,1.037967,1170.71
625,1.039633,1170.784
626,1.0413,1168.624
627,1.042967,1167.879
628,1.04465,1167.879
629,1.0463,1171.38
630,1.047967,1171.604
631,1.049633,1172.945
632,1.0513,1172.945
633,1.052967,1174.063
634,1.05465,1172.796
635,1.0563,1170.635
636,1.057967,1170.635
637,1.059633,1171.231
638,1.0613,1172.349
639,1.062967,1172.349
640,1.064633,1170.784
641,1.0663,1173.541
642,1.067967,1171.902
643,1.069633,1171.902
644,1.071333,1167.133
645,1.072967,1169.145
646,1.074633,1166.761
647,1.0763,1166.761
648,1.077967,1168.996
649,1.079633,1170.933
650,1.0813,1169.145
651,1.082967,1169.145
652,1.084633,1168.847
653,1.0863,1167.804
654,1.088067,1171.38
655,1.089633,1171.38
656,1.091283,1174.063
657,1.09295,1176.596
658,1.094617,1176.596
659,1.096283,1177.49
660,1.09795,1176.074
661,1.099617,1174.137
662,1.101283,1174.137
663,1.10295,1175.404
664,1.104617,1175.851
665,1.106283,1176.596
666,1.10795,1176.596
667,1.109617,1178.16
668,1.111283,1174.807
669,1.11295,1172.125
670,1.114617,1172.125
671,1.116283,1168.549
672,1.11795,1166.612
673,1.119617,1166.612
674,1.121283,1169.145
675,1.122983,1170.635
676,1.124617,1171.902
677,1.126283,1171.902
678,1.12795,1170.635
679,1.129617,1167.133
680,1.131283,1167.357
681,1.13295,1167.357
682,1.134617,1168.922
683,1.136283,1171.753
684,1.13795,1175.553
685,1.139633,1175.553
686,1.141283,1176.894
687,1.14295,1176.372
688,1.144617,1175.106
689,1.146283,1175.106
690,1.14795,1173.243
691,1.1496,1172.87
692,1.151267,1172.87
693,1.152933,1173.466
694,1.1546,1172.274
695,1.156267,1174.36
696,1.157933,1174.36
697,1.1596,1172.051
698,1.161267,1169.518
699,1.162933,1170.486
700,1.1646,1170.486
701,1.166267,1167.059
702,1.167933,1168.698
703,1.1696,1171.38
704,1.171267,1171.38
705,1.17295,1171.008
706,1.1746,1174.137
707,1.176267,1174.137
708,1.177933,1173.988
709,1.1796,1174.733
710,1.181267,1174.957
711,1.182933,1174.957
712,1.1846,1172.796
713,1.186267,1174.659
714,1.187933,1173.839
715,1.189617,1173.839
716,1.191267,1175.255
717,1.192933,1176.894
718,1.1946,1176.074
719,1.196267,1176.074
720,1.197933,1172.796
721,1.1996,1172.647
722,1.201267,1169.965
723,1.202933,1169.965
724,1.2046,1167.432
725,1.206367,1166.016
726,1.207917,1166.016
727,1.209583,1164.302
728,1.21125,1166.761
729,1.212917,1167.953
730,1.214583,1167.953
731,1.21625,1171.529
732,1.217917,1173.988
733,1.219583,1175.553
734,1.22125,1175.553
735,1.222917,1175.404
736,1.2246,1176.819
737,1.22625,1174.659
738,1.227917,1174.659
739,1.229583,1170.486
740,1.231267,1169.89
741,1.232917,1169.89
742,1.234583,1166.612
743,1.23625,1166.09
744,1.237917,1167.655
745,1.239583,1167.655
746,1.24125,1167.506
747,1.242917,1170.71
748,1.244583,1171.38
749,1.24625,1171.38
750,1.247917,1169.145
751,1.249583,1168.922
752,1.25125,1169.965
753,1.252917,1169.965
754,1.254583,1171.231
755,1.25625,1174.584
756,1.257917,1173.988
757,1.259583,1173.988
758,1.26125,1170.263
759,1.262933,1167.58
760,1.264583,1167.58
761,1.26625,1166.463
762,1.267917,1165.643
763,1.269583,1165.569
764,1.271233,1165.569
765,1.2729,1167.804
766,1.274567,1168.773
767,1.276233,1170.188
768,1.2779,1170.188
769,1.279567,1170.337
770,1.281233,1168.847
771,1.2829,1168.102
772,1.284567,1168.102
773,1.286233,1167.059
774,1.2879,1169.667
775,1.289567,1169.667
776,1.2913,1172.498
777,1.2929,1177.192
778,1.294567,1181.662
779,1.296233,1181.662
780,1.2979,1178.086
781,1.299567,1176.968
782,1.301233,1174.659
783,1.3029,1174.659
784,1.30455,1173.094
785,1.306217,1175.404
786,1.307883,1173.019
787,1.30955,1173.019
788,1.311233,1169.667
789,1.312883,1167.282
790,1.31455,1167.282
791,1.316217,1165.569
792,1.317883,1164.973
793,1.31955,1164.973
794,1.321217,1164.973
795,1.322883,1164.526
796,1.32465,1167.729
797,1.326217,1170.188
798,1.327883,1170.188
799,1.329533,1171.082
800,1.3312,1174.807
801,1.332867,1175.404
802,1.334533,1175.404
803,1.3362,1176.149
804,1.337867,1176.819
805,1.339533,1174.659
806,1.341233,1174.659
807,1.342867,1171.604
808,1.344533,1170.859
809,1.3462,1170.859
810,1.347867,1168.847
811,1.349533,1167.879
812,1.3512,1166.761
813,1.352867,1166.761
814,1.354533,1166.537
815,1.3562,1168.549
816,1.357867,1169.071
817,1.359533,1169.071
818,1.3612,1169.369
819,1.362867,1169.443
820,1.364533,1168.251
821,1.3662,1168.251
822,1.367867,1171.008
823,1.369533,1172.572
824,1.3712,1172.572
825,1.372867,1171.157
826,1.374533,1169.369
827,1.3762,1167.953
828,1.377867,1167.953
829,1.379533,1166.388
830,1.3812,1167.58
831,1.382867,1171.082
832,1.384533,1171.082
833,1.3862,1169.145
834,1.387867,1170.784
835,1.389517,1172.349
836,1.391183,1172.349
837,1.39285,1170.412
838,1.394517,1173.168
839,1.396183,1174.212
840,1.39785,1174.212
841,1.399533,1174.957
842,1.401217,1177.043
843,1.40285,1177.043
844,1.404533,1175.329
845,1.406233,1174.286
846,1.40785,1170.263
847,1.409567,1170.263
848,1.411183,1167.282
849,1.41285,1166.239
850,1.414517,1166.314
851,1.416183,1166.314
852,1.41785,1168.922
853,1.419517,1169.518
854,1.421183,1171.678
855,1.42285,1171.678
856,1.424517,1169.145
857,1.426183,1166.91
858,1.42785,1166.91
859,1.429517,1166.835
860,1.431183,1165.494
861,1.43285,1167.208
862,1.434517,1167.208
863,1.436183,1167.506
864,1.43785,1168.4
865,1.439517,1170.039
866,1.441183,1170.039
867,1.4429,1172.051
868,1.444517,1171.455
869,1.446183,1169.22
870,1.447833,1169.22
871,1.4495,1168.475
872,1.451167,1168.624
873,1.452833,1168.624
874,1.4545,1171.38
875,1.456167,1172.87
876,1.457833,1171.157
877,1.4595,1171.157
878,1.461167,1168.996
879,1.462833,1167.879
880,1.4645,1167.58
881,1.466167,1167.58
882,1.467833,1168.102
883,1.4695,1166.835
884,1.471167,1167.506
885,1.472833,1167.506
886,1.4745,1165.792
887,1.476167,1166.537
888,1.477833,1168.4
889,1.4795,1168.4
890,1.481167,1167.133
891,1.482833,1169.071
892,1.4845,1169.071
893,1.486167,1168.102
894,1.487833,1168.102
895,1.4895,1170.412
896,1.491167,1170.412
897,1.492833,1169.89
898,1.4945,1168.996
899,1.496167,1168.996
900,1.497833,1168.996
901,1.4995,1168.773
902,1.501167,1171.38
903,1.502833,1174.063
904,1.5045,1174.063
905,1.506167,1173.243
906,1.507833,1170.784
907,1.509483,1170.784
908,1.51115,1168.549
909,1.512817,1166.314
910,1.514483,1164.526
911,1.51615,1164.526
912,1.517817,1163.781
913,1.519483,1162.812
914,1.52115,1164.302
915,1.522817,1164.302
916,1.524483,1164.526
917,1.52615,1167.879
918,1.527883,1171.38
919,1.529483,1171.38
