"ID","sea_time","fid_signal"
1,0,28.581
2,0.001717,28.581
3,0.003333,28.577
4,0.005,28.577
5,0.006667,28.579
6,0.008333,28.566
7,0.01,28.566
8,0.011667,28.505
9,0.013333,28.432
10,0.015,28.363
11,0.016667,28.363
12,0.018333,28.33
13,0.02,28.353
14,0.021667,28.406
15,0.023333,28.406
16,0.025,28.454
17,0.026667,28.492
18,0.028333,28.514
19,0.03,28.514
20,0.031667,28.526
21,0.033333,28.535
22,0.035,28.535
23,0.036667,28.535
24,0.03835,28.541
25,0.04,28.547
26,0.041667,28.547
27,0.043317,28.555
28,0.044983,28.558
29,0.04665,28.563
30,0.048317,28.563
31,0.049967,28.566
32,0.051667,28.566
33,0.0533,28.569
34,0.055,28.569
35,0.056633,28.571
36,0.0583,28.567
37,0.059967,28.56
38,0.061633,28.56
39,0.0633,28.552
40,0.064967,28.542
41,0.066633,28.542
42,0.0683,28.544
43,0.069967,28.551
44,0.07165000000000001,28.559
45,0.0733,28.559
46,0.07496700000000001,28.568
47,0.07663300000000001,28.574
48,0.07829999999999999,28.578
49,0.079967,28.578
50,0.081633,28.583
51,0.0833,28.577
52,0.084967,28.573
53,0.086633,28.573
54,0.088417,28.568
55,0.08996700000000001,28.562
56,0.09165,28.566
57,0.09329999999999999,28.566
58,0.094967,28.567
59,0.096633,28.569
60,0.0983,28.569
61,0.099967,28.568
62,0.101617,28.565
63,0.1033,28.564
64,0.10495,28.564
65,0.106617,28.562
66,0.108283,28.558
67,0.10995,28.559
68,0.111617,28.559
69,0.113283,28.566
70,0.11495,28.566
71,0.116617,28.568
72,0.118283,28.568
73,0.11995,28.568
74,0.121617,28.561
75,0.123283,28.561
76,0.12495,28.561
77,0.126617,28.563
78,0.128283,28.564
79,0.129983,28.564
80,0.131617,28.564
81,0.133283,28.566
82,0.13495,28.57
83,0.136617,28.57
84,0.138283,28.574
85,0.13995,28.579
86,0.141617,28.578
87,0.143283,28.578
88,0.14495,28.576
89,0.146617,28.578
90,0.148283,28.578
91,0.14995,28.578
92,0.151617,28.583
93,0.153283,28.585
94,0.15495,28.585
95,0.156617,28.585
96,0.158283,28.585
97,0.15995,28.577
98,0.161633,28.577
99,0.163317,28.577
100,0.164933,28.572
101,0.1666,28.569
102,0.168267,28.569
103,0.169933,28.573
104,0.1716,28.579
105,0.173267,28.58
106,0.174933,28.58
107,0.1766,28.58
108,0.178267,28.578
109,0.179933,28.578
110,0.1816,28.573
111,0.183267,28.571
112,0.184933,28.571
113,0.1866,28.571
114,0.188267,28.574
115,0.18995,28.571
116,0.1916,28.57
117,0.193267,28.57
118,0.194933,28.571
119,0.1966,28.569
120,0.198267,28.575
121,0.199933,28.575
122,0.2016,28.575
123,0.203267,28.572
124,0.204933,28.572
125,0.206717,28.574
126,0.208267,28.567
127,0.209933,28.568
128,0.2116,28.568
129,0.213267,28.569
130,0.214933,28.566
131,0.2166,28.567
132,0.218267,28.567
133,0.219933,28.566
134,0.2216,28.563
135,0.22325,28.561
136,0.224917,28.561
137,0.226583,28.557
138,0.22825,28.559
139,0.229917,28.563
140,0.231583,28.563
141,0.23325,28.566
142,0.234917,28.572
143,0.236583,28.572
144,0.23825,28.575
145,0.239917,28.586
146,0.241583,28.597
147,0.24325,28.597
148,0.244917,28.607
149,0.246583,28.622
150,0.24825,28.632
151,0.249917,28.632
152,0.251583,28.64
153,0.253267,28.654
154,0.254933,28.67
155,0.256583,28.67
156,0.25825,28.688
157,0.259917,28.705
158,0.261583,28.705
159,0.26325,28.719
160,0.264917,28.732
161,0.266583,28.749
162,0.26825,28.749
163,0.269917,28.771
164,0.271583,28.794
165,0.27325,28.822
166,0.274933,28.822
167,0.276583,28.851
168,0.27825,28.889
169,0.279917,28.936
170,0.281583,28.936
171,0.283233,28.985
172,0.2849,29.035
173,0.286567,29.035
174,0.288233,29.089
175,0.2899,29.149
176,0.291633,29.214
177,0.293233,29.214
178,0.2949,29.29
179,0.296567,29.384
180,0.298233,29.481
181,0.2999,29.481
182,0.301567,29.6
183,0.303233,29.738
184,0.3049,29.893
185,0.306567,29.893
186,0.308317,30.084
187,0.3099,30.307
188,0.311567,30.575
189,0.313233,30.575
190,0.3149,30.902
191,0.316567,31.304
192,0.318233,31.304
193,0.3199,31.807
194,0.321567,32.434
195,0.323233,33.201
196,0.324983,33.201
197,0.326567,34.141
198,0.328233,35.259
199,0.3299,36.571
200,0.331567,36.571
201,0.333233,38.077
202,0.3349,39.746
203,0.336567,41.551
204,0.338233,41.551
205,0.339883,43.434
206,0.34155,45.338
207,0.343217,45.338
208,0.344917,47.185
209,0.346533,48.911
210,0.3482,50.445
211,0.349867,50.445
212,0.351533,51.731
213,0.353233,52.728
214,0.354867,53.408
215,0.356533,53.408
216,0.3582,53.763
217,0.359867,53.796
218,0.361533,53.528
219,0.3632,53.528
220,0.364867,52.986
221,0.366533,52.199
222,0.3682,51.211
223,0.369867,51.211
224,0.371533,50.063
225,0.3732,48.793
226,0.374867,48.793
227,0.376533,47.467
228,0.3782,46.108
229,0.379867,44.749
230,0.381533,44.749
231,0.3832,43.413
232,0.384867,42.118
233,0.386533,40.886
234,0.3882,40.886
235,0.389867,39.73
236,0.391533,38.654
237,0.3932,37.654
238,0.394867,37.654
239,0.396533,36.734
240,0.3982,35.889
241,0.399867,35.889
242,0.401533,35.127
243,0.403183,34.437
244,0.40485,33.824
245,0.406517,33.824
246,0.408183,33.284
247,0.409867,32.8
248,0.411517,32.375
249,0.413183,32.375
250,0.41485,31.99
251,0.416517,31.648
252,0.418183,31.356
253,0.419883,31.356
254,0.421517,31.101
255,0.423183,30.885
256,0.42485,30.694
257,0.42655,30.694
258,0.4282,30.519
259,0.42985,30.371
260,0.431517,30.371
261,0.433183,30.233
262,0.43485,30.115
263,0.436517,30.012
264,0.438183,30.012
265,0.43985,29.915
266,0.441517,29.833
267,0.4433,29.759
268,0.44485,29.759
269,0.446517,29.691
270,0.448183,29.632
271,0.44985,29.586
272,0.451517,29.586
273,0.453183,29.543
274,0.45485,29.511
275,0.456517,29.511
276,0.458183,29.478
277,0.45985,29.441
278,0.461517,29.412
279,0.463167,29.412
280,0.464833,29.383
281,0.4665,29.357
282,0.468167,29.336
283,0.469833,29.336
284,0.4715,29.312
285,0.473167,29.298
286,0.474833,29.281
287,0.4765,29.281
288,0.478167,29.268
289,0.479833,29.257
290,0.4815,29.257
291,0.483167,29.241
292,0.484833,29.235
293,0.4865,29.232
294,0.488167,29.232
295,0.489833,29.229
296,0.4915,29.231
297,0.493167,29.223
298,0.494883,29.223
299,0.4965,29.212
300,0.498167,29.204
301,0.499833,29.189
302,0.5014999999999999,29.189
303,0.503167,29.182
304,0.504833,29.169
305,0.5065,29.162
306,0.508167,29.162
307,0.509867,29.16
308,0.5115,29.153
309,0.513167,29.153
310,0.514833,29.15
311,0.5165,29.149
312,0.518167,29.145
313,0.519833,29.145
314,0.5215,29.144
315,0.523167,29.137
316,0.524817,29.131
317,0.526483,29.131
318,0.528183,29.127
319,0.529817,29.13
320,0.531483,29.139
321,0.53315,29.139
322,0.534817,29.137
323,0.536483,29.137
324,0.53815,29.137
325,0.539817,29.131
326,0.541483,29.12
327,0.54315,29.112
328,0.544917,29.112
329,0.5464830000000001,29.097
330,0.54815,29.082
331,0.549817,29.075
332,0.5514829999999999,29.075
333,0.55315,29.072
334,0.554817,29.078
335,0.5564829999999999,29.081
336,0.55815,29.081
337,0.559817,29.078
338,0.5615329999999999,29.074
339,0.56315,29.064
340,0.564833,29.064
341,0.566483,29.059
342,0.56815,29.056
343,0.569817,29.056
344,0.571483,29.054
345,0.57315,29.049
346,0.574817,29.048
347,0.576483,29.048
348,0.57825,29.043
349,0.579817,29.04
350,0.581483,29.035
351,0.583133,29.035
352,0.5848,29.025
353,0.586467,29.023
354,0.588133,29.018
355,0.5898,29.018
356,0.591467,29.021
357,0.593133,29.025
358,0.5948,29.025
359,0.596467,29.024
360,0.598133,29.023
361,0.5998,29.017
362,0.601467,29.017
363,0.603167,29.007
364,0.6048,28.999
365,0.606467,28.988
366,0.608133,28.988
367,0.6098,28.981
368,0.611467,28.979
369,0.613133,28.976
370,0.6148,28.976
371,0.616467,28.981
372,0.618133,28.975
373,0.6198,28.977
374,0.621467,28.977
375,0.623133,28.983
376,0.6248,28.985
377,0.626467,28.985
378,0.6281330000000001,28.99
379,0.6298,28.984
380,0.63145,28.975
381,0.6331329999999999,28.975
382,0.634783,28.971
383,0.63645,28.97
384,0.638117,28.975
385,0.639783,28.975
386,0.64145,28.98
387,0.6431,28.98
388,0.644767,28.979
389,0.646433,28.979
390,0.6481,28.979
391,0.649767,28.979
392,0.651433,28.979
393,0.6531,28.978
394,0.654767,28.978
395,0.656433,28.97
396,0.6581,28.97
397,0.659767,28.962
398,0.661433,28.959
399,0.663167,28.952
400,0.664767,28.952
401,0.6664330000000001,28.952
402,0.6681,28.956
403,0.669767,28.955
404,0.6714329999999999,28.955
405,0.6731,28.96
406,0.674767,28.961
407,0.676433,28.961
408,0.6781,28.962
409,0.679883,28.961
410,0.681433,28.956
411,0.6831,28.956
412,0.684767,28.954
413,0.68645,28.943
414,0.6881,28.943
415,0.689767,28.943
416,0.691433,28.949
417,0.6931,28.946
418,0.694767,28.949
419,0.69655,28.949
420,0.6981000000000001,28.952
421,0.699767,28.944
422,0.701433,28.945
423,0.703083,28.945
424,0.70475,28.944
425,0.706417,28.94
426,0.708083,28.94
427,0.70975,28.942
428,0.711433,28.938
429,0.713133,28.941
430,0.71475,28.941
431,0.716417,28.942
432,0.718083,28.937
433,0.71975,28.934
434,0.721417,28.934
435,0.723083,28.927
436,0.72475,28.926
437,0.726417,28.922
438,0.728083,28.922
439,0.72975,28.922
440,0.731417,28.926
441,0.733083,28.926
442,0.73475,28.918
443,0.736417,28.917
444,0.738083,28.917
445,0.73975,28.917
446,0.741417,28.908
447,0.743083,28.906
448,0.74475,28.905
449,0.746417,28.905
450,0.7480830000000001,28.905
451,0.74975,28.908
452,0.751417,28.909
453,0.7530829999999999,28.909
454,0.75475,28.908
455,0.756417,28.905
456,0.758083,28.904
457,0.75975,28.904
458,0.761417,28.9
459,0.7630670000000001,28.896
460,0.76475,28.896
461,0.766433,28.889
462,0.7680670000000001,28.883
463,0.769733,28.881
464,0.7714,28.881
465,0.7730669999999999,28.884
466,0.774733,28.883
467,0.7764,28.881
468,0.778067,28.881
469,0.7797500000000001,28.879
470,0.78145,28.877
471,0.783067,28.875
472,0.784733,28.875
473,0.7864,28.876
474,0.788067,28.881
475,0.789733,28.881
476,0.7914,28.883
477,0.793067,28.885
478,0.794733,28.879
479,0.7964,28.879
480,0.798117,28.866
481,0.799733,28.858
482,0.8014,28.857
483,0.803067,28.857
484,0.804733,28.863
485,0.8064,28.866
486,0.808067,28.866
487,0.809733,28.866
488,0.8114,28.859
489,0.813067,28.857
490,0.81475,28.852
491,0.8164,28.852
492,0.818067,28.851
493,0.819733,28.855
494,0.821383,28.855
495,0.8230499999999999,28.854
496,0.824717,28.851
497,0.826383,28.843
498,0.82805,28.843
499,0.829717,28.842
500,0.8314,28.837
501,0.83305,28.838
502,0.834717,28.838
503,0.836383,28.844
504,0.83805,28.846
505,0.839717,28.851
506,0.841383,28.851
507,0.84305,28.859
508,0.8447170000000001,28.855
509,0.846383,28.855
510,0.84805,28.855
511,0.8497169999999999,28.848
512,0.851383,28.841
513,0.853067,28.841
514,0.8547169999999999,28.84
515,0.856417,28.835
516,0.85805,28.835
517,0.859717,28.835
518,0.861383,28.836
519,0.86305,28.835
520,0.864717,28.838
521,0.866383,28.838
522,0.86805,28.839
523,0.869717,28.839
524,0.871383,28.837
525,0.87305,28.837
526,0.874717,28.829
527,0.876383,28.829
528,0.87805,28.829
529,0.879717,28.83
530,0.881383,28.835
531,0.883033,28.846
532,0.8847,28.846
533,0.886367,28.845
534,0.888033,28.848
535,0.8897,28.849
536,0.891367,28.849
537,0.893033,28.847
538,0.8947000000000001,28.851
539,0.896367,28.843
540,0.898033,28.843
541,0.8997000000000001,28.838
542,0.901367,28.839
543,0.903033,28.839
544,0.9046999999999999,28.836
545,0.906367,28.833
546,0.908033,28.834
547,0.9097,28.834
548,0.911367,28.828
549,0.913033,28.827
550,0.9147,28.837
551,0.916417,28.837
552,0.918033,28.836
553,0.9197,28.838
554,0.921367,28.838
555,0.923017,28.838
556,0.924683,28.834
557,0.92635,28.841
558,0.928017,28.841
559,0.9297,28.848
560,0.9314,28.848
561,0.933133,28.847
562,0.934683,28.847
563,0.93635,28.842
564,0.938017,28.836
565,0.939683,28.837
566,0.941333,28.837
567,0.9429999999999999,28.84
568,0.944667,28.847
569,0.946333,28.852
570,0.948,28.852
571,0.949667,28.853
572,0.951333,28.854
573,0.953,28.848
574,0.954667,28.848
575,0.956333,28.842
576,0.958,28.846
577,0.959667,28.846
578,0.961333,28.847
579,0.963,28.846
580,0.9646670000000001,28.852
581,0.966333,28.852
582,0.968,28.856
583,0.9696669999999999,28.861
584,0.971333,28.87
585,0.973,28.87
586,0.974667,28.87
587,0.976333,28.874
588,0.978,28.88
589,0.979667,28.88
590,0.981333,28.879
591,0.983,28.874
592,0.984667,28.874
593,0.986333,28.868
594,0.988,28.856
595,0.989667,28.849
596,0.991333,28.849
597,0.993,28.855
598,0.994667,28.863
599,0.996333,28.873
600,0.998,28.873
601,0.999667,28.884
602,1.001333,28.884
603,1.003,28.876
604,1.00465,28.876
605,1.006333,28.874
606,1.007983,28.87
607,1.00965,28.871
608,1.011317,28.871
609,1.012983,28.873
610,1.01465,28.878
611,1.016317,28.878
612,1.01805,28.881
613,1.01965,28.88
614,1.021317,28.88
615,1.022983,28.88
616,1.02465,28.877
617,1.026317,28.882
618,1.027983,28.885
619,1.02965,28.885
620,1.031317,28.885
621,1.032983,28.885
622,1.03465,28.886
623,1.036317,28.886
624,1.037983,28.892
625,1.03965,28.901
626,1.041317,28.901
627,1.042983,28.909
628,1.04465,28.911
629,1.046317,28.917
630,1.047983,28.917
631,1.04965,28.919
632,1.051433,28.92
633,1.052983,28.928
634,1.05465,28.928
635,1.056317,28.926
636,1.057983,28.933
637,1.05965,28.939
638,1.061317,28.939
639,1.062967,28.943
640,1.064633,28.951
641,1.0663,28.951
642,1.067967,28.956
643,1.069633,28.961
644,1.0713,28.969
645,1.072967,28.969
646,1.074633,28.976
647,1.0763,28.982
648,1.077983,28.988
649,1.079633,28.988
650,1.0813,28.994
651,1.082967,28.998
652,1.084633,29.005
653,1.0863,29.005
654,1.087967,29.012
655,1.089633,29.013
656,1.0913,29.025
657,1.092967,29.025
658,1.094633,29.034
659,1.0963,29.044
660,1.097967,29.044
661,1.099633,29.055
662,1.1013,29.061
663,1.102967,29.073
664,1.104633,29.073
665,1.1063,29.085
666,1.107967,29.103
667,1.109633,29.111
668,1.1113,29.111
669,1.112967,29.115
670,1.114633,29.122
671,1.1163,29.117
672,1.117967,29.117
673,1.119617,29.123
674,1.1213,29.137
675,1.12295,29.137
676,1.124617,29.15
677,1.126283,29.168
678,1.12795,29.181
679,1.129617,29.181
680,1.131283,29.185
681,1.13295,29.188
682,1.134617,29.203
683,1.13635,29.203
684,1.13795,29.212
685,1.139617,29.228
686,1.141283,29.231
687,1.14295,29.231
688,1.144633,29.233
689,1.146283,29.248
690,1.14795,29.26
691,1.149617,29.26
692,1.1513,29.278
693,1.15295,29.296
694,1.154617,29.296
695,1.156283,29.307
696,1.15795,29.317
697,1.159617,29.334
698,1.161283,29.334
699,1.16295,29.347
700,1.164617,29.358
701,1.166283,29.372
702,1.16795,29.372
703,1.169617,29.384
704,1.171283,29.4
705,1.17295,29.421
706,1.174617,29.421
707,1.176283,29.439
708,1.17795,29.455
709,1.179617,29.455
710,1.181283,29.46
711,1.182933,29.464
712,1.1846,29.475
713,1.186267,29.475
714,1.187933,29.49
715,1.1896,29.511
716,1.191267,29.538
717,1.192933,29.538
718,1.1946,29.551
719,1.196267,29.566
720,1.197933,29.581
721,1.1996,29.581
722,1.201267,29.587
723,1.202933,29.602
724,1.2046,29.616
725,1.206267,29.616
726,1.207933,29.631
727,1.2096,29.649
728,1.211267,29.649
729,1.212933,29.669
730,1.2146,29.688
731,1.21625,29.701
732,1.217917,29.701
733,1.219583,29.713
734,1.22125,29.725
735,1.222917,29.738
736,1.224583,29.738
737,1.22625,29.754
738,1.227917,29.78
739,1.229583,29.801
740,1.23125,29.801
741,1.232917,29.824
742,1.2346,29.852
743,1.23625,29.852
744,1.237917,29.874
745,1.239583,29.899
746,1.24125,29.916
747,1.2429,29.916
748,1.244567,29.933
749,1.246233,29.951
750,1.2479,29.966
751,1.249567,29.966
752,1.251233,29.987
753,1.2529,30.002
754,1.254633,30.02
755,1.256233,30.02
756,1.2579,30.04
757,1.259567,30.056
758,1.261233,30.056
759,1.2629,30.08
760,1.264567,30.099
761,1.266233,30.114
762,1.2679,30.114
763,1.269567,30.129
764,1.271233,30.149
765,1.2729,30.17
766,1.274567,30.17
767,1.276233,30.19
768,1.2779,30.214
769,1.279567,30.231
770,1.281233,30.231
771,1.2829,30.257
772,1.284567,30.281
773,1.286233,30.305
774,1.287967,30.305
775,1.289567,30.325
776,1.29125,30.34
777,1.2929,30.34
778,1.294567,30.369
779,1.296233,30.394
780,1.2979,30.419
781,1.299567,30.419
782,1.301233,30.437
783,1.302883,30.451
784,1.30455,30.466
785,1.306217,30.466
786,1.307883,30.485
787,1.30955,30.511
788,1.311217,30.536
789,1.312883,30.536
790,1.31455,30.562
791,1.316217,30.585
792,1.317883,30.585
793,1.31955,30.606
794,1.321217,30.63
795,1.322883,30.65
796,1.32455,30.65
797,1.326217,30.673
798,1.327883,30.698
799,1.329583,30.724
800,1.331217,30.724
801,1.332883,30.75
802,1.33455,30.773
803,1.336217,30.793
804,1.337883,30.793
805,1.33955,30.814
806,1.341217,30.841
807,1.342883,30.863
808,1.34455,30.863
809,1.346217,30.885
810,1.347883,30.903
811,1.34955,30.903
812,1.351217,30.922
813,1.352883,30.942
814,1.35455,30.965
815,1.356217,30.965
816,1.357883,30.984
817,1.359567,31.001
818,1.361217,31.023
819,1.362867,31.023
820,1.364533,31.046
821,1.3662,31.072
822,1.367867,31.095
823,1.369533,31.095
824,1.3712,31.12
825,1.3729,31.147
826,1.374533,31.147
827,1.3762,31.173
828,1.377867,31.2
829,1.379533,31.219
830,1.3812,31.219
831,1.382867,31.234
832,1.384533,31.255
833,1.3862,31.276
834,1.387867,31.276
835,1.389617,31.302
836,1.3912,31.317
837,1.392867,31.332
838,1.394533,31.332
839,1.3962,31.352
840,1.397867,31.374
841,1.399533,31.397
842,1.4012,31.397
843,1.402867,31.423
844,1.404533,31.442
845,1.406283,31.442
846,1.407867,31.454
847,1.409533,31.475
848,1.4112,31.494
849,1.412867,31.494
850,1.414533,31.521
851,1.4162,31.55
852,1.417883,31.569
853,1.419533,31.569
854,1.4212,31.582
855,1.42285,31.597
856,1.424517,31.611
857,1.426183,31.611
858,1.42785,31.627
859,1.429517,31.654
860,1.431183,31.654
861,1.43285,31.67
862,1.434517,31.693
863,1.436183,31.72
864,1.437883,31.72
865,1.439517,31.739
866,1.441183,31.76
867,1.44285,31.779
868,1.444517,31.779
869,1.446183,31.799
870,1.44785,31.816
871,1.449517,31.836
872,1.451183,31.836
873,1.45285,31.855
874,1.454517,31.878
875,1.456183,31.9
876,1.45785,31.9
877,1.459517,31.92
878,1.461183,31.943
879,1.462867,31.943
880,1.464517,31.967
881,1.466183,31.991
882,1.46785,32.015
883,1.469517,32.015
884,1.471183,32.031
885,1.47285,32.044
886,1.474517,32.057
887,1.476183,32.057
888,1.47785,32.073
889,1.479517,32.09
890,1.481183,32.108
891,1.482833,32.108
892,1.4845,32.129
893,1.486167,32.146
894,1.487833,32.146
895,1.4895,32.17
896,1.4912,32.188
897,1.492833,32.205
898,1.4945,32.205
899,1.496167,32.224
900,1.497867,32.238
901,1.4995,32.253
902,1.501167,32.253
903,1.502833,32.272
904,1.504517,32.291
905,1.50615,32.314
906,1.507867,32.314
907,1.509483,32.336
908,1.51115,32.359
909,1.512817,32.359
910,1.514483,32.383
911,1.51615,32.401
912,1.517817,32.422
913,1.519483,32.422
914,1.52115,32.439
915,1.522817,32.456
916,1.524583,32.473
917,1.52615,32.473
918,1.527817,32.487
919,1.529483,32.506
920,1.53115,32.528
921,1.532817,32.528
922,1.534483,32.545
923,1.53615,32.566
924,1.537817,32.579
925,1.539483,32.579
926,1.54125,32.588
927,1.5428,32.602
928,1.544467,32.602
929,1.546133,32.613
930,1.5478,32.628
931,1.549467,32.649
932,1.551133,32.649
933,1.5528,32.668
934,1.554467,32.69
935,1.556133,32.711
936,1.5578,32.711
937,1.559467,32.724
938,1.561133,32.744
939,1.5628,32.758
940,1.564467,32.758
941,1.566133,32.772
942,1.5678,32.787
943,1.569467,32.787
944,1.571133,32.795
945,1.5728,32.81
946,1.574467,32.828
947,1.576133,32.828
948,1.577833,32.851
949,1.579483,32.873
950,1.581133,32.891
951,1.5828,32.891
952,1.584467,32.904
953,1.586133,32.913
954,1.5878,32.925
955,1.589467,32.925
956,1.591133,32.94
957,1.5928,32.957
958,1.594467,32.976
959,1.596133,32.976
960,1.5978,32.996
961,1.599467,33.007
962,1.601117,33.007
963,1.602783,33.022
964,1.60445,33.038
965,1.606117,33.055
966,1.607783,33.055
967,1.60945,33.071
968,1.611117,33.087
969,1.612783,33.097
970,1.61445,33.097
971,1.616117,33.103
972,1.617783,33.115
973,1.61945,33.13
974,1.621117,33.13
975,1.622783,33.146
976,1.62445,33.174
977,1.626167,33.174
978,1.627783,33.196
979,1.62945,33.218
980,1.631117,33.235
981,1.632783,33.235
982,1.63445,33.239
983,1.636117,33.246
984,1.6378,33.25
985,1.63945,33.25
986,1.641117,33.263
987,1.6429,33.276
988,1.64445,33.288
989,1.646117,33.288
990,1.647783,33.3
991,1.64945,33.316
992,1.651117,33.331
993,1.652783,33.331
994,1.65445,33.346
995,1.656133,33.36
996,1.6578,33.36
997,1.65955,33.366
998,1.661117,33.378
999,1.662767,33.394
1000,1.664433,33.394
1001,1.6661,33.409
1002,1.667767,33.415
1003,1.669433,33.418
1004,1.6711,33.418
1005,1.672767,33.42
1006,1.674433,33.429
1007,1.6761,33.443
1008,1.677767,33.443
1009,1.679433,33.459
1010,1.6811,33.474
1011,1.682767,33.474
1012,1.684433,33.477
1013,1.6861,33.489
1014,1.687767,33.498
1015,1.689433,33.498
1016,1.6911,33.513
1017,1.692767,33.527
1018,1.694433,33.537
