"ID","sea_time","fid_signal"
1,0,28.978
2,0.001667,28.976
3,0.003333,28.976
4,0.005,28.973
5,0.006667,28.966
6,0.008449999999999999,28.918
7,0.01,28.918
8,0.011667,28.831
9,0.013333,28.737
10,0.015,28.737
11,0.016667,28.66
12,0.018333,28.642
13,0.02,28.677
14,0.021667,28.677
15,0.023333,28.729
16,0.025,28.771
17,0.026667,28.802
18,0.028333,28.802
19,0.03,28.827
20,0.031667,28.847
21,0.033333,28.868
22,0.035,28.868
23,0.036683,28.887
24,0.038333,28.907
25,0.04,28.917
26,0.041667,28.917
27,0.043333,28.922
28,0.045,28.921
29,0.046667,28.921
30,0.048333,28.917
31,0.05,28.915
32,0.051683,28.916
33,0.053367,28.916
34,0.054983,28.921
35,0.05665,28.923
36,0.058317,28.931
37,0.059983,28.931
38,0.06165,28.935
39,0.063317,28.937
40,0.064983,28.935
41,0.06665,28.935
42,0.068383,28.934
43,0.069983,28.937
44,0.07165000000000001,28.937
45,0.07331699999999999,28.936
46,0.07498299999999999,28.945
47,0.07665,28.947
48,0.078317,28.947
49,0.079983,28.947
50,0.08165,28.949
51,0.083317,28.949
52,0.084983,28.949
53,0.08665,28.947
54,0.08831700000000001,28.948
55,0.08998299999999999,28.948
56,0.09165,28.948
57,0.09335,28.951
58,0.094983,28.957
59,0.09665,28.957
60,0.098317,28.961
61,0.099983,28.965
62,0.10165,28.966
63,0.103317,28.966
64,0.104983,28.962
65,0.10665,28.961
66,0.108317,28.957
67,0.110017,28.957
68,0.11165,28.953
69,0.1133,28.956
70,0.114967,28.954
71,0.116633,28.954
72,0.1183,28.954
73,0.119967,28.959
74,0.121633,28.954
75,0.1233,28.954
76,0.124967,28.952
77,0.126733,28.951
78,0.1283,28.951
79,0.129967,28.946
80,0.131633,28.946
81,0.1333,28.95
82,0.134967,28.95
83,0.136633,28.955
84,0.1383,28.956
85,0.139967,28.959
86,0.141667,28.959
87,0.1433,28.957
88,0.14495,28.954
89,0.146617,28.953
90,0.148283,28.953
91,0.14995,28.96
92,0.151617,28.967
93,0.153283,28.967
94,0.15495,28.973
95,0.156617,28.974
96,0.158283,28.967
97,0.15995,28.967
98,0.161617,28.958
99,0.163283,28.955
100,0.16495,28.957
101,0.166617,28.957
102,0.168283,28.962
103,0.16995,28.969
104,0.171617,28.967
105,0.173283,28.967
106,0.174933,28.97
107,0.1766,28.963
108,0.178267,28.956
109,0.179933,28.956
110,0.1816,28.957
111,0.183267,28.955
112,0.184933,28.955
113,0.1866,28.961
114,0.188267,28.966
115,0.189933,28.964
116,0.1916,28.964
117,0.193267,28.961
118,0.194933,28.959
119,0.1966,28.961
120,0.198267,28.961
121,0.199933,28.968
122,0.2016,28.978
123,0.203267,28.978
124,0.204933,28.978
125,0.2066,28.974
126,0.208267,28.969
127,0.209933,28.969
128,0.2117,28.965
129,0.213267,28.961
130,0.214933,28.961
131,0.2166,28.961
132,0.218267,28.958
133,0.219933,28.959
134,0.2216,28.962
135,0.223267,28.962
136,0.224933,28.965
137,0.2266,28.966
138,0.228283,28.961
139,0.229933,28.961
140,0.2316,28.958
141,0.23325,28.962
142,0.234917,28.962
143,0.236583,28.963
144,0.23825,28.966
145,0.239917,28.967
146,0.241583,28.967
147,0.24325,28.969
148,0.245033,28.974
149,0.246583,28.976
150,0.24825,28.976
151,0.249917,28.983
152,0.251583,28.979
153,0.25325,28.982
154,0.254917,28.982
155,0.256583,28.992
156,0.25825,28.989
157,0.259917,28.997
158,0.261583,28.997
159,0.26325,29.003
160,0.264917,28.998
161,0.266583,28.998
162,0.26825,29.004
163,0.269917,29.013
164,0.271583,29.021
165,0.27325,29.021
166,0.274917,29.03
167,0.276583,29.038
168,0.27825,29.045
169,0.279917,29.045
170,0.281617,29.052
171,0.28325,29.061
172,0.284917,29.07
173,0.286583,29.07
174,0.28825,29.079
175,0.289917,29.086
176,0.291583,29.086
177,0.293233,29.1
178,0.294933,29.119
179,0.296567,29.136
180,0.298233,29.136
181,0.2999,29.157
182,0.301567,29.185
183,0.303233,29.218
184,0.3049,29.218
185,0.306567,29.251
186,0.308233,29.292
187,0.3099,29.332
188,0.311567,29.332
189,0.313233,29.379
190,0.3149,29.437
191,0.316567,29.505
192,0.318233,29.505
193,0.3199,29.588
194,0.321567,29.676
195,0.323233,29.676
196,0.3249,29.787
197,0.326567,29.912
198,0.328233,30.054
199,0.329917,30.054
200,0.331567,30.21
201,0.333233,30.379
202,0.3349,30.547
203,0.336567,30.547
204,0.338233,30.721
205,0.3399,30.892
206,0.341567,31.047
207,0.343233,31.047
208,0.3449,31.198
209,0.346583,31.323
210,0.348233,31.323
211,0.3499,31.427
212,0.351567,31.506
213,0.353233,31.548
214,0.354917,31.548
215,0.35655,31.558
216,0.358217,31.543
217,0.359883,31.5
218,0.36155,31.5
219,0.3633,31.44
220,0.364883,31.359
221,0.36655,31.262
222,0.368217,31.262
223,0.369883,31.156
224,0.37155,31.043
225,0.373217,30.93
226,0.374883,30.93
227,0.37655,30.807
228,0.378217,30.682
229,0.379883,30.682
230,0.38155,30.552
231,0.383217,30.425
232,0.384883,30.306
233,0.38655,30.306
234,0.38825,30.191
235,0.389883,30.091
236,0.39155,30.001
237,0.393217,30.001
238,0.394883,29.92
239,0.39655,29.845
240,0.398217,29.776
241,0.399883,29.776
242,0.40155,29.703
243,0.403217,29.639
244,0.404883,29.639
245,0.40655,29.584
246,0.408217,29.53
247,0.409883,29.489
248,0.41155,29.489
249,0.413217,29.458
250,0.414867,29.425
251,0.416533,29.399
252,0.4182,29.399
253,0.419867,29.371
254,0.421533,29.343
255,0.4232,29.317
256,0.424867,29.317
257,0.426567,29.291
258,0.4282,29.278
259,0.429867,29.262
260,0.431533,29.262
261,0.433183,29.255
262,0.43485,29.251
263,0.436517,29.251
264,0.438183,29.239
265,0.43985,29.232
266,0.441517,29.223
267,0.443183,29.223
268,0.44485,29.208
269,0.446517,29.196
270,0.448233,29.19
271,0.44985,29.19
272,0.451517,29.19
273,0.453183,29.193
274,0.45485,29.194
275,0.456517,29.194
276,0.458183,29.189
277,0.45985,29.173
278,0.461517,29.173
279,0.463183,29.162
280,0.46485,29.158
281,0.466533,29.154
282,0.468183,29.154
283,0.46985,29.154
284,0.471517,29.153
285,0.473167,29.15
286,0.474833,29.15
287,0.4765,29.146
288,0.478167,29.145
289,0.479833,29.151
290,0.481617,29.151
291,0.483167,29.155
292,0.484833,29.16
293,0.4865,29.16
294,0.488167,29.168
295,0.489833,29.169
296,0.4915,29.169
297,0.493167,29.169
298,0.494833,29.169
299,0.4965,29.166
300,0.498167,29.166
301,0.499833,29.166
302,0.5014999999999999,29.167
303,0.5032,29.166
304,0.504833,29.166
305,0.5065,29.166
306,0.508167,29.169
307,0.509833,29.172
308,0.5115,29.185
309,0.513167,29.185
310,0.514833,29.204
311,0.5165,29.214
312,0.518167,29.214
313,0.519833,29.227
314,0.5215,29.24
315,0.523167,29.244
316,0.524833,29.244
317,0.5265,29.255
318,0.5281670000000001,29.271
319,0.529833,29.279
320,0.5315,29.279
321,0.53315,29.293
322,0.534817,29.313
323,0.536483,29.328
324,0.53815,29.328
325,0.539817,29.349
326,0.541483,29.377
327,0.54315,29.377
328,0.544817,29.412
329,0.5464830000000001,29.449
330,0.54815,29.488
331,0.549817,29.488
332,0.5514829999999999,29.533
333,0.55315,29.583
334,0.554817,29.643
335,0.5565330000000001,29.643
336,0.55815,29.706
337,0.559817,29.769
338,0.561483,29.832
339,0.56315,29.832
340,0.564817,29.905
341,0.56655,29.985
342,0.56815,30.072
343,0.569817,30.072
344,0.5715,30.168
345,0.57315,30.265
346,0.574817,30.265
347,0.576483,30.373
348,0.5781500000000001,30.488
349,0.579817,30.612
350,0.581483,30.612
351,0.5831499999999999,30.738
352,0.584817,30.869
353,0.586483,31.011
354,0.58815,31.011
355,0.589817,31.159
356,0.591483,31.314
357,0.59315,31.485
358,0.5948,31.485
359,0.596467,31.661
360,0.598133,31.848
361,0.5998830000000001,31.848
362,0.601467,32.049
363,0.603133,32.255
364,0.6048,32.472
365,0.606467,32.472
366,0.608133,32.689
367,0.6098,32.914
368,0.611467,33.14
369,0.613133,33.14
370,0.6148169999999999,33.376
371,0.616467,33.624
372,0.618133,33.876
373,0.6198,33.876
374,0.621467,34.135
375,0.623133,34.399
376,0.6248,34.672
377,0.626467,34.672
378,0.6281330000000001,34.95
379,0.6298,35.243
380,0.631467,35.243
381,0.6331329999999999,35.536
382,0.6348,35.832
383,0.636467,36.132
384,0.638133,36.132
385,0.6398,36.433
386,0.641467,36.745
387,0.643133,37.054
388,0.644817,37.054
389,0.646483,37.362
390,0.648133,37.67
391,0.6498,37.98
392,0.651467,37.98
393,0.653133,38.294
394,0.654783,38.622
395,0.65645,38.622
396,0.658117,38.952
397,0.659783,39.276
398,0.66145,39.603
399,0.663117,39.603
400,0.664783,39.921
401,0.66645,40.239
402,0.668117,40.566
403,0.669783,40.566
404,0.67145,40.887
405,0.673117,41.21
406,0.674783,41.533
407,0.67645,41.533
408,0.678117,41.847
409,0.679783,42.164
410,0.68145,42.164
411,0.683117,42.479
412,0.684783,42.784
413,0.68645,43.087
414,0.688117,43.087
415,0.689783,43.391
416,0.69145,43.695
417,0.693117,43.999
418,0.694783,43.999
419,0.69645,44.298
420,0.698117,44.586
421,0.699783,44.867
422,0.70145,44.867
423,0.703117,45.145
424,0.704783,45.428
425,0.70645,45.704
426,0.708117,45.704
427,0.7097830000000001,45.977
428,0.71145,46.243
429,0.713117,46.243
430,0.714767,46.498
431,0.716433,46.753
432,0.718167,47.005
433,0.719783,47.005
434,0.721483,47.249
435,0.7231,47.488
436,0.72475,47.726
437,0.726417,47.726
438,0.728083,47.952
439,0.72975,48.182
440,0.731417,48.41
441,0.733083,48.41
442,0.73475,48.629
443,0.736417,48.847
444,0.738083,48.847
445,0.73975,49.064
446,0.741417,49.282
447,0.743083,49.492
448,0.74475,49.492
449,0.746417,49.694
450,0.7480830000000001,49.885
451,0.74975,50.067
452,0.751417,50.067
453,0.7530829999999999,50.25
454,0.75475,50.433
455,0.756417,50.614
456,0.758083,50.614
457,0.75975,50.796
458,0.761417,50.969
459,0.763083,51.14
460,0.76475,51.14
461,0.766417,51.306
462,0.768083,51.463
463,0.76975,51.463
464,0.771417,51.623
465,0.7730669999999999,51.774
466,0.774733,51.92
467,0.7764,51.92
468,0.778067,52.067
469,0.779733,52.203
470,0.7814,52.338
471,0.783067,52.338
472,0.784733,52.474
473,0.7864,52.6
474,0.788083,52.73
475,0.789783,52.73
476,0.7914,52.855
477,0.793067,52.974
478,0.794733,52.974
479,0.7964,53.097
480,0.7981,53.217
481,0.799733,53.331
482,0.8014,53.331
483,0.803067,53.441
484,0.804733,53.551
485,0.8064,53.653
486,0.808067,53.653
487,0.809733,53.758
488,0.8114,53.855
489,0.813067,53.938
490,0.814733,53.938
491,0.8164,54.025
492,0.818067,54.107
493,0.819783,54.192
494,0.8214,54.192
495,0.823067,54.283
496,0.824733,54.368
497,0.8264,54.368
498,0.828067,54.444
499,0.8297330000000001,54.528
500,0.8314,54.602
501,0.83305,54.602
502,0.834717,54.681
503,0.836483,54.765
504,0.83805,54.838
505,0.839717,54.838
506,0.841383,54.913
507,0.84305,54.981
508,0.8447170000000001,55.037
509,0.846383,55.037
510,0.84805,55.095
511,0.8497169999999999,55.146
512,0.851383,55.146
513,0.853167,55.198
514,0.8547169999999999,55.261
515,0.856383,55.328
516,0.85805,55.328
517,0.859717,55.388
518,0.861383,55.444
519,0.86305,55.495
520,0.864717,55.495
521,0.866433,55.539
522,0.86805,55.587
523,0.869717,55.638
524,0.871383,55.638
525,0.87305,55.686
526,0.874717,55.733
527,0.876383,55.733
528,0.87805,55.781
529,0.879717,55.819
530,0.881383,55.854
531,0.88305,55.854
532,0.884717,55.888
533,0.8864,55.918
534,0.88805,55.954
535,0.889717,55.954
536,0.891367,55.991
537,0.893033,56.022
538,0.8947000000000001,56.051
539,0.896367,56.051
540,0.898033,56.077
541,0.8997000000000001,56.106
542,0.901367,56.138
543,0.903033,56.138
544,0.9046999999999999,56.165
545,0.906367,56.182
546,0.908033,56.182
547,0.9097,56.201
548,0.911367,56.216
549,0.913033,56.233
550,0.9147,56.233
551,0.916367,56.259
552,0.918033,56.277
553,0.9197,56.292
554,0.921367,56.292
555,0.923033,56.305
556,0.9247,56.316
557,0.9263670000000001,56.333
558,0.928033,56.333
559,0.9297,56.344
560,0.9313669999999999,56.361
561,0.933033,56.361
562,0.9347,56.375
563,0.936383,56.387
564,0.938033,56.402
565,0.9397,56.402
566,0.941367,56.414
567,0.943033,56.426
568,0.9447,56.432
569,0.946367,56.432
570,0.948033,56.439
571,0.9497,56.447
572,0.95135,56.45
573,0.953033,56.45
574,0.9547330000000001,56.443
575,0.95635,56.44
576,0.958017,56.439
577,0.959683,56.439
578,0.96135,56.439
579,0.963017,56.449
580,0.964683,56.449
581,0.96635,56.454
582,0.968017,56.453
583,0.969683,56.454
584,0.97135,56.454
585,0.973017,56.451
586,0.974683,56.443
587,0.9763500000000001,56.443
588,0.978017,56.443
589,0.979683,56.434
590,0.981367,56.426
591,0.983017,56.419
592,0.984683,56.419
593,0.9863499999999999,56.404
594,0.988017,56.393
595,0.989683,56.393
596,0.99135,56.387
597,0.993017,56.39
598,0.994683,56.386
599,0.99635,56.386
600,0.998017,56.383
601,0.999683,56.377
602,1.00135,56.361
603,1.003017,56.361
604,1.004683,56.352
605,1.00635,56.338
606,1.008017,56.321
607,1.0097,56.321
608,1.011383,56.312
609,1.013017,56.303
610,1.014667,56.298
611,1.016317,56.298
612,1.017983,56.29
613,1.01965,56.272
614,1.021317,56.272
615,1.022983,56.253
616,1.02465,56.23
617,1.026317,56.211
618,1.027983,56.211
619,1.02965,56.206
620,1.031317,56.193
621,1.032983,56.185
622,1.03465,56.185
623,1.036317,56.172
624,1.037983,56.15
625,1.03965,56.136
626,1.041317,56.136
627,1.042983,56.124
628,1.04465,56.115
629,1.046317,56.115
630,1.047983,56.11
631,1.04965,56.097
632,1.051317,56.076
633,1.052983,56.076
634,1.05465,56.058
635,1.056333,56.035
636,1.057983,56.015
637,1.05965,56.015
638,1.061317,55.997
639,1.062983,55.972
640,1.06465,55.946
641,1.066317,55.946
642,1.067983,55.918
643,1.06965,55.89
644,1.071317,55.89
645,1.07305,55.871
646,1.074633,55.853
647,1.0763,55.842
648,1.077967,55.842
649,1.079633,55.825
650,1.0813,55.798
651,1.082983,55.765
652,1.084667,55.765
653,1.0863,55.732
654,1.087967,55.705
655,1.08975,55.686
656,1.0913,55.686
657,1.092967,55.671
658,1.094633,55.651
659,1.0963,55.63
660,1.097967,55.63
661,1.099633,55.605
662,1.1013,55.573
663,1.102967,55.573
664,1.104633,55.544
665,1.1063,55.511
666,1.107967,55.489
667,1.109633,55.489
668,1.1113,55.469
669,1.112967,55.444
670,1.114633,55.424
671,1.1163,55.424
672,1.117967,55.394
673,1.119633,55.366
674,1.1213,55.342
675,1.122967,55.342
676,1.124633,55.313
677,1.1263,55.285
678,1.127967,55.285
679,1.129633,55.262
680,1.1313,55.234
681,1.13295,55.213
682,1.134617,55.213
683,1.136283,55.194
684,1.13795,55.173
685,1.139617,55.153
686,1.141283,55.153
687,1.14295,55.123
688,1.144633,55.087
689,1.146283,55.053
690,1.147967,55.053
691,1.149617,55.023
692,1.151283,54.999
693,1.15295,54.978
694,1.154617,54.978
695,1.156283,54.956
696,1.15795,54.934
697,1.159617,54.934
698,1.161283,54.908
699,1.16295,54.875
700,1.164617,54.847
701,1.166283,54.847
702,1.16795,54.813
703,1.169617,54.78
704,1.171283,54.757
705,1.17295,54.757
706,1.174617,54.728
707,1.176283,54.698
708,1.17795,54.671
709,1.179617,54.671
710,1.181283,54.637
711,1.18295,54.609
712,1.184617,54.609
713,1.186283,54.584
714,1.18795,54.556
715,1.189617,54.53
716,1.191267,54.53
717,1.19295,54.499
718,1.1946,54.466
719,1.196267,54.439
720,1.197933,54.439
721,1.1996,54.408
722,1.201267,54.374
723,1.202933,54.344
724,1.2046,54.344
725,1.206267,54.315
726,1.20805,54.292
727,1.2096,54.264
728,1.211267,54.264
729,1.212933,54.234
730,1.2146,54.2
731,1.216267,54.2
732,1.217933,54.165
733,1.2196,54.14
734,1.2213,54.112
735,1.22295,54.112
736,1.2246,54.083
737,1.226267,54.047
738,1.227933,54.011
739,1.2296,54.011
740,1.231267,53.984
741,1.232933,53.947
742,1.2346,53.925
743,1.236267,53.925
744,1.237933,53.893
745,1.2396,53.862
746,1.241267,53.862
747,1.242933,53.834
748,1.2446,53.794
749,1.246267,53.759
750,1.247933,53.759
751,1.2496,53.717
752,1.251267,53.684
753,1.252917,53.656
754,1.254583,53.656
755,1.25625,53.624
756,1.257917,53.598
757,1.259583,53.566
758,1.26125,53.566
759,1.262917,53.53
760,1.264583,53.5
761,1.26625,53.5
762,1.267917,53.468
763,1.269583,53.435
764,1.27125,53.407
765,1.272917,53.407
766,1.274583,53.375
767,1.27625,53.338
768,1.277917,53.301
769,1.279583,53.301
770,1.28125,53.265
771,1.282917,53.229
772,1.284583,53.197
773,1.286283,53.197
774,1.287917,53.168
775,1.289617,53.136
776,1.29125,53.111
777,1.292967,53.111
778,1.294583,53.079
779,1.29625,53.051
780,1.297917,53.051
781,1.299583,53.022
782,1.30125,52.989
783,1.302917,52.967
784,1.304583,52.967
785,1.306233,52.934
786,1.3079,52.904
787,1.309567,52.871
788,1.311233,52.871
789,1.312883,52.832
790,1.31455,52.798
791,1.316217,52.762
792,1.317883,52.762
793,1.31955,52.729
794,1.321217,52.689
795,1.322883,52.689
796,1.32455,52.655
797,1.326333,52.62
798,1.327883,52.588
799,1.32955,52.588
800,1.331217,52.561
801,1.332883,52.533
802,1.33455,52.503
803,1.336217,52.503
804,1.337883,52.471
805,1.33955,52.441
806,1.341217,52.411
807,1.342883,52.411
808,1.34455,52.379
809,1.346217,52.347
810,1.347883,52.312
811,1.34955,52.312
812,1.351217,52.281
813,1.352883,52.246
814,1.35455,52.246
815,1.356217,52.218
816,1.357883,52.185
817,1.35955,52.151
818,1.361217,52.151
819,1.362883,52.118
820,1.364567,52.087
821,1.366217,52.059
822,1.367917,52.059
823,1.36955,52.029
824,1.371217,52.002
825,1.372867,51.973
826,1.374533,51.973
827,1.3762,51.942
828,1.377867,51.906
829,1.379533,51.906
830,1.3812,51.876
831,1.382867,51.84
832,1.384533,51.807
833,1.3862,51.807
834,1.387867,51.777
835,1.389533,51.742
836,1.3912,51.709
837,1.392867,51.709
838,1.394533,51.678
839,1.3962,51.644
840,1.397867,51.607
841,1.399533,51.607
842,1.4012,51.573
843,1.402867,51.541
844,1.404533,51.504
845,1.4062,51.504
846,1.407867,51.471
847,1.409533,51.439
848,1.41125,51.439
849,1.412867,51.403
850,1.414533,51.372
851,1.4162,51.345
852,1.417867,51.345
853,1.419533,51.318
854,1.421217,51.288
855,1.422867,51.255
856,1.424533,51.255
857,1.4262,51.221
858,1.427883,51.185
859,1.429533,51.154
860,1.4312,51.154
861,1.43285,51.127
862,1.434517,51.097
863,1.436183,51.097
864,1.43785,51.062
865,1.439583,51.028
866,1.441183,50.995
867,1.44285,50.995
868,1.444633,50.963
869,1.446183,50.936
870,1.44785,50.906
871,1.449517,50.906
872,1.451183,50.88
873,1.45285,50.856
874,1.454517,50.828
875,1.456183,50.828
876,1.45785,50.794
877,1.459517,50.757
878,1.461183,50.757
879,1.46285,50.718
880,1.464517,50.681
881,1.466183,50.652
882,1.46785,50.652
883,1.469517,50.62
884,1.471183,50.591
885,1.47285,50.558
886,1.474517,50.558
887,1.476183,50.523
888,1.47785,50.493
889,1.479517,50.461
890,1.481183,50.461
891,1.48285,50.438
892,1.484517,50.412
893,1.486183,50.383
894,1.48785,50.383
895,1.489517,50.351
896,1.491183,50.317
897,1.492833,50.317
898,1.4945,50.291
899,1.496167,50.264
900,1.497833,50.241
901,1.4995,50.241
902,1.501167,50.213
903,1.502833,50.176
904,1.5045,50.143
905,1.506167,50.143
906,1.50785,50.108
907,1.5095,50.071
908,1.511167,50.037
909,1.512833,50.037
910,1.5145,50.006
911,1.516167,49.976
912,1.517833,49.976
913,1.5195,49.952
914,1.521167,49.925
915,1.522833,49.894
916,1.5245,49.894
917,1.526167,49.861
918,1.527833,49.823
919,1.529533,49.788
920,1.531167,49.788
921,1.532833,49.753
922,1.5345,49.719
923,1.536167,49.687
924,1.537833,49.687
925,1.5395,49.656
926,1.541167,49.629
927,1.542833,49.601
928,1.5445,49.601
929,1.54625,49.574
930,1.547833,49.548
931,1.5495,49.548
932,1.551167,49.52
933,1.552833,49.496
934,1.554483,49.466
935,1.55615,49.466
936,1.557817,49.432
937,1.559483,49.396
938,1.56115,49.363
939,1.56295,49.363
940,1.564483,49.335
941,1.56615,49.312
942,1.567817,49.288
943,1.569483,49.288
944,1.57115,49.257
945,1.572817,49.222
946,1.574483,49.222
947,1.57615,49.192
948,1.577817,49.167
949,1.579483,49.137
950,1.581167,49.137
951,1.582817,49.11
952,1.584517,49.078
953,1.58615,49.047
954,1.587817,49.047
955,1.589483,49.025
956,1.59115,48.997
957,1.592817,48.97
958,1.594483,48.97
959,1.59615,48.942
960,1.5978,48.909
961,1.599467,48.88
962,1.601133,48.88
963,1.6028,48.854
964,1.604467,48.826
965,1.606133,48.826
966,1.6078,48.796
967,1.609467,48.775
968,1.611133,48.747
969,1.6128,48.747
970,1.61445,48.717
971,1.616117,48.69
972,1.617783,48.663
973,1.61945,48.663
974,1.621117,48.633
975,1.622783,48.604
976,1.62445,48.572
977,1.626117,48.572
978,1.627783,48.539
979,1.62945,48.508
980,1.631117,48.508
981,1.632783,48.478
982,1.63445,48.451
983,1.636117,48.417
984,1.637783,48.417
985,1.63945,48.384
986,1.641117,48.355
987,1.642783,48.323
988,1.64445,48.323
989,1.646117,48.297
990,1.647833,48.278
991,1.649483,48.25
992,1.651117,48.25
993,1.6528,48.225
994,1.65445,48.202
995,1.656117,48.202
996,1.657783,48.171
997,1.65945,48.147
998,1.661117,48.118
999,1.662783,48.118
1000,1.664517,48.084
1001,1.666117,48.052
1002,1.667783,48.027
1003,1.66945,48.027
1004,1.671117,47.998
1005,1.672767,47.973
1006,1.674433,47.949
1007,1.6761,47.949
1008,1.677767,47.922
1009,1.679433,47.897
1010,1.6812,47.872
1011,1.682767,47.872
1012,1.684433,47.845
1013,1.6861,47.805
1014,1.687767,47.805
1015,1.689433,47.775
