"ID","sea_time","fid_signal"
1,0,141.174
2,0.001667,141.196
3,0.003333,140.876
4,0.005,140.876
5,0.006667,140.868
6,0.008333,140.727
7,0.01,140.719
8,0.011667,140.719
9,0.013333,140.421
10,0.015,140.019
11,0.016667,139.683
12,0.018333,139.683
13,0.02,139.43
14,0.021667,139.594
15,0.02335,139.892
16,0.025,139.892
17,0.026667,140.317
18,0.028317,140.294
19,0.029983,140.57
20,0.03165,140.57
21,0.033317,140.622
22,0.034983,140.294
23,0.03665,140.294
24,0.038317,140.607
25,0.039983,140.66
26,0.04165,140.622
27,0.043317,140.622
28,0.044983,140.928
29,0.0467,141.039
30,0.048317,140.741
31,0.049983,140.741
32,0.05165,140.652
33,0.053317,140.548
34,0.054983,140.518
35,0.05665,140.518
36,0.058317,140.54
37,0.060017,140.727
38,0.06165,140.727
39,0.063417,140.92
40,0.064983,140.525
41,0.06665,140.622
42,0.068317,140.622
43,0.069983,140.488
44,0.07165000000000001,140.242
45,0.07331699999999999,140.451
46,0.07498299999999999,140.451
47,0.07665,140.503
48,0.078317,140.436
49,0.0801,140.578
50,0.08165,140.578
51,0.083317,140.667
52,0.084983,140.361
53,0.08665,140.481
54,0.0883,140.481
55,0.08996700000000001,140.429
56,0.09163300000000001,140.16
57,0.09329999999999999,140.16
58,0.094967,140.399
59,0.096633,140.131
60,0.0983,140.101
61,0.099967,140.101
62,0.101633,140.406
63,0.1033,140.28
64,0.104967,140.324
65,0.106633,140.324
66,0.1083,140.354
67,0.109967,140.361
68,0.111633,140.57
69,0.1133,140.57
70,0.114967,140.816
71,0.116633,140.92
72,0.118333,140.92
73,0.119967,140.935
74,0.121633,140.905
75,0.1233,140.831
76,0.124967,140.831
77,0.126633,140.555
78,0.1283,140.578
79,0.129967,140.548
80,0.131633,140.548
81,0.133333,140.578
82,0.134967,140.801
83,0.136633,140.95
84,0.1383,140.95
85,0.139967,140.987
86,0.141633,141.01
87,0.1433,140.958
88,0.144967,140.958
89,0.146633,140.719
90,0.148283,140.838
91,0.14995,140.838
92,0.151617,140.958
93,0.1533,140.98
94,0.15495,141.062
95,0.156617,141.062
96,0.158283,140.905
97,0.15995,140.563
98,0.161617,140.51
99,0.163283,140.51
100,0.164983,140.473
101,0.166617,140.6
102,0.168283,140.66
103,0.16995,140.66
104,0.171617,140.794
105,0.173283,140.883
106,0.17495,140.883
107,0.176617,140.689
108,0.178283,140.809
109,0.17995,140.786
110,0.181667,140.786
111,0.183283,140.429
112,0.18495,140.414
113,0.186617,140.399
114,0.188283,140.399
115,0.18995,140.25
116,0.191617,140.697
117,0.193283,140.786
118,0.19495,140.786
119,0.196617,140.779
120,0.198383,141.099
121,0.19995,141.099
122,0.201617,140.987
123,0.203283,140.92
124,0.20495,140.92
125,0.206617,140.92
126,0.2083,140.66
127,0.209967,140.585
128,0.211633,140.712
129,0.213267,140.712
130,0.214933,140.794
131,0.2166,140.846
132,0.218267,140.682
133,0.219933,140.682
134,0.2216,140.578
135,0.223267,140.28
136,0.224933,140.436
137,0.2266,140.436
138,0.228267,140.54
139,0.229917,140.645
140,0.231583,140.645
141,0.23325,141.025
142,0.234917,140.548
143,0.236583,140.54
144,0.23825,140.54
145,0.239917,140.272
146,0.241583,140.175
147,0.24325,140.361
148,0.244917,140.361
149,0.246583,140.287
150,0.24825,140.406
151,0.249917,140.66
152,0.251583,140.66
153,0.25325,140.905
154,0.254917,141.263
155,0.256583,141.263
156,0.25825,141.874
157,0.259917,142.276
158,0.261583,143.26
159,0.26325,143.26
160,0.264917,144.787
161,0.266583,146.292
162,0.268233,148.319
163,0.2699,148.319
164,0.271567,151.061
165,0.273233,154.428
166,0.2749,158.98
167,0.2766,158.98
168,0.278317,164.464
169,0.2799,170.827
170,0.281567,178.412
171,0.28325,178.412
172,0.2849,186.823
173,0.286567,196.703
174,0.288233,196.703
175,0.2899,207.596
176,0.291567,219.569
177,0.293233,233.36
178,0.2949,233.36
179,0.296567,248
180,0.298233,264.421
181,0.299933,282.295
182,0.301567,282.295
183,0.303233,301.436
184,0.3049,322.334
185,0.306567,344.276
186,0.308233,344.276
187,0.3099,367.902
188,0.311567,393.547
189,0.313233,393.547
190,0.3149,421.084
191,0.316683,450.894
192,0.318233,482.805
193,0.3199,482.805
194,0.321567,516.489
195,0.323233,552.349
196,0.3249,590.7569999999999
197,0.326567,590.7569999999999
198,0.328233,631.489
199,0.329883,674.643
200,0.33155,720.65
201,0.333217,720.65
202,0.334883,769.7190000000001
203,0.33655,822.023
204,0.338217,878.23
205,0.339883,878.23
206,0.34155,938.244
207,0.343217,1002.26
208,0.344883,1002.26
209,0.34655,1071.17
210,0.348233,1145.706
211,0.3499,1226.701
212,0.35155,1226.701
213,0.353217,1315.922
214,0.354883,1414.575
215,0.35655,1524.195
216,0.358217,1524.195
217,0.359883,1647.055
218,0.36155,1784.317
219,0.363217,1937.084
220,0.364883,1937.084
221,0.36655,2105.318
222,0.368217,2287.544
223,0.369883,2287.544
224,0.37155,2480.015
225,0.373217,2678.767
226,0.374883,2878.763
227,0.37655,2878.763
228,0.378217,3074.05
229,0.379883,3259.286
230,0.38155,3429.212
231,0.383217,3429.212
232,0.384867,3578.618
233,0.38655,3703.87
234,0.3882,3803.477
235,0.389867,3803.477
236,0.391533,3875.837
237,0.3932,3921.673
238,0.394867,3921.673
239,0.396533,3942.251
240,0.3982,3938.891
241,0.399867,3914.58
242,0.401583,3914.58
243,0.4032,3871.59
244,0.404867,3812.477
245,0.406533,3739.812
246,0.4082,3739.812
247,0.409867,3655.218
248,0.411533,3561.959
249,0.4132,3461.823
250,0.414867,3461.823
251,0.416533,3356.934
252,0.418267,3249.727
253,0.4199,3140.219
254,0.42155,3140.219
255,0.4232,3030.211
256,0.424867,2920.479
257,0.426533,2920.479
258,0.4282,2811.715
259,0.429867,2705.052
260,0.431533,2601.072
261,0.4332,2601.072
262,0.434867,2499.841
263,0.436533,2401.143
264,0.4382,2305.821
265,0.439867,2305.821
266,0.441533,2213.806
267,0.4432,2125.323
268,0.444867,2040.87
269,0.446533,2040.87
270,0.448183,1959.719
271,0.44985,1881.681
272,0.451517,1881.681
273,0.453183,1806.9
274,0.45485,1735.233
275,0.456517,1666.978
276,0.458183,1666.978
277,0.45985,1602.046
278,0.461517,1540.057
279,0.463183,1481.436
280,0.46485,1481.436
281,0.466517,1425.207
282,0.468183,1371.607
283,0.46985,1320.608
284,0.471517,1320.608
285,0.473183,1271.382
286,0.47485,1224.838
287,0.476517,1180.634
288,0.478183,1180.634
289,0.47985,1138.322
290,0.481517,1098.253
291,0.483183,1098.253
292,0.48485,1059.8
293,0.486517,1023.211
294,0.488183,988.171
295,0.48985,988.171
296,0.491517,955.0599999999999
297,0.493183,923.462
298,0.494867,893.258
299,0.496517,893.258
300,0.498183,864.968
301,0.49985,837.46
302,0.501517,811.0700000000001
303,0.503183,811.0700000000001
304,0.504867,785.694
305,0.506517,761.196
306,0.508167,761.196
307,0.509833,738.04
308,0.5115,716.217
309,0.513167,695.333
310,0.514833,695.333
311,0.5165,675.417
312,0.518167,655.822
313,0.51985,636.861
314,0.521483,636.861
315,0.52315,618.801
316,0.524817,601.5599999999999
317,0.526483,585.273
318,0.52815,585.273
319,0.529817,569.627
320,0.531483,554.681
321,0.53315,540.465
322,0.534817,540.465
323,0.536483,526.741
324,0.53815,513.77
325,0.539817,513.77
326,0.541483,500.895
327,0.54315,488.43
328,0.544817,476.792
329,0.5464830000000001,476.792
330,0.54815,465.393
331,0.549817,454.508
332,0.5514829999999999,444.166
333,0.553267,444.166
334,0.554817,434.272
335,0.5565,424.877
336,0.55815,416.1
337,0.559817,416.1
338,0.561483,407.331
339,0.56315,398.874
340,0.564817,398.874
341,0.566483,390.448
342,0.568133,382.222
343,0.5698,374.697
344,0.5714669999999999,374.697
345,0.573167,367.239
346,0.5748,360.28
347,0.576467,353.679
348,0.578133,353.679
349,0.5798,346.892
350,0.581467,340.41
351,0.583133,334.293
352,0.5848,334.293
353,0.586467,328.474
354,0.588133,322.744
355,0.5898,322.744
356,0.591467,317.261
357,0.593133,311.963
358,0.594817,306.979
359,0.5965,306.979
360,0.598133,302.382
361,0.5998,297.546
362,0.601467,293.024
363,0.603133,293.024
364,0.6048,288.375
365,0.606467,283.957
366,0.608133,279.985
367,0.6098,279.985
368,0.611467,276.051
369,0.613133,272.065
370,0.6148,268.258
371,0.616467,268.258
372,0.618133,264.525
373,0.6198,260.904
374,0.621467,260.904
375,0.623133,257.514
376,0.6248,254.378
377,0.62645,251.614
378,0.628117,251.614
379,0.629783,248.447
380,0.63145,245.646
381,0.633117,242.695
382,0.634783,242.695
383,0.63645,239.708
384,0.6382,237.197
385,0.6398,234.753
386,0.64145,234.753
387,0.643117,232.153
388,0.644783,229.657
389,0.64645,229.657
390,0.6481170000000001,227.28
391,0.649783,224.844
392,0.65145,222.519
393,0.6531169999999999,222.519
394,0.654783,220.351
395,0.65645,218.548
396,0.658117,216.343
397,0.659783,216.343
398,0.66145,214.703
399,0.663117,213.146
400,0.664783,211.366
401,0.66645,211.366
402,0.668117,209.704
403,0.669783,208.013
404,0.671567,206.12
405,0.673117,206.12
406,0.674783,204.064
407,0.67645,202.373
408,0.678117,202.373
409,0.679783,200.57
410,0.68145,199.02
411,0.683117,197.619
412,0.684783,197.619
413,0.686467,196.36
414,0.68815,195.183
415,0.689767,193.857
416,0.691433,193.857
417,0.6931,192.784
418,0.694767,191.681
419,0.696433,190.392
420,0.6981000000000001,190.392
421,0.699767,189.334
422,0.701433,188.164
423,0.7030999999999999,188.164
424,0.704767,186.905
425,0.706433,185.929
426,0.7081,184.931
427,0.709767,184.931
428,0.711433,183.627
429,0.7131,182.36
430,0.7148,181.437
431,0.716433,181.437
432,0.7181,180.259
433,0.719767,179.678
434,0.721433,179.239
435,0.7231,179.239
436,0.7247670000000001,178.337
437,0.726433,177.637
438,0.7281,176.862
439,0.7297670000000001,176.862
440,0.731433,175.782
441,0.7331,174.865
442,0.7347669999999999,174.865
443,0.736433,174.06
444,0.7381,173.084
445,0.739767,172.324
446,0.741433,172.324
447,0.7431,171.855
448,0.744767,171.11
449,0.746433,170.447
450,0.7480830000000001,170.447
451,0.74975,169.933
452,0.751417,169.165
453,0.7530829999999999,168.577
454,0.75475,168.577
455,0.756433,168.025
456,0.758083,167.713
457,0.75975,167.713
458,0.761417,167.079
459,0.763083,166.588
460,0.76475,166.17
461,0.766417,166.17
462,0.768083,165.522
463,0.76975,165.448
464,0.771417,165.008
465,0.77315,165.008
466,0.774783,164.375
467,0.776417,163.853
468,0.778083,162.959
469,0.7797500000000001,162.959
470,0.781417,162.631
471,0.783083,162.527
472,0.784767,162.125
473,0.786433,162.125
474,0.78815,161.678
475,0.7898500000000001,161.231
476,0.791417,161.231
477,0.793083,160.493
478,0.79475,160.217
479,0.796417,160.12
480,0.798083,160.12
481,0.79975,159.86
482,0.801417,159.577
483,0.803083,159.42
484,0.80475,159.42
485,0.80645,159.174
486,0.808067,158.958
487,0.809733,158.742
488,0.811383,158.742
489,0.8130500000000001,158.355
490,0.814717,157.811
491,0.816383,157.811
492,0.8180500000000001,157.379
493,0.819717,157.371
494,0.821383,156.872
495,0.8230499999999999,156.872
496,0.824717,156.641
497,0.826383,156.343
498,0.82805,155.717
499,0.829717,155.717
500,0.831383,155.449
501,0.83305,155.136
502,0.834717,154.816
503,0.836383,154.816
504,0.83805,154.637
505,0.839717,154.406
506,0.841383,154.406
507,0.84305,154.495
508,0.8447170000000001,154.227
509,0.846383,153.981
510,0.84805,153.981
511,0.8497169999999999,154.071
512,0.851383,153.571
513,0.85305,153.363
514,0.8547169999999999,153.363
515,0.856383,153.206
516,0.858067,152.908
517,0.8597669999999999,152.841
518,0.861383,152.841
519,0.86305,152.856
520,0.864717,152.662
521,0.866383,152.439
522,0.8680330000000001,152.439
523,0.8697,152.074
524,0.871367,151.835
525,0.8730329999999999,151.835
526,0.8747,151.612
527,0.876367,151.314
528,0.878033,151.396
529,0.8797,151.396
530,0.881367,151.277
531,0.883033,151.463
532,0.8847,151.277
533,0.886367,151.277
534,0.888033,151.061
535,0.8897,150.837
536,0.891467,150.464
537,0.893033,150.464
538,0.8947000000000001,150.464
539,0.896367,150.405
540,0.898033,150.405
541,0.8997000000000001,150.42
542,0.901367,150.323
543,0.903033,150.181
544,0.9046999999999999,150.181
545,0.906367,149.995
546,0.908117,149.399
547,0.9097,149.183
548,0.911367,149.183
549,0.913033,149.019
550,0.9147,148.892
551,0.916367,149.257
552,0.918033,149.257
553,0.9197,149.429
554,0.921367,149.295
555,0.923033,149.272
556,0.92475,149.272
557,0.92635,149.332
558,0.928017,149.19
559,0.929683,149.19
560,0.93135,149.034
561,0.933017,148.803
562,0.934683,148.408
563,0.9363669999999999,148.408
564,0.938033,148.147
565,0.939683,148.237
566,0.94135,148.252
567,0.943017,148.252
568,0.9446830000000001,148.252
569,0.94635,148.229
570,0.948017,148.267
571,0.9496830000000001,148.267
572,0.95135,148.259
573,0.953017,148.244
574,0.9546829999999999,148.244
575,0.95635,148.341
576,0.958017,148.073
577,0.9597,148.162
578,0.96135,148.162
579,0.963017,147.834
580,0.964683,147.335
581,0.96635,147.238
582,0.968017,147.238
583,0.969683,146.858
584,0.97135,146.896
585,0.973017,146.762
586,0.974683,146.762
587,0.9763500000000001,146.516
588,0.978017,146.307
589,0.979683,146.307
590,0.9813499999999999,146.195
591,0.983017,146.396
592,0.984683,146.665
593,0.9863499999999999,146.665
594,0.988,146.776
595,0.989667,146.456
596,0.991333,146.426
597,0.99305,146.426
598,0.994667,146.322
599,0.996333,146.314
600,0.998,146.389
601,0.999683,146.389
602,1.001383,146.493
603,1.003,146.136
604,1.004667,145.778
605,1.006333,145.778
606,1.008,145.905
607,1.009717,145.45
608,1.011333,145.45
609,1.013,145.413
610,1.014667,145.786
611,1.016333,145.726
612,1.018,145.726
613,1.019667,145.964
614,1.021333,146.367
615,1.023,146.195
616,1.024667,146.195
617,1.026383,146.307
618,1.028,146.233
619,1.029667,145.823
620,1.031333,145.823
621,1.033,145.622
622,1.034667,145.681
623,1.036333,145.681
624,1.038,145.867
625,1.039667,145.786
626,1.041333,145.964
627,1.043083,145.964
628,1.044667,145.607
629,1.046333,145.175
630,1.047983,145.324
631,1.04965,145.324
632,1.051317,145.242
633,1.052983,145.286
634,1.05465,145.301
635,1.056317,145.301
636,1.057983,145.443
637,1.05965,145.301
638,1.061317,145.465
639,1.062983,145.465
640,1.06465,145.718
641,1.066317,145.547
642,1.067983,145.547
643,1.06965,145.487
644,1.071317,145.316
645,1.072983,145.078
646,1.074683,145.078
647,1.076317,145.137
648,1.077983,145.167
649,1.07965,145.07
650,1.081317,145.07
651,1.082983,144.988
652,1.08465,144.735
653,1.086317,144.698
654,1.087983,144.698
655,1.08965,144.452
656,1.091317,144.161
657,1.092983,144.161
658,1.09465,144.102
659,1.096317,144.057
660,1.097983,144.117
661,1.09965,144.117
662,1.101317,144.526
663,1.102967,144.534
664,1.104633,144.437
665,1.1063,144.437
666,1.10795,144.653
667,1.109617,144.459
668,1.111317,144.593
669,1.11295,144.593
670,1.114617,144.415
671,1.116283,144.117
672,1.11795,144.146
673,1.119617,144.146
674,1.121283,144.042
675,1.12295,144.415
676,1.124617,144.415
677,1.126283,144.482
678,1.127983,144.243
679,1.129617,144.057
680,1.131283,144.057
681,1.13295,143.737
682,1.134633,143.707
683,1.136283,143.841
684,1.13795,143.841
685,1.139617,143.796
686,1.141283,143.833
687,1.14295,143.811
688,1.144683,143.811
689,1.146283,143.617
690,1.14795,143.595
691,1.149617,143.595
692,1.151283,143.424
693,1.15295,143.327
694,1.154617,143.521
695,1.156283,143.521
696,1.15795,143.461
697,1.159617,143.498
698,1.1614,143.632
699,1.16295,143.632
700,1.1646,143.386
701,1.166283,143.364
702,1.167933,143.29
703,1.1696,143.29
704,1.171267,143.357
705,1.172933,143.595
706,1.1746,143.595
707,1.176267,143.692
708,1.177933,143.662
709,1.1796,143.327
710,1.181267,143.327
711,1.182933,143.312
712,1.1846,143.223
713,1.186267,143.312
714,1.187933,143.312
715,1.1896,143.297
716,1.191267,143.237
717,1.192933,143.223
718,1.1946,143.223
719,1.196267,142.91
720,1.197933,142.604
721,1.1996,142.179
722,1.201267,142.179
723,1.202933,142.105
724,1.2046,142.306
725,1.206267,142.306
726,1.207933,142.612
727,1.2096,142.88
728,1.211267,143.141
729,1.212933,143.141
730,1.2146,143.342
731,1.216267,143.677
732,1.217933,143.923
733,1.2196,143.923
734,1.221267,143.856
735,1.222933,143.848
736,1.2246,143.655
737,1.226267,143.655
738,1.227917,143.223
739,1.229583,143.23
740,1.23125,143.23
741,1.232917,143.304
742,1.234583,143.133
743,1.23625,143.304
744,1.237917,143.304
745,1.239583,143.409
746,1.24125,143.029
747,1.242917,142.723
748,1.244583,142.723
749,1.246317,142.768
750,1.247917,142.485
751,1.249583,142.612
752,1.25125,142.612
753,1.252917,143.237
754,1.254583,143.193
755,1.25625,143.282
756,1.257917,143.282
757,1.259583,143.521
758,1.26125,143.245
759,1.262917,143.245
760,1.264583,143.118
761,1.26625,142.969
762,1.267917,142.798
763,1.269583,142.798
764,1.27125,142.91
765,1.272917,143.111
766,1.274583,143.096
767,1.27625,143.096
768,1.277917,143.252
769,1.279633,143.081
770,1.28125,142.977
771,1.282917,142.977
772,1.284583,143.319
773,1.28625,143.312
774,1.2879,143.312
775,1.289567,143.297
776,1.291233,143.29
777,1.2929,142.924
778,1.294567,142.924
779,1.296233,142.656
780,1.297983,142.924
781,1.299567,143.006
782,1.301233,143.006
783,1.3029,143.036
784,1.304567,143.044
785,1.306233,142.746
786,1.3079,142.746
787,1.309567,142.291
788,1.311233,142.336
789,1.3129,142.41
790,1.314567,142.41
791,1.316233,142.567
792,1.3179,142.865
793,1.319567,142.865
794,1.321233,142.671
795,1.3229,142.701
796,1.324567,142.716
797,1.326233,142.716
798,1.3279,142.723
799,1.329567,142.768
800,1.331233,142.731
801,1.3329,142.731
802,1.334567,142.85
803,1.336233,142.895
804,1.3379,143.006
805,1.339567,143.006
806,1.341233,143.133
807,1.3429,142.902
808,1.344567,142.902
809,1.346233,142.954
810,1.347883,142.932
811,1.34955,142.805
812,1.351217,142.805
813,1.352883,142.828
814,1.35455,142.686
815,1.35625,142.589
816,1.357883,142.589
817,1.35955,142.291
818,1.361217,141.881
819,1.3629,141.613
820,1.364617,141.613
821,1.366217,141.397
822,1.3679,141.613
823,1.36955,141.732
824,1.371217,141.732
825,1.372883,141.814
826,1.37455,142.12
827,1.376217,142.12
828,1.377883,142.105
829,1.37955,142.09
830,1.381217,142.269
831,1.382883,142.269
832,1.38455,142.202
833,1.386217,142.179
834,1.387883,142.172
835,1.38955,142.172
836,1.391217,141.993
837,1.392883,141.829
838,1.394533,141.822
839,1.3962,141.822
840,1.39795,142.127
841,1.399533,142.075
842,1.4012,142.075
843,1.402867,142.314
844,1.404533,142.246
845,1.406183,141.904
846,1.40785,141.904
847,1.409517,142.053
848,1.411183,142.053
849,1.41285,141.889
850,1.414517,141.889
851,1.416183,142.254
852,1.41785,142.083
853,1.419517,142.15
854,1.421183,142.15
855,1.42285,142.403
856,1.424517,142.358
857,1.426183,142.358
858,1.42785,142.649
859,1.429517,142.522
860,1.4312,142.395
861,1.43285,142.395
862,1.434517,142.314
863,1.436183,142.202
864,1.43785,142.187
865,1.439517,142.187
866,1.441183,142.306
867,1.44285,142.433
868,1.444517,142.552
869,1.446183,142.552
870,1.44785,142.395
871,1.449517,142.507
872,1.451183,142.44
873,1.45285,142.44
874,1.454533,142.418
875,1.456183,142.626
876,1.45785,142.626
877,1.459517,142.477
878,1.461183,142.418
879,1.46285,142.261
880,1.464517,142.261
881,1.466167,142.343
882,1.467833,142.381
883,1.4695,142.455
884,1.471167,142.455
885,1.472833,142.537
886,1.4745,142.574
887,1.476167,142.761
888,1.477833,142.761
889,1.4795,142.343
890,1.481167,142.194
891,1.4829,141.725
892,1.4845,141.725
893,1.486167,141.3
894,1.487833,141.643
895,1.4895,141.643
896,1.491167,142.038
897,1.492833,142.254
898,1.4945,142.373
899,1.496167,142.373
900,1.497833,142.44
901,1.4995,142.358
902,1.501183,142.545
903,1.502833,142.545
904,1.5045,142.634
905,1.506167,142.641
906,1.507833,142.366
907,1.5095,142.366
908,1.511167,142.261
909,1.512833,142.515
910,1.5145,142.515
911,1.516233,142.634
912,1.517833,142.723
913,1.5195,142.53
914,1.521167,142.53
915,1.522833,142.366
916,1.5245,141.948
917,1.526167,142.038
918,1.527817,142.038
919,1.529483,142.276
920,1.53115,142.105
921,1.532817,142.239
922,1.534483,142.239
923,1.53615,141.919
924,1.537833,141.65
925,1.539483,141.65
926,1.54115,141.487
927,1.542817,141.285
928,1.544483,141.621
929,1.54615,141.621
930,1.547817,141.688
931,1.5495,141.717
932,1.55115,141.859
933,1.552817,141.859
934,1.554483,141.881
935,1.55615,141.822
936,1.557817,141.777
937,1.559483,141.777
938,1.56115,141.695
939,1.562817,141.345
940,1.564483,141.278
941,1.56615,141.278
942,1.567817,141.3
943,1.569483,141.27
944,1.57115,141.27
945,1.572833,141.375
946,1.574483,141.531
947,1.57615,141.487
948,1.577817,141.487
949,1.579483,141.449
950,1.58115,141.442
951,1.582817,141.412
952,1.584483,141.412
953,1.58615,141.814
954,1.5878,142.06
955,1.589467,142.254
956,1.591133,142.254
957,1.5928,142.366
958,1.594467,141.911
