"ID","sea_time","fid_signal"
1,0,1159.906
2,0.001667,1159.906
3,0.003333,1162.738
4,0.005,1163.781
5,0.006667,1166.016
6,0.008333,1166.016
7,0.01005,1166.314
8,0.011667,1165.345
9,0.013333,1165.345
10,0.015,1162.514
11,0.016683,1158.491
12,0.018317,1159.981
13,0.019983,1159.981
14,0.02165,1163.706
15,0.023317,1169.816
16,0.024983,1173.094
17,0.02665,1173.094
18,0.028317,1171.157
19,0.029983,1168.326
20,0.03165,1163.483
21,0.033433,1163.483
22,0.034983,1161.695
23,0.03665,1163.036
24,0.038317,1162.365
25,0.039983,1162.365
26,0.04165,1164.153
27,0.043317,1164.973
28,0.044983,1164.973
29,0.04665,1165.643
30,0.048317,1167.133
31,0.049983,1166.165
32,0.05165,1166.165
33,0.053317,1164.526
34,0.054983,1166.016
35,0.05665,1164.675
36,0.058317,1164.675
37,0.059983,1167.133
38,0.06165,1168.102
39,0.063317,1165.345
40,0.064983,1165.345
41,0.06665,1168.326
42,0.068317,1167.879
43,0.069983,1167.879
44,0.07165000000000001,1167.059
45,0.07331699999999999,1169.22
46,0.07498299999999999,1168.475
47,0.07663300000000001,1168.475
48,0.078333,1168.922
49,0.08,1171.082
50,0.081717,1170.933
51,0.0833,1170.933
52,0.084967,1172.349
53,0.086633,1171.157
54,0.0883,1168.624
55,0.08996700000000001,1168.624
56,0.09163300000000001,1166.463
57,0.09329999999999999,1162.365
58,0.094967,1161.247
59,0.096633,1161.247
60,0.0983,1162.142
61,0.099967,1164.377
62,0.101633,1164.377
63,0.1033,1164.749
64,0.10495,1163.855
65,0.106617,1166.537
66,0.1083,1166.537
67,0.10995,1168.4
68,0.111617,1171.231
69,0.113283,1173.094
70,0.11495,1173.094
71,0.116617,1170.188
72,0.11835,1167.655
73,0.11995,1164.973
74,0.121617,1164.973
75,0.123283,1163.632
76,0.12495,1165.047
77,0.126617,1165.047
78,0.128283,1164.153
79,0.12995,1167.059
80,0.131617,1168.326
81,0.133283,1168.326
82,0.13495,1166.984
83,0.136617,1166.984
84,0.138267,1165.569
85,0.139933,1165.569
86,0.1416,1167.282
87,0.143267,1168.475
88,0.144933,1171.529
89,0.1466,1171.529
90,0.148267,1169.741
91,0.149933,1167.58
92,0.1517,1167.282
93,0.153267,1167.282
94,0.154933,1165.643
95,0.1566,1165.643
96,0.158267,1165.643
97,0.159933,1166.835
98,0.1616,1166.09
99,0.163267,1164.079
100,0.164933,1164.079
101,0.1666,1164.451
102,0.168267,1162.142
103,0.169933,1162.961
104,0.1716,1162.961
105,0.173267,1162.738
106,0.174933,1162.142
107,0.1766,1165.42
108,0.178267,1165.42
109,0.179933,1164.6
110,0.1816,1167.655
111,0.183267,1167.655
112,0.184933,1168.475
113,0.1866,1168.549
114,0.188267,1170.933
115,0.189933,1170.933
116,0.1916,1167.804
117,0.193267,1167.58
118,0.194933,1167.059
119,0.1966,1167.059
120,0.19825,1164.079
121,0.199917,1166.761
122,0.201583,1168.922
123,0.20325,1168.922
124,0.204917,1167.208
125,0.206583,1167.58
126,0.20825,1167.58
127,0.209917,1166.537
128,0.211583,1168.251
129,0.21325,1168.996
130,0.214917,1168.996
131,0.2166,1169.443
132,0.21825,1170.784
133,0.219917,1170.114
134,0.221583,1170.114
135,0.22325,1173.839
136,0.224917,1175.106
137,0.226583,1176
138,0.228267,1176
139,0.22995,1173.839
140,0.231583,1174.584
141,0.23325,1178.905
142,0.234917,1178.905
143,0.23665,1187.25
144,0.23825,1201.034
145,0.239917,1201.034
146,0.241583,1215.711
147,0.24325,1237.616
148,0.244917,1262.277
149,0.246583,1262.277
150,0.24825,1295.88
151,0.249917,1335.442
152,0.251583,1384.467
153,0.25325,1384.467
154,0.254917,1439.75
155,0.256583,1501.888
156,0.25825,1574.457
157,0.2599,1574.457
158,0.261567,1652.166
159,0.263233,1736.358
160,0.2649,1736.358
161,0.266567,1825.765
162,0.268233,1919.27
163,0.270017,2014.935
164,0.271567,2014.935
165,0.273233,2116.263
166,0.2749,2220.198
167,0.276567,2330.02
168,0.278233,2330.02
169,0.2799,2446.324
170,0.281567,2565.458
171,0.283233,2690.032
172,0.2849,2690.032
173,0.286567,2816.17
174,0.288233,2946.63
175,0.2899,3084.242
176,0.291567,3084.242
177,0.293233,3228.337
178,0.294917,3380.626
179,0.296567,3380.626
180,0.298233,3535.449
181,0.2999,3696.68
182,0.301567,3865.585
183,0.303233,3865.585
184,0.3049,4041.344
185,0.306567,4229.62
186,0.308233,4429.966
187,0.3099,4429.966
188,0.311567,4640.967
189,0.313233,4860.163
190,0.3149,5089.641
191,0.316567,5089.641
192,0.318217,5330.667
193,0.319917,5585.775
194,0.321583,5585.775
195,0.323217,5860.329
196,0.324883,6153.807
197,0.32655,6468.892
198,0.328217,6468.892
199,0.329883,6810.948
200,0.33155,7186.383
201,0.333217,7611.886
202,0.334883,7611.886
203,0.336567,8091.479
204,0.338217,8633.732
205,0.339883,9249.746999999999
206,0.34155,9249.746999999999
207,0.343217,9934.828
208,0.344883,10683.611
209,0.34655,11477.247
210,0.348217,11477.247
211,0.349883,12277.514
212,0.35155,13042.018
213,0.353217,13042.018
214,0.354917,13725.46
215,0.35655,14279.634
216,0.358217,14673.546
217,0.359883,14673.546
218,0.36155,14878.214
219,0.363217,14883.727
220,0.364883,14699.921
221,0.36655,14699.921
222,0.368217,14339.983
223,0.3699,13834.61
224,0.37155,13216.957
225,0.373217,13216.957
226,0.374883,12516.379
227,0.37655,11764.616
228,0.3782,11764.616
229,0.379867,10992.587
230,0.381533,10222.644
231,0.3832,9470.209999999999
232,0.384867,9470.209999999999
233,0.386533,8747.578
234,0.388283,8063.987
235,0.389867,7421.225
236,0.391533,7421.225
237,0.3932,6826.893
238,0.394867,6281.733
239,0.396517,5783.662
240,0.398183,5783.662
241,0.39985,5328.879
242,0.401517,4916.638
243,0.403183,4916.638
244,0.40485,4548.058
245,0.406517,4215.762
246,0.408183,3918.26
247,0.40985,3918.26
248,0.41155,3652.871
249,0.413183,3412.887
250,0.41485,3194.287
251,0.416517,3194.287
252,0.418183,2999.306
253,0.41985,2824.068
254,0.421517,2666.712
255,0.423183,2666.712
256,0.42485,2527.609
257,0.426517,2405.494
258,0.428183,2295.077
259,0.42985,2295.077
260,0.431517,2196.357
261,0.433183,2109.483
262,0.43485,2109.483
263,0.436517,2028.421
264,0.438167,1954.138
265,0.439833,1887.754
266,0.441533,1887.754
267,0.443167,1825.243
268,0.444833,1768.917
269,0.4465,1722.574
270,0.448167,1722.574
271,0.449833,1678.392
272,0.4515,1638.606
273,0.453167,1604.333
274,0.454833,1604.333
275,0.4565,1571.178
276,0.458167,1542.866
277,0.459833,1542.866
278,0.4615,1517.236
279,0.463167,1490.489
280,0.464833,1464.635
281,0.4665,1464.635
282,0.468167,1439.899
283,0.469833,1417.697
284,0.4715,1400.113
285,0.4732,1400.113
286,0.474833,1385.957
287,0.4765,1371.428
288,0.478167,1358.315
289,0.479833,1358.315
290,0.4815,1347.288
291,0.483167,1334.175
292,0.484833,1323.67
293,0.4865,1323.67
294,0.488167,1313.761
295,0.48985,1303.405
296,0.4915,1303.405
297,0.493167,1295.73
298,0.494833,1286.492
299,0.4965,1281.574
300,0.49815,1281.574
301,0.499817,1276.21
302,0.501483,1269.206
303,0.50315,1268.238
304,0.504817,1268.238
305,0.506567,1264.14
306,0.50815,1260.042
307,0.509817,1257.062
308,0.5115,1257.062
309,0.51315,1249.686
310,0.514817,1243.651
311,0.516517,1243.651
312,0.51815,1239.031
313,0.519817,1232.997
314,0.521483,1229.718
315,0.523267,1229.718
316,0.524817,1225.397
317,0.526483,1222.268
318,0.52815,1224.354
319,0.529817,1224.354
320,0.531483,1223.385
321,0.53315,1224.652
322,0.534817,1223.534
323,0.536483,1223.534
324,0.53815,1220.107
325,0.539817,1219.064
326,0.541483,1216.382
327,0.54315,1216.382
328,0.544817,1212.359
329,0.5464830000000001,1208.559
330,0.54815,1208.559
331,0.549817,1203.641
332,0.5514829999999999,1198.053
333,0.55315,1193.956
334,0.554817,1193.956
335,0.5564829999999999,1192.242
336,0.55815,1191.124
337,0.5598,1189.858
338,0.561467,1189.858
339,0.563133,1190.901
340,0.5648,1191.273
341,0.5664670000000001,1194.179
342,0.568133,1194.179
343,0.5698,1196.638
344,0.5714669999999999,1196.265
345,0.573133,1196.265
346,0.5748,1195.446
347,0.576483,1191.273
348,0.578133,1191.72
349,0.5798,1191.72
350,0.581483,1193.509
351,0.583133,1191.571
352,0.5848,1192.391
353,0.586467,1192.391
354,0.588133,1188.666
355,0.5898,1186.505
356,0.591467,1185.313
357,0.593133,1185.313
358,0.5948,1185.313
359,0.596467,1185.834
360,0.598133,1185.834
361,0.5998,1186.505
362,0.601467,1188.74
363,0.603133,1188.07
364,0.6048,1188.07
365,0.606467,1189.56
366,0.6082,1187.25
367,0.6098,1185.685
368,0.611467,1185.685
369,0.613133,1184.344
370,0.6148,1183.45
371,0.616467,1185.983
372,0.618117,1185.983
373,0.619783,1187.399
374,0.6214499999999999,1188.74
375,0.623117,1187.399
376,0.624867,1187.399
377,0.62645,1185.536
378,0.628117,1183.525
379,0.629783,1183.525
380,0.63145,1180.917
381,0.633117,1177.713
382,0.634783,1174.733
383,0.63645,1174.733
384,0.638117,1173.243
385,0.639783,1173.168
386,0.641567,1177.415
387,0.643117,1177.415
388,0.644783,1179.129
389,0.64645,1179.352
390,0.6481170000000001,1179.874
391,0.649783,1179.874
392,0.65145,1177.341
393,0.6531169999999999,1180.396
394,0.654783,1180.396
395,0.65645,1183.972
396,0.658117,1183.45
397,0.659783,1186.207
398,0.66145,1186.207
399,0.663117,1182.854
400,0.664783,1180.246
401,0.66645,1180.545
402,0.668117,1180.545
403,0.669783,1178.682
404,0.67145,1178.607
405,0.673117,1176.223
406,0.674783,1176.223
407,0.67645,1174.807
408,0.6781,1171.902
409,0.679767,1171.38
410,0.681433,1171.38
411,0.6831,1173.392
412,0.684767,1174.212
413,0.686433,1174.212
414,0.688083,1175.031
415,0.68975,1173.988
416,0.6914169999999999,1174.212
417,0.693083,1174.212
418,0.69475,1174.137
419,0.696417,1174.733
420,0.698083,1176.745
421,0.69975,1176.745
422,0.701417,1175.627
423,0.703083,1175.553
424,0.70475,1176.521
425,0.706417,1176.521
426,0.708083,1174.807
427,0.70975,1174.659
428,0.711417,1174.659
429,0.713083,1176
430,0.71475,1172.647
431,0.716417,1174.584
432,0.718083,1174.584
433,0.71975,1176.447
434,0.721417,1177.266
435,0.723083,1179.948
436,0.72475,1179.948
437,0.726467,1179.352
438,0.728083,1178.607
439,0.72975,1176.223
440,0.73145,1176.223
441,0.733083,1175.106
442,0.73475,1175.18
443,0.736417,1175.18
444,0.738067,1171.902
445,0.739733,1168.922
446,0.7413999999999999,1167.282
447,0.743117,1167.282
448,0.744733,1164.526
449,0.7464,1163.855
450,0.748067,1165.643
451,0.749733,1165.643
452,0.7514,1166.761
453,0.753067,1167.804
454,0.754733,1172.125
455,0.7564,1172.125
456,0.758067,1174.286
457,0.759833,1176.223
458,0.7614,1176
459,0.7630670000000001,1176
460,0.764733,1173.243
461,0.7664,1170.859
462,0.7680670000000001,1170.859
463,0.769733,1170.784
464,0.7714,1171.976
465,0.7730669999999999,1173.317
466,0.774733,1173.317
467,0.7764,1175.255
468,0.778067,1175.702
469,0.779733,1174.212
470,0.7814,1174.212
471,0.783067,1175.106
472,0.784733,1174.137
473,0.7864,1172.572
474,0.788067,1172.572
475,0.789733,1175.329
476,0.7914,1175.18
477,0.793067,1175.18
478,0.794733,1176.447
479,0.7964,1176.968
480,0.798067,1173.466
481,0.799767,1173.466
482,0.801383,1170.114
483,0.80305,1169.518
484,0.804717,1171.529
485,0.806383,1171.529
486,0.80805,1175.404
487,0.809717,1178.905
488,0.811383,1179.129
489,0.8130500000000001,1179.129
490,0.814717,1178.086
491,0.8164,1176.074
492,0.8180500000000001,1174.659
493,0.819717,1174.659
494,0.821383,1174.212
495,0.8230499999999999,1171.753
496,0.824717,1171.753
497,0.826383,1173.243
498,0.82805,1174.435
499,0.829717,1172.423
500,0.831383,1172.423
501,0.83305,1171.827
502,0.834717,1168.475
503,0.836383,1164.6
504,0.83805,1164.6
505,0.839717,1167.953
506,0.841383,1170.412
507,0.84305,1172.572
508,0.844733,1172.572
509,0.846383,1174.957
510,0.84805,1172.498
511,0.8497169999999999,1172.498
512,0.851383,1173.243
513,0.85305,1171.455
514,0.8547169999999999,1169.443
515,0.856383,1169.443
516,0.858033,1167.655
517,0.8597,1167.282
518,0.861417,1169.071
519,0.8630330000000001,1169.071
520,0.8647,1168.847
521,0.866367,1169.816
522,0.8680330000000001,1165.867
523,0.8697,1165.867
524,0.871367,1164.377
525,0.8730329999999999,1165.569
526,0.8747,1164.749
527,0.876383,1164.749
528,0.87815,1166.388
529,0.8797,1167.58
530,0.881367,1167.58
531,0.883033,1169.965
532,0.8847,1172.647
533,0.886367,1176.447
534,0.888033,1176.447
535,0.8897,1178.458
536,0.891367,1176.298
537,0.893033,1174.286
538,0.8947000000000001,1174.286
539,0.896367,1172.498
540,0.898033,1171.902
541,0.8997000000000001,1175.851
542,0.901367,1175.851
543,0.903033,1175.18
544,0.9046999999999999,1172.647
545,0.9064,1172.647
546,0.908033,1172.721
547,0.9097,1170.784
548,0.911367,1174.584
549,0.913033,1174.584
550,0.9147,1174.212
551,0.916367,1169.741
552,0.918017,1168.475
553,0.919683,1168.475
554,0.92135,1168.251
555,0.923017,1168.847
556,0.924683,1170.486
557,0.92635,1170.486
558,0.928017,1168.326
559,0.929683,1167.133
560,0.93135,1169.145
561,0.933017,1169.145
562,0.934683,1170.412
563,0.93635,1171.604
564,0.938017,1171.604
565,0.939683,1169.816
566,0.94135,1170.337
567,0.9430500000000001,1170.486
568,0.9446830000000001,1170.486
569,0.94635,1170.188
570,0.948017,1170.71
571,0.9496830000000001,1168.102
572,0.95135,1168.102
573,0.953017,1166.761
574,0.9546829999999999,1166.239
575,0.95635,1167.432
576,0.958017,1167.432
577,0.959683,1170.784
578,0.96135,1168.475
579,0.963017,1168.475
580,0.964683,1169.071
581,0.96635,1170.71
582,0.968033,1168.624
583,0.969683,1168.624
584,0.97135,1171.902
585,0.973017,1172.423
586,0.974683,1168.549
587,0.9763500000000001,1168.549
588,0.977983,1164.451
589,0.979667,1159.534
590,0.981317,1160.204
591,0.9829830000000001,1160.204
592,0.98465,1160.055
593,0.986317,1163.334
594,0.9879829999999999,1163.334
595,0.98965,1166.388
596,0.991317,1163.93
597,0.9929829999999999,1164.898
598,0.994683,1164.898
599,0.996417,1163.855
600,0.997983,1164.153
601,0.99965,1165.345
602,1.001317,1165.345
603,1.002983,1165.718
604,1.00465,1167.357
605,1.006317,1168.475
606,1.007983,1168.475
607,1.00965,1168.251
608,1.011317,1167.059
609,1.012983,1165.643
610,1.01465,1165.643
611,1.016317,1164.079
612,1.017983,1166.165
613,1.019667,1166.165
614,1.021317,1169.592
615,1.022983,1172.945
616,1.02465,1174.435
617,1.026317,1174.435
618,1.027983,1171.678
619,1.02965,1169.965
620,1.031317,1166.388
621,1.032983,1166.388
622,1.03465,1164.898
623,1.036317,1165.867
624,1.037967,1165.271
625,1.039633,1165.271
626,1.0413,1165.494
627,1.042967,1166.537
628,1.044633,1166.537
629,1.0463,1167.58
630,1.047967,1168.326
631,1.049633,1168.177
632,1.0513,1168.177
633,1.052967,1168.922
634,1.054633,1170.859
635,1.0563,1171.678
636,1.057967,1171.678
637,1.059633,1173.69
638,1.0613,1172.498
639,1.062967,1168.698
640,1.064633,1168.698
641,1.0663,1166.463
642,1.067967,1164.675
643,1.069633,1164.377
644,1.071333,1164.377
645,1.072967,1165.569
646,1.074633,1165.345
647,1.0763,1165.345
648,1.077967,1165.345
649,1.079633,1166.463
650,1.08135,1164.526
651,1.082967,1164.526
652,1.084633,1168.102
653,1.0863,1167.804
654,1.087967,1167.208
655,1.089633,1167.208
656,1.0913,1171.231
657,1.092967,1169.741
658,1.094667,1173.69
659,1.0963,1173.69
660,1.09795,1172.945
661,1.099617,1173.317
662,1.101283,1173.317
663,1.10295,1172.274
664,1.104617,1172.125
665,1.106283,1174.659
666,1.10795,1174.659
667,1.109617,1171.753
668,1.111283,1172.051
669,1.11295,1171.753
670,1.114717,1171.753
671,1.116283,1170.933
672,1.11795,1172.945
673,1.119617,1174.36
674,1.121283,1174.36
675,1.12295,1174.137
676,1.124617,1171.604
677,1.126283,1166.09
678,1.12795,1166.09
679,1.129617,1162.812
680,1.131283,1159.31
681,1.13295,1159.31
682,1.134617,1161.247
683,1.136283,1163.185
684,1.13795,1163.036
685,1.139617,1163.036
686,1.141283,1163.781
687,1.142967,1163.11
688,1.144617,1164.675
689,1.146283,1164.675
690,1.14795,1168.102
691,1.149617,1168.698
692,1.151283,1172.274
693,1.15295,1172.274
694,1.154617,1173.094
695,1.156283,1172.87
696,1.157933,1172.87
697,1.1596,1172.945
698,1.161267,1171.678
699,1.162933,1174.137
700,1.164667,1174.137
701,1.166267,1174.584
702,1.167933,1174.51
703,1.1696,1173.466
704,1.171267,1173.466
705,1.172933,1172.87
706,1.1746,1169.518
707,1.176267,1165.718
708,1.177933,1165.718
709,1.1796,1163.259
710,1.181267,1159.757
711,1.182933,1159.757
712,1.1846,1161.099
713,1.186267,1162.738
714,1.187933,1164.004
715,1.1896,1164.004
716,1.191267,1166.612
717,1.192933,1166.91
718,1.1946,1169.22
719,1.196267,1169.22
720,1.197933,1168.996
721,1.199633,1166.984
722,1.201267,1168.475
723,1.202933,1168.475
724,1.2046,1169.965
725,1.206267,1174.063
726,1.207933,1177.415
727,1.2096,1177.415
728,1.211267,1174.584
729,1.212933,1172.721
730,1.2146,1172.721
731,1.216317,1169.071
732,1.217917,1166.91
733,1.219583,1169.443
734,1.22125,1169.443
735,1.222917,1168.102
736,1.224583,1167.729
737,1.22625,1166.835
738,1.227917,1166.835
739,1.229583,1165.122
740,1.23125,1169.518
741,1.232983,1169.667
742,1.234583,1169.667
743,1.23625,1172.423
744,1.237917,1171.753
745,1.239583,1171.753
746,1.24125,1169.22
747,1.242917,1172.2
748,1.244583,1169.145
749,1.24625,1169.145
750,1.247917,1169.965
751,1.249583,1171.231
752,1.25125,1171.678
753,1.252917,1171.678
754,1.254583,1171.976
755,1.25625,1174.212
756,1.257917,1171.38
757,1.259583,1171.38
758,1.26125,1165.718
759,1.262917,1164.973
760,1.264583,1162.812
761,1.26625,1162.812
762,1.267917,1161.769
763,1.269567,1163.706
764,1.271233,1163.706
765,1.2729,1164.153
766,1.274567,1159.608
767,1.276217,1160.875
768,1.2779,1160.875
769,1.27955,1161.471
770,1.281217,1163.259
771,1.282883,1167.282
772,1.28455,1167.282
773,1.286217,1167.58
774,1.287883,1169.443
775,1.28955,1166.91
776,1.291217,1166.91
777,1.292883,1165.569
778,1.29455,1165.271
779,1.296217,1165.271
780,1.297883,1162.663
781,1.29955,1165.345
782,1.301217,1168.102
783,1.302883,1168.102
784,1.30455,1170.337
785,1.30625,1170.039
786,1.307917,1167.282
787,1.30955,1167.282
788,1.311217,1166.835
789,1.312883,1166.761
790,1.31455,1168.177
791,1.316217,1168.177
792,1.3179,1170.859
793,1.31955,1171.455
794,1.321217,1171.157
795,1.322883,1171.157
796,1.32455,1170.039
797,1.326217,1167.432
798,1.327883,1167.432
799,1.32955,1167.953
800,1.331217,1170.486
801,1.332883,1172.647
802,1.33465,1172.647
803,1.3362,1175.776
804,1.337883,1172.572
805,1.339533,1169.071
806,1.3412,1169.071
807,1.342867,1170.635
808,1.344533,1170.039
809,1.3462,1172.572
810,1.347867,1172.572
811,1.349533,1173.392
812,1.3513,1172.051
813,1.352867,1172.051
814,1.354533,1172.125
815,1.3562,1171.008
816,1.357867,1168.922
817,1.359533,1168.922
818,1.3612,1166.686
819,1.362867,1164.377
820,1.364533,1163.632
821,1.3662,1163.632
822,1.367967,1164.824
823,1.369533,1167.879
824,1.3712,1170.561
825,1.372867,1170.561
826,1.374533,1173.392
827,1.3762,1174.584
828,1.377867,1174.584
829,1.379533,1172.2
830,1.3812,1169.443
831,1.382867,1166.388
832,1.384533,1166.388
833,1.3862,1164.079
834,1.387867,1165.271
835,1.389533,1165.494
836,1.3912,1165.494
837,1.392867,1167.282
838,1.394533,1165.569
839,1.396183,1164.153
840,1.39785,1164.153
841,1.399517,1167.357
842,1.401183,1167.133
843,1.40285,1168.027
844,1.404517,1168.027
845,1.406183,1167.432
846,1.40785,1164.824
847,1.409517,1164.824
848,1.411183,1163.11
849,1.41285,1166.388
850,1.414517,1167.58
851,1.416183,1167.58
852,1.41785,1166.463
853,1.419517,1166.835
854,1.421183,1164.451
855,1.42285,1164.451
856,1.424517,1164.675
857,1.426183,1164.153
858,1.42785,1163.408
859,1.429517,1163.408
860,1.431183,1163.11
861,1.43285,1162.216
862,1.434517,1162.216
863,1.436183,1162.589
864,1.43785,1163.706
865,1.439517,1166.463
866,1.441183,1166.463
867,1.44285,1166.91
868,1.444517,1168.326
869,1.446183,1170.039
870,1.44785,1170.039
871,1.449517,1169.89
872,1.451183,1170.71
873,1.452933,1170.486
874,1.454517,1170.486
875,1.4562,1168.698
876,1.45785,1169.592
877,1.4595,1168.624
878,1.461167,1168.624
879,1.462833,1170.114
880,1.4645,1170.859
881,1.466167,1170.859
882,1.467833,1169.22
883,1.4695,1165.718
884,1.471167,1163.855
885,1.472833,1163.855
886,1.4745,1162.067
887,1.476167,1162.887
888,1.477833,1168.326
889,1.4795,1168.326
890,1.481167,1168.475
891,1.482833,1168.996
892,1.4845,1166.984
893,1.486267,1166.984
894,1.487833,1164.153
895,1.4895,1163.408
896,1.491167,1163.408
897,1.492833,1161.471
898,1.4945,1162.067
899,1.496167,1162.44
900,1.497833,1162.44
901,1.4995,1162.887
902,1.501167,1167.506
903,1.502833,1169.145
904,1.5045,1169.145
905,1.506167,1170.933
906,1.507833,1171.455
907,1.5095,1169.071
908,1.511167,1169.071
909,1.512833,1167.506
910,1.5145,1167.804
911,1.516167,1167.059
912,1.517817,1167.059
913,1.519483,1166.388
914,1.52115,1165.643
915,1.522817,1165.643
916,1.524483,1165.345
917,1.526167,1165.718
