"ID","sea_time","fid_signal"
1,0,1171.529
2,0.001667,1171.231
3,0.003333,1171.231
4,0.005,1171.157
5,0.00665,1168.922
6,0.008317,1168.847
7,0.009983000000000001,1168.847
8,0.01165,1166.239
9,0.013317,1166.016
10,0.014983,1166.016
11,0.01665,1167.357
12,0.0183,1164.824
13,0.019967,1163.855
14,0.021633,1163.855
15,0.0233,1166.984
16,0.024967,1164.228
17,0.026633,1166.09
18,0.0283,1166.09
19,0.029967,1171.082
20,0.031633,1171.902
21,0.0333,1173.317
22,0.035017,1173.317
23,0.036633,1172.2
24,0.0383,1168.773
25,0.039967,1168.773
26,0.041633,1166.016
27,0.0433,1165.718
28,0.044967,1168.549
29,0.046633,1168.549
30,0.0483,1169.22
31,0.049967,1171.157
32,0.051633,1171.753
33,0.0533,1171.753
34,0.055017,1170.039
35,0.056633,1171.455
36,0.0583,1168.326
37,0.059967,1168.326
38,0.061633,1168.251
39,0.0633,1168.922
40,0.064967,1167.133
41,0.066633,1167.133
42,0.06841700000000001,1169.071
43,0.069967,1169.667
44,0.071633,1169.667
45,0.0733,1167.879
46,0.07496700000000001,1169.518
47,0.07663300000000001,1167.953
48,0.07829999999999999,1167.953
49,0.07994999999999999,1168.773
50,0.081617,1171.157
51,0.0833,1169.89
52,0.085067,1169.89
53,0.086617,1173.913
54,0.088283,1171.753
55,0.08995,1169.145
56,0.091617,1169.145
57,0.093283,1167.059
58,0.09495000000000001,1162.216
59,0.09661699999999999,1162.216
60,0.098283,1158.267
61,0.09995,1159.236
62,0.101617,1161.247
63,0.103283,1161.247
64,0.10495,1161.993
65,0.106617,1167.506
66,0.108283,1168.475
67,0.10995,1168.475
68,0.111617,1170.71
69,0.113283,1171.604
70,0.11495,1170.71
71,0.116617,1170.71
72,0.1183,1168.922
73,0.11995,1168.251
74,0.121617,1171.38
75,0.123283,1171.38
76,0.12495,1170.561
77,0.126617,1169.965
78,0.1283,1169.965
79,0.12995,1166.612
80,0.131617,1164.973
81,0.133283,1165.569
82,0.13495,1165.569
83,0.136617,1165.122
84,0.138283,1166.314
85,0.139933,1163.408
86,0.1416,1163.408
87,0.143267,1162.142
88,0.144933,1163.408
89,0.1466,1162.514
90,0.148267,1162.514
91,0.149933,1165.867
92,0.1516,1167.506
93,0.1533,1167.506
94,0.154933,1167.059
95,0.1566,1166.388
96,0.158267,1165.867
97,0.159933,1165.867
98,0.1616,1166.314
99,0.163267,1167.506
100,0.164933,1167.804
101,0.166617,1167.804
102,0.168267,1166.388
103,0.169933,1164.824
104,0.1716,1164.6
105,0.173267,1164.6
106,0.174933,1165.792
107,0.1766,1164.526
108,0.178267,1164.526
109,0.179933,1166.388
110,0.1816,1168.475
111,0.183267,1170.561
112,0.184933,1170.561
113,0.1867,1170.71
114,0.188267,1169.071
115,0.189933,1166.91
116,0.1916,1166.91
117,0.193267,1163.185
118,0.194933,1164.749
119,0.1966,1165.345
120,0.198267,1165.345
121,0.199917,1165.345
122,0.201583,1166.761
123,0.20325,1168.4
124,0.204917,1168.4
125,0.2066,1170.263
126,0.208317,1169.592
127,0.209917,1169.592
128,0.211583,1169.816
129,0.21325,1167.879
130,0.214917,1164.973
131,0.216583,1164.973
132,0.21825,1167.432
133,0.219917,1166.537
134,0.221583,1165.345
135,0.22325,1165.345
136,0.224917,1167.506
137,0.226583,1166.612
138,0.22825,1172.721
139,0.229917,1172.721
140,0.231583,1181.141
141,0.23325,1186.877
142,0.234917,1186.877
143,0.236583,1198.575
144,0.23825,1209.751
145,0.239917,1224.503
146,0.241583,1224.503
147,0.24325,1242.757
148,0.244917,1259.968
149,0.246583,1279.339
150,0.24825,1279.339
151,0.249917,1300.871
152,0.251617,1330.301
153,0.25325,1367.182
154,0.254917,1367.182
155,0.256583,1406.521
156,0.258233,1448.84
157,0.2599,1492.873
158,0.261567,1492.873
159,0.263233,1535.788
160,0.2649,1584.739
161,0.266567,1584.739
162,0.268233,1633.242
163,0.2699,1684.725
164,0.2716,1739.413
165,0.273233,1739.413
166,0.2749,1798.943
167,0.276567,1865.029
168,0.278233,1936.033
169,0.2799,1936.033
170,0.281567,2014.413
171,0.283233,2096.37
172,0.2849,2184.138
173,0.286567,2184.138
174,0.2883,2273.917
175,0.2899,2370.253
176,0.291567,2370.253
177,0.293233,2476.052
178,0.2949,2591.982
179,0.296567,2722.74
180,0.298217,2722.74
181,0.299883,2861.619
182,0.30155,3010.109
183,0.303217,3170.893
184,0.304983,3170.893
185,0.30655,3344.64
186,0.308217,3536.642
187,0.309883,3747.717
188,0.31155,3747.717
189,0.313217,3980.92
190,0.314883,4236.4
191,0.31655,4236.4
192,0.318217,4523.322
193,0.319867,4860.088
194,0.321633,5257.204
195,0.3232,5257.204
196,0.324867,5738.884
197,0.326533,6329.492
198,0.3282,7041.246
199,0.329867,7041.246
200,0.331533,7891.878
201,0.3332,8883.103999999999
202,0.334867,9999.424000000001
203,0.336533,9999.424000000001
204,0.3382,11200.83
205,0.339867,12437.775
206,0.341533,13639.778
207,0.3432,13639.778
208,0.3449,14731.139
209,0.346533,15642.196
210,0.3482,15642.196
211,0.3499,16310.513
212,0.351533,16692.951
213,0.3532,16773.344
214,0.354867,16773.344
215,0.356533,16566.143
216,0.3582,16098.395
217,0.359867,15425.607
218,0.361533,15425.607
219,0.3632,14596.507
220,0.364867,13664.961
221,0.366533,12683.496
222,0.3682,12683.496
223,0.369867,11685.416
224,0.371533,10705.739
225,0.3732,10705.739
226,0.374867,9764.73
227,0.376533,8876.696
228,0.378183,8051.992
229,0.37985,8051.992
230,0.381517,7295.236
231,0.383183,6607.473
232,0.38485,5987.436
233,0.386517,5987.436
234,0.388183,5433.112
235,0.38985,4938.245
236,0.391517,4497.767
237,0.393183,4497.767
238,0.39485,4110.709
239,0.396517,3767.684
240,0.398183,3467.351
241,0.39985,3467.351
242,0.401517,3203.675
243,0.403183,2969.503
244,0.40485,2969.503
245,0.406583,2767.071
246,0.408183,2589.151
247,0.40985,2433.509
248,0.411517,2433.509
249,0.413183,2298.132
250,0.41485,2176.911
251,0.416517,2074.093
252,0.418183,2074.093
253,0.41985,1981.556
254,0.421517,1900.494
255,0.423317,1829.863
256,0.42485,1829.863
257,0.426517,1765.341
258,0.428183,1712.441
259,0.42985,1712.441
260,0.431517,1661.852
261,0.433183,1619.756
262,0.43485,1581.535
263,0.436517,1581.535
264,0.438183,1547.56
265,0.43995,1520.291
266,0.4415,1494.363
267,0.443167,1494.363
268,0.444833,1471.043
269,0.4465,1447.201
270,0.448167,1426.265
271,0.449833,1426.265
272,0.4515,1406.223
273,0.453167,1388.192
274,0.454833,1372.77
275,0.4565,1372.77
276,0.458167,1360.774
277,0.459833,1350.045
278,0.4615,1350.045
279,0.463167,1342.073
280,0.464833,1337.23
281,0.4665,1326.948
282,0.468167,1326.948
283,0.469833,1320.019
284,0.4715,1308.844
285,0.473167,1297.742
286,0.474833,1297.742
287,0.4765,1293.197
288,0.478167,1286.864
289,0.479833,1284.778
290,0.4815,1284.778
291,0.483167,1281.276
292,0.484833,1273.23
293,0.4865,1273.23
294,0.488167,1266.45
295,0.489833,1260.713
296,0.4915,1254.529
297,0.4932,1254.529
298,0.494833,1253.039
299,0.4965,1251.921
300,0.498167,1250.878
301,0.499817,1250.878
302,0.501483,1249.388
303,0.50315,1245.067
304,0.50485,1238.883
305,0.506533,1238.883
306,0.50815,1234.934
307,0.509817,1232.699
308,0.511483,1232.103
309,0.51315,1232.103
310,0.514817,1232.922
311,0.516483,1229.197
312,0.51815,1229.197
313,0.519817,1226.738
314,0.5215,1223.46
315,0.52315,1221.374
316,0.524833,1221.374
317,0.526483,1222.417
318,0.52815,1222.417
319,0.529817,1220.927
320,0.531483,1220.927
321,0.53315,1220.927
322,0.534817,1216.754
323,0.536483,1214.37
324,0.53815,1214.37
325,0.539817,1215.339
326,0.541483,1212.806
327,0.54315,1212.806
328,0.544817,1213.7
329,0.5464830000000001,1214.668
330,0.54815,1214.37
331,0.549817,1214.37
332,0.5514829999999999,1214.817
333,0.55315,1213.402
334,0.554817,1212.656
335,0.556467,1212.656
336,0.55825,1210.496
337,0.5598,1206.771
338,0.561467,1204.759
339,0.563133,1204.759
340,0.5648,1202.002
341,0.5664670000000001,1202.896
342,0.568133,1202.896
343,0.5698,1203.865
344,0.5715170000000001,1203.641
345,0.573133,1205.653
346,0.5748,1205.653
347,0.576467,1203.939
348,0.578133,1201.853
349,0.5798,1201.332
350,0.581467,1201.332
351,0.583133,1200.81
352,0.5848,1199.245
353,0.586467,1200.214
354,0.588133,1200.214
355,0.5897829999999999,1202.375
356,0.59145,1199.469
357,0.593117,1203.939
358,0.594783,1203.939
359,0.596467,1203.641
360,0.598117,1201.853
361,0.599783,1201.853
362,0.60145,1204.386
363,0.603117,1201.332
364,0.604783,1201.481
365,0.60645,1201.481
366,0.608117,1200.512
367,0.609783,1196.861
368,0.61145,1194.328
369,0.613117,1194.328
370,0.614783,1192.465
371,0.6164500000000001,1193.434
372,0.6181,1194.03
373,0.619767,1194.03
374,0.621433,1193.136
375,0.6231,1192.838
376,0.624767,1192.838
377,0.626433,1189.56
378,0.6281,1190.752
379,0.629767,1191.497
380,0.631433,1191.497
381,0.6331,1194.328
382,0.634767,1196.414
383,0.63645,1193.062
384,0.6381,1193.062
385,0.639767,1193.583
386,0.641433,1191.348
387,0.643167,1188.889
388,0.644767,1188.889
389,0.646433,1188.293
390,0.6481,1187.026
391,0.649767,1188.442
392,0.651433,1188.442
393,0.6531,1190.901
394,0.654767,1193.062
395,0.656433,1193.062
396,0.6581,1192.465
397,0.659767,1188.964
398,0.661433,1186.654
399,0.6631,1186.654
400,0.664767,1186.729
401,0.6664330000000001,1187.026
402,0.6681,1188.666
403,0.669767,1188.666
404,0.6714329999999999,1187.697
405,0.6731,1185.685
406,0.674767,1186.654
407,0.67655,1186.654
408,0.6781,1185.983
409,0.67975,1188.517
410,0.6814170000000001,1188.517
411,0.683083,1189.709
412,0.68475,1187.324
413,0.6864170000000001,1186.132
414,0.688083,1186.132
415,0.68975,1184.195
416,0.69145,1182.482
417,0.693083,1182.258
418,0.69475,1182.258
419,0.696433,1183.599
420,0.698083,1185.462
421,0.69975,1187.921
422,0.701417,1187.921
423,0.703083,1189.262
424,0.70475,1188.368
425,0.706417,1185.387
426,0.708083,1185.387
427,0.70975,1183.152
428,0.711417,1184.791
429,0.713083,1184.791
430,0.714767,1187.474
431,0.716417,1190.677
432,0.718083,1190.454
433,0.71975,1190.454
434,0.721417,1187.324
435,0.723083,1185.909
436,0.72475,1183.599
437,0.726417,1183.599
438,0.728083,1182.854
439,0.72975,1182.482
440,0.731417,1180.619
441,0.733083,1180.619
442,0.73475,1182.556
443,0.736417,1183.525
444,0.738083,1183.525
445,0.739733,1185.313
446,0.7413999999999999,1185.313
447,0.743067,1185.685
448,0.744733,1185.685
449,0.7464,1184.419
450,0.748067,1184.344
451,0.749733,1187.399
452,0.7514,1187.399
453,0.753067,1185.164
454,0.754733,1186.281
455,0.7564,1185.834
456,0.758067,1185.834
457,0.759733,1184.568
458,0.76145,1185.909
459,0.7630670000000001,1185.909
460,0.764733,1185.536
461,0.7664,1185.76
462,0.7680670000000001,1181.886
463,0.769733,1181.886
464,0.771433,1176
465,0.7730669999999999,1177.415
466,0.774733,1178.384
467,0.7764,1178.384
468,0.778067,1181.737
469,0.779733,1187.548
470,0.7814,1185.685
471,0.783067,1185.685
472,0.784733,1184.27
473,0.7864,1185.611
474,0.788067,1184.866
475,0.789767,1184.866
476,0.7914,1184.27
477,0.793067,1185.909
478,0.794817,1185.089
479,0.7964,1185.089
480,0.79805,1184.642
481,0.799717,1185.76
482,0.801383,1185.76
483,0.80305,1184.121
484,0.804717,1179.799
485,0.806383,1179.65
486,0.80805,1179.65
487,0.809717,1180.396
488,0.811383,1177.341
489,0.8130500000000001,1179.725
490,0.814717,1179.725
491,0.816383,1178.533
492,0.8180500000000001,1176.819
493,0.819717,1176.819
494,0.821383,1179.576
495,0.8230499999999999,1180.396
496,0.824717,1184.046
497,0.826383,1184.046
498,0.82805,1183.599
499,0.829717,1183.078
500,0.831383,1180.917
501,0.83305,1180.917
502,0.834717,1174.733
503,0.836383,1176.596
504,0.83805,1176.074
505,0.839717,1176.074
506,0.841383,1177.788
507,0.84305,1182.333
508,0.8447170000000001,1182.184
509,0.846383,1182.184
510,0.84805,1184.344
511,0.8497169999999999,1183.674
512,0.851383,1183.674
513,0.85305,1184.195
514,0.8547169999999999,1180.917
515,0.856433,1179.501
516,0.858033,1179.501
517,0.8597,1182.407
518,0.861367,1181.588
519,0.8630330000000001,1185.387
520,0.864717,1185.387
521,0.866417,1187.474
522,0.8680330000000001,1184.27
523,0.8697,1183.525
524,0.871367,1183.525
525,0.8730329999999999,1179.501
526,0.8747,1176.074
527,0.876367,1176.074
528,0.878033,1176.521
529,0.879767,1176.149
530,0.88135,1179.129
531,0.8830170000000001,1179.129
532,0.884683,1179.725
533,0.88635,1179.054
534,0.8880169999999999,1178.533
535,0.889683,1178.533
536,0.89135,1177.043
537,0.8930169999999999,1173.765
538,0.894683,1173.541
539,0.89635,1173.541
540,0.898017,1172.498
541,0.899683,1171.231
542,0.90135,1174.435
543,0.903017,1174.435
544,0.904683,1172.647
545,0.90635,1173.69
546,0.908017,1173.69
547,0.909683,1175.627
548,0.91135,1176.372
549,0.913133,1178.831
550,0.914683,1178.831
551,0.91635,1177.862
552,0.918017,1176.372
553,0.919667,1172.125
554,0.921333,1172.125
555,0.923,1169.071
556,0.924667,1169.89
557,0.926333,1171.306
558,0.928,1171.306
559,0.929667,1172.498
560,0.931333,1175.776
561,0.9330000000000001,1175.776
562,0.934667,1177.192
563,0.93635,1177.713
564,0.938017,1176.745
565,0.939667,1176.745
566,0.941333,1174.584
567,0.9429999999999999,1171.008
568,0.944667,1169.741
569,0.946333,1169.741
570,0.948,1170.263
571,0.949667,1171.827
572,0.951333,1171.529
573,0.953,1171.529
574,0.954667,1172.051
575,0.956333,1172.274
576,0.958,1172.274
577,0.959667,1171.008
578,0.961333,1170.412
579,0.963,1168.251
580,0.9646670000000001,1168.251
581,0.966333,1169.22
582,0.968,1170.039
583,0.9696669999999999,1172.498
584,0.971333,1172.498
585,0.973,1174.807
586,0.974667,1176.894
587,0.976333,1178.458
588,0.978,1178.458
589,0.97965,1178.98
590,0.981317,1178.384
591,0.9829830000000001,1178.831
592,0.98465,1178.831
593,0.986317,1177.49
594,0.9879829999999999,1177.862
595,0.98965,1177.862
596,0.991317,1177.266
597,0.9929829999999999,1175.031
598,0.99465,1174.733
599,0.996317,1174.733
600,0.997983,1175.031
601,0.9997,1174.957
602,1.001317,1177.49
603,1.002983,1177.49
604,1.00465,1178.458
605,1.006317,1176.968
606,1.007983,1176.223
607,1.00965,1176.223
608,1.011317,1173.839
609,1.013017,1170.635
610,1.014733,1172.572
611,1.016317,1172.572
612,1.017983,1174.51
613,1.01965,1174.733
614,1.021317,1174.733
615,1.022983,1177.49
616,1.02465,1176.149
617,1.026317,1176.074
618,1.027983,1176.074
619,1.02965,1175.404
620,1.031433,1173.839
621,1.032983,1171.604
622,1.03465,1171.604
623,1.036317,1171.455
624,1.037967,1170.263
625,1.039633,1171.976
626,1.0413,1171.976
627,1.042967,1171.753
628,1.044633,1169.667
629,1.0463,1169.667
630,1.047967,1171.38
631,1.049633,1169.741
632,1.0513,1170.784
633,1.052967,1170.784
634,1.054633,1173.019
635,1.0563,1175.329
636,1.057967,1176
637,1.059633,1176
638,1.0613,1173.615
639,1.062967,1170.859
640,1.064633,1169.592
641,1.0663,1169.592
642,1.067967,1170.561
643,1.069633,1174.51
644,1.0713,1174.51
645,1.072967,1177.639
646,1.074633,1177.49
647,1.0763,1177.266
648,1.078,1177.266
649,1.079633,1177.49
650,1.0813,1176.894
651,1.082967,1176.372
652,1.084633,1176.372
653,1.0863,1174.957
654,1.087967,1171.753
655,1.089633,1171.604
656,1.0913,1171.604
657,1.092967,1172.721
658,1.094633,1173.466
659,1.0963,1175.031
660,1.097983,1175.031
661,1.099667,1175.478
662,1.101283,1176.074
663,1.10295,1176.074
664,1.104617,1177.862
665,1.106283,1178.533
666,1.10795,1176.447
667,1.109617,1176.447
668,1.111283,1172.274
669,1.11295,1169.592
670,1.114617,1169.145
671,1.116333,1169.145
672,1.11795,1171.38
673,1.119617,1173.094
674,1.121283,1172.498
675,1.12295,1172.498
676,1.124617,1173.541
677,1.126283,1173.019
678,1.12795,1173.019
679,1.129617,1174.212
680,1.131283,1174.063
681,1.133017,1171.157
682,1.134617,1171.157
683,1.136283,1172.2
684,1.13795,1173.243
685,1.139617,1172.87
686,1.141283,1172.87
687,1.14295,1173.988
688,1.144617,1172.945
689,1.146283,1169.89
690,1.14795,1169.89
691,1.149683,1172.051
692,1.151283,1171.604
693,1.153017,1171.827
694,1.154617,1171.827
695,1.156283,1174.063
696,1.157933,1174.584
697,1.1596,1174.584
698,1.161267,1176.223
699,1.162933,1176.894
700,1.1646,1173.913
701,1.16635,1173.913
702,1.167933,1171.827
703,1.1696,1170.486
704,1.171267,1170.188
705,1.172917,1170.188
706,1.174583,1171.306
707,1.17625,1172.423
708,1.177917,1173.765
709,1.179583,1173.765
710,1.18125,1171.753
711,1.182917,1170.412
712,1.184583,1170.412
713,1.18625,1167.879
714,1.187917,1168.326
715,1.1896,1168.922
716,1.19125,1168.922
717,1.192917,1173.094
718,1.194583,1176.596
719,1.19625,1176.745
720,1.197917,1176.745
721,1.199583,1177.564
722,1.20125,1174.659
723,1.202917,1174.212
724,1.204583,1174.212
725,1.20625,1173.317
726,1.207917,1170.188
727,1.209583,1170.188
728,1.21125,1169.667
729,1.212917,1167.282
730,1.214583,1169.667
731,1.21625,1169.667
732,1.2179,1173.839
733,1.219567,1173.243
734,1.221233,1174.063
735,1.222917,1174.063
736,1.224617,1171.604
737,1.226233,1171.38
738,1.2279,1171.529
739,1.229567,1171.529
740,1.231233,1170.784
741,1.2329,1171.902
742,1.2346,1171.306
743,1.236233,1171.306
744,1.2379,1172.349
745,1.239567,1175.702
746,1.241233,1175.702
747,1.2429,1174.882
748,1.244567,1172.721
749,1.246233,1174.51
750,1.2479,1174.51
751,1.249567,1173.839
752,1.2513,1171.604
753,1.2529,1174.584
754,1.254567,1174.584
755,1.256233,1171.604
756,1.2579,1169.22
757,1.259567,1172.349
758,1.261233,1172.349
759,1.2629,1168.922
760,1.264567,1169.741
761,1.266233,1169.741
762,1.267967,1173.466
763,1.269567,1170.486
764,1.271233,1169.965
765,1.2729,1169.965
766,1.2746,1169.965
767,1.276233,1167.655
768,1.277883,1171.231
769,1.27955,1171.231
770,1.281217,1171.306
771,1.282883,1172.572
772,1.28465,1173.913
773,1.286217,1173.913
774,1.287883,1171.827
775,1.28955,1171.902
776,1.291217,1173.094
777,1.292883,1173.094
778,1.29455,1173.615
779,1.296217,1172.796
780,1.29795,1172.796
781,1.29955,1172.87
782,1.301217,1170.635
783,1.302883,1166.239
784,1.30455,1166.239
785,1.306217,1169.071
786,1.307883,1170.561
787,1.30955,1169.071
788,1.311217,1169.071
789,1.312883,1170.561
790,1.31455,1170.114
791,1.316217,1168.996
792,1.317883,1168.996
793,1.31955,1170.188
794,1.321217,1169.592
795,1.322883,1169.592
796,1.32455,1167.059
797,1.326217,1168.847
798,1.3279,1169.965
799,1.32955,1169.965
800,1.331217,1170.784
801,1.332883,1173.094
802,1.33455,1174.882
803,1.336217,1174.882
804,1.337867,1175.702
805,1.339533,1174.733
806,1.3412,1170.561
807,1.342867,1170.561
808,1.344533,1167.133
809,1.3462,1163.334
810,1.347867,1163.334
811,1.349533,1163.632
812,1.3512,1166.835
813,1.352867,1166.835
814,1.354533,1166.835
815,1.3562,1168.773
816,1.357867,1169.741
817,1.359533,1170.263
818,1.3612,1170.263
819,1.362867,1172.349
820,1.364533,1172.125
821,1.3662,1171.231
822,1.367867,1171.231
823,1.369567,1169.071
824,1.3712,1170.263
825,1.372867,1172.87
826,1.374533,1172.87
827,1.3762,1175.553
828,1.377867,1178.905
829,1.379533,1178.905
830,1.3812,1177.49
831,1.382867,1174.882
832,1.384533,1172.125
833,1.386217,1172.125
834,1.387867,1170.784
835,1.389533,1172.423
836,1.3912,1174.733
837,1.392867,1174.733
838,1.394533,1175.106
839,1.3962,1172.498
840,1.39785,1168.4
841,1.399517,1168.4
842,1.401183,1169.22
843,1.402967,1171.827
844,1.404517,1171.827
845,1.406183,1173.988
846,1.40785,1177.043
847,1.409517,1176.819
848,1.411183,1176.819
849,1.41285,1176.298
850,1.414517,1175.478
851,1.416183,1172.423
852,1.41785,1172.423
853,1.419517,1171.008
854,1.421183,1167.282
855,1.42285,1168.027
856,1.424517,1168.027
857,1.426183,1168.027
858,1.42785,1162.812
859,1.429517,1164.377
860,1.431183,1164.377
861,1.43285,1165.196
862,1.434533,1166.09
863,1.436217,1166.09
864,1.437867,1171.455
865,1.439517,1172.423
866,1.441183,1171.008
867,1.44285,1171.008
868,1.444517,1172.796
869,1.446183,1171.678
870,1.44785,1172.87
871,1.449517,1172.87
872,1.451183,1174.137
873,1.45285,1172.498
874,1.454517,1175.925
875,1.456183,1175.925
876,1.457833,1175.627
877,1.4595,1174.957
878,1.461167,1174.957
879,1.462833,1174.435
880,1.464483,1171.604
881,1.46615,1169.369
882,1.467817,1169.369
883,1.469483,1167.953
884,1.47115,1164.526
885,1.472817,1162.216
886,1.474483,1162.216
887,1.47615,1162.067
888,1.477817,1162.216
889,1.479483,1168.027
890,1.48115,1168.027
891,1.482817,1168.922
892,1.484483,1167.357
893,1.48615,1166.686
894,1.4879,1166.686
895,1.489483,1165.42
896,1.49115,1165.494
897,1.492817,1165.494
898,1.494483,1168.102
899,1.49615,1169.667
900,1.497817,1169.145
901,1.499483,1169.145
902,1.50115,1171.827
903,1.502833,1173.168
904,1.504567,1174.063
905,1.50615,1174.063
906,1.507833,1175.329
907,1.5095,1172.87
908,1.51115,1170.71
909,1.512817,1170.71
910,1.514483,1168.475
911,1.51615,1168.475
912,1.517817,1168.475
913,1.519467,1171.082
914,1.52125,1170.933
915,1.5228,1172.796
916,1.524467,1172.796
917,1.526133,1170.263
918,1.5278,1168.177
