"ID","sea_time","fid_signal"
1,0,1163.557
2,0.001667,1164.004
3,0.003333,1161.099
4,0.005,1161.099
5,0.006667,1164.675
6,0.008333,1164.377
7,0.0101,1162.663
8,0.011667,1162.663
9,0.013333,1165.42
10,0.015,1162.067
11,0.016667,1165.792
12,0.018333,1165.792
13,0.02,1166.612
14,0.021667,1162.514
15,0.023333,1162.514
16,0.025,1164.377
17,0.026767,1161.173
18,0.028333,1160.502
19,0.03,1160.502
20,0.03165,1167.133
21,0.033317,1167.729
22,0.034983,1166.612
23,0.03665,1166.612
24,0.038317,1165.792
25,0.039983,1162.663
26,0.04165,1159.087
27,0.043433,1159.087
28,0.044983,1161.546
29,0.04665,1164.675
30,0.048317,1164.675
31,0.049983,1170.114
32,0.05165,1173.094
33,0.053317,1173.094
34,0.054983,1173.094
35,0.05665,1174.882
36,0.058317,1172.125
37,0.059983,1169.369
38,0.06165,1169.369
39,0.063317,1166.835
40,0.064983,1164.898
41,0.06665,1162.291
42,0.06834999999999999,1162.291
43,0.069983,1164.749
44,0.07165000000000001,1168.475
45,0.07331699999999999,1170.635
46,0.075,1170.635
47,0.07665,1175.553
48,0.078317,1177.266
49,0.079983,1177.266
50,0.08165,1174.584
51,0.083317,1173.168
52,0.084983,1172.945
53,0.08665,1172.945
54,0.0883,1172.274
55,0.08995,1173.615
56,0.091617,1173.019
57,0.093283,1173.019
58,0.09495000000000001,1169.071
59,0.09661699999999999,1168.177
60,0.098283,1167.655
61,0.09995,1167.655
62,0.101617,1167.133
63,0.103283,1166.835
64,0.10495,1166.835
65,0.106617,1165.42
66,0.108283,1165.196
67,0.10995,1167.729
68,0.111617,1167.729
69,0.113283,1167.879
70,0.11495,1168.996
71,0.116617,1171.827
72,0.118283,1171.827
73,0.11995,1172.796
74,0.121617,1171.38
75,0.123283,1173.466
76,0.12495,1173.466
77,0.126617,1174.286
78,0.128333,1170.039
79,0.12995,1170.188
80,0.131617,1170.188
81,0.1333,1165.196
82,0.13495,1160.875
83,0.136617,1160.875
84,0.138283,1160.726
85,0.13995,1161.695
86,0.141617,1164.451
87,0.143283,1164.451
88,0.14505,1164.6
89,0.146683,1167.208
90,0.148283,1168.027
91,0.14995,1168.027
92,0.1516,1168.4
93,0.153267,1168.326
94,0.154933,1167.208
95,0.1566,1167.208
96,0.158267,1166.835
97,0.159933,1162.738
98,0.161717,1163.632
99,0.163267,1163.632
100,0.164933,1161.62
101,0.1666,1162.216
102,0.168267,1162.216
103,0.169933,1167.357
104,0.1716,1166.686
105,0.173267,1166.835
106,0.174933,1166.835
107,0.1766,1162.887
108,0.178267,1161.471
109,0.179933,1161.769
110,0.1816,1161.769
111,0.183267,1162.887
112,0.184933,1166.239
113,0.1866,1166.239
114,0.188267,1164.898
115,0.189933,1164.973
116,0.1916,1165.718
117,0.193267,1165.718
118,0.194933,1170.039
119,0.1966,1170.114
120,0.198267,1168.549
121,0.199933,1168.549
122,0.2016,1167.282
123,0.203267,1166.016
124,0.204933,1166.761
125,0.2066,1166.761
126,0.208267,1167.953
127,0.209917,1168.475
128,0.211583,1166.463
129,0.21325,1166.463
130,0.214917,1164.451
131,0.216583,1167.133
132,0.218267,1167.133
133,0.219933,1166.984
134,0.221583,1164.153
135,0.22325,1165.643
136,0.224917,1165.643
137,0.226583,1163.855
138,0.22825,1165.345
139,0.229917,1166.463
140,0.231583,1166.463
141,0.23325,1165.643
142,0.234917,1166.165
143,0.236583,1164.6
144,0.23825,1164.6
145,0.239917,1164.153
146,0.241583,1168.773
147,0.24325,1168.773
148,0.244917,1169.145
149,0.2466,1170.486
150,0.24825,1172.498
151,0.249917,1172.498
152,0.251583,1170.486
153,0.25325,1172.572
154,0.254917,1171.306
155,0.256583,1171.306
156,0.25825,1171.902
157,0.259917,1171.38
158,0.261583,1169.22
159,0.263267,1169.22
160,0.264917,1170.859
161,0.266583,1168.326
162,0.26825,1168.177
163,0.269917,1168.177
164,0.271567,1168.549
165,0.273233,1167.729
166,0.2749,1167.729
167,0.276567,1172.125
168,0.278233,1166.984
169,0.280017,1165.42
170,0.281567,1165.42
171,0.283233,1164.749
172,0.2849,1159.981
173,0.286567,1165.047
174,0.288233,1165.047
175,0.2899,1168.102
176,0.291567,1167.729
177,0.293233,1170.71
178,0.294917,1170.71
179,0.296567,1170.114
180,0.298233,1166.761
181,0.2999,1166.761
182,0.301567,1164.6
183,0.303233,1165.718
184,0.3049,1164.973
185,0.306567,1164.973
186,0.308233,1165.643
187,0.3099,1169.89
188,0.311567,1167.357
189,0.313233,1167.357
190,0.3149,1166.761
191,0.316567,1165.569
192,0.318233,1164.377
193,0.3199,1164.377
194,0.321567,1167.432
195,0.323233,1170.263
196,0.3249,1173.913
197,0.326567,1173.913
198,0.328233,1175.404
199,0.3299,1172.945
200,0.331567,1172.945
201,0.333217,1170.412
202,0.334883,1167.804
203,0.33655,1166.016
204,0.338217,1166.016
205,0.339883,1166.835
206,0.34155,1168.475
207,0.343217,1171.753
208,0.344883,1171.753
209,0.34655,1179.799
210,0.348217,1181.29
211,0.349883,1181.737
212,0.35155,1181.737
213,0.353217,1181.364
214,0.354883,1173.466
215,0.35655,1173.466
216,0.358217,1176.596
217,0.3599,1178.98
218,0.3616,1180.246
219,0.363217,1180.246
220,0.3649,1185.015
221,0.366567,1187.548
222,0.368217,1191.124
223,0.369883,1191.124
224,0.37155,1195.893
225,0.373217,1202.226
226,0.374883,1202.226
227,0.37655,1202.226
228,0.378217,1207.292
229,0.379867,1211.539
230,0.38155,1215.86
231,0.3832,1215.86
232,0.384867,1224.875
233,0.386533,1235.083
234,0.3882,1235.083
235,0.389867,1250.431
236,0.391517,1268.908
237,0.393183,1292.005
238,0.39485,1292.005
239,0.396517,1318.753
240,0.3983,1354.143
241,0.39985,1405.478
242,0.401517,1405.478
243,0.403183,1473.799
244,0.40485,1563.281
245,0.406517,1680.478
246,0.408183,1680.478
247,0.40985,1825.318
248,0.411517,2001.599
249,0.413183,2001.599
250,0.41485,2211.332
251,0.416517,2451.614
252,0.418183,2721.176
253,0.41985,2721.176
254,0.421517,3022.85
255,0.423183,3346.577
256,0.42485,3686.845
257,0.426517,3686.845
258,0.428183,4036.501
259,0.42985,4386.678
260,0.431517,4739.836
261,0.433183,4739.836
262,0.434867,5076.304
263,0.436517,5402.64
264,0.438183,5402.64
265,0.43985,5707.368
266,0.441517,5984.008
267,0.443183,6240.755
268,0.44485,6240.755
269,0.446517,6461.292
270,0.448183,6651.431
271,0.44985,6808.266
272,0.4515,6808.266
273,0.453167,6932.244
274,0.45485,7025.451
275,0.45655,7084.31
276,0.458167,7084.31
277,0.459833,7116.199
278,0.4615,7118.434
279,0.463167,7100.552
280,0.464833,7100.552
281,0.4665,7062.405
282,0.468167,7006.302
283,0.469833,7006.302
284,0.4715,6939.843
285,0.473167,6854.311
286,0.474833,6762.892
287,0.4765,6762.892
288,0.478167,6662.756
289,0.479833,6553.978
290,0.4815,6441.847
291,0.483233,6441.847
292,0.484833,6323.382
293,0.4865,6200.299
294,0.488167,6075.874
295,0.489833,6075.874
296,0.4915,5950.257
297,0.493167,5827.844
298,0.494833,5827.844
299,0.4965,5705.282
300,0.498167,5586.52
301,0.49985,5471.781
302,0.5014999999999999,5471.781
303,0.503167,5357.191
304,0.504833,5243.868
305,0.5065,5127.937
306,0.5081830000000001,5127.937
307,0.509833,5011.856
308,0.511483,4903.376
309,0.51315,4795.715
310,0.514817,4795.715
311,0.5165999999999999,4694.686
312,0.51815,4601.032
313,0.519817,4507.08
314,0.521483,4507.08
315,0.52315,4420.504
316,0.524817,4337.355
317,0.526483,4337.355
318,0.52815,4250.556
319,0.529817,4164.726
320,0.531483,4082.844
321,0.53315,4082.844
322,0.534817,3999.695
323,0.5365,3923.625
324,0.53815,3848.821
325,0.539817,3848.821
326,0.541483,3774.613
327,0.54315,3702.566
328,0.544817,3638.044
329,0.546517,3638.044
330,0.54815,3574.789
331,0.549817,3517.568
332,0.5514829999999999,3517.568
333,0.55315,3462.136
334,0.554817,3405.809
335,0.5564829999999999,3348.887
336,0.55815,3348.887
337,0.559817,3291.219
338,0.561483,3239.587
339,0.56315,3185.496
340,0.564817,3185.496
341,0.566483,3139.824
342,0.56815,3095.195
343,0.569817,3050.938
344,0.5714669999999999,3050.938
345,0.573133,3008.917
346,0.5748,2970.993
347,0.576467,2970.993
348,0.578133,2931.952
349,0.5798,2894.178
350,0.581533,2857.447
351,0.583133,2857.447
352,0.5848,2817.661
353,0.586467,2777.949
354,0.588133,2738.833
355,0.5898,2738.833
356,0.591467,2706.796
357,0.593133,2673.566
358,0.5948,2645.031
359,0.596467,2645.031
360,0.598133,2617.314
361,0.5998,2583.265
362,0.601533,2553.314
363,0.603133,2553.314
364,0.6048,2522.245
365,0.606467,2493.337
366,0.608133,2493.337
367,0.6098,2469.644
368,0.611467,2446.398
369,0.613133,2422.556
370,0.6148,2422.556
371,0.616467,2399.012
372,0.61815,2372.339
373,0.6198,2348.051
374,0.621467,2348.051
375,0.623133,2327.04
376,0.6248,2303.571
377,0.626467,2283.379
378,0.6281330000000001,2283.379
379,0.6298,2259.985
380,0.631483,2239.943
381,0.633117,2239.943
382,0.634883,2221.838
383,0.63645,2203.36
384,0.638117,2187.118
385,0.639783,2187.118
386,0.64145,2167.001
387,0.643117,2145.171
388,0.644783,2126.694
389,0.64645,2126.694
390,0.6481170000000001,2107.099
391,0.649783,2089.292
392,0.65145,2074.391
393,0.6531169999999999,2074.391
394,0.654817,2059.266
395,0.65645,2047.196
396,0.658117,2034.157
397,0.659783,2034.157
398,0.66145,2019.405
399,0.663117,2005.696
400,0.664783,2005.696
401,0.66645,1988.858
402,0.668117,1975.223
403,0.669783,1961.291
404,0.6714329999999999,1961.291
405,0.6731,1948.401
406,0.674767,1933.724
407,0.676433,1922.399
408,0.6781,1922.399
409,0.679767,1914.65
410,0.681433,1901.09
411,0.6831,1892.448
412,0.684767,1892.448
413,0.686433,1879.484
414,0.6881,1866.892
415,0.68975,1866.892
416,0.6914169999999999,1857.877
417,0.693083,1848.564
418,0.69475,1839.101
419,0.696417,1839.101
420,0.698083,1830.235
421,0.69975,1822.934
422,0.701417,1809.224
423,0.703083,1809.224
424,0.70475,1799.39
425,0.706417,1787.022
426,0.708083,1776.516
427,0.70975,1776.516
428,0.711433,1768.395
429,0.713083,1759.678
430,0.71475,1753.718
431,0.716417,1753.718
432,0.7181,1745.597
433,0.7198,1737.103
434,0.721417,1737.103
435,0.723083,1727.79
436,0.724783,1717.657
437,0.726417,1711.249
438,0.728083,1711.249
439,0.72975,1706.704
440,0.731417,1700.968
441,0.733083,1692.325
442,0.73475,1692.325
443,0.736467,1682.863
444,0.738083,1674.593
445,0.73975,1666.993
446,0.741417,1666.993
447,0.743083,1660.511
448,0.74475,1648.888
449,0.746417,1648.888
450,0.7480830000000001,1641.437
451,0.74975,1635.104
452,0.751417,1630.262
453,0.753183,1630.262
454,0.754733,1627.877
455,0.7564,1623.258
456,0.758067,1616.254
457,0.759733,1616.254
458,0.7614,1609.549
459,0.7630670000000001,1599.342
460,0.764733,1598.522
461,0.7664,1598.522
462,0.7680670000000001,1590.997
463,0.769733,1586.452
464,0.7714,1586.452
465,0.7730669999999999,1582.95
466,0.774733,1572.818
467,0.7764,1568.571
468,0.778067,1568.571
469,0.779733,1561.567
470,0.7814,1559.034
471,0.783067,1554.489
472,0.784733,1554.489
473,0.7864,1551.434
474,0.788067,1547.933
475,0.789733,1542.121
476,0.7914,1542.121
477,0.793067,1535.565
478,0.794733,1531.839
479,0.7964329999999999,1529.381
480,0.798067,1529.381
481,0.799733,1524.612
482,0.8014,1520.738
483,0.803067,1520.738
484,0.804733,1515.895
485,0.8064,1511.276
486,0.808067,1506.805
487,0.809733,1506.805
488,0.811383,1503.751
489,0.8130500000000001,1497.492
490,0.814717,1493.022
491,0.816383,1493.022
492,0.8180500000000001,1491.681
493,0.819717,1487.285
494,0.821383,1485.795
495,0.8230499999999999,1485.795
496,0.824717,1481.921
497,0.826383,1475.96
498,0.82805,1475.96
499,0.829717,1471.564
500,0.831383,1467.466
501,0.83305,1465.231
502,0.834717,1465.231
503,0.836383,1462.772
504,0.838117,1460.463
505,0.839717,1456.663
506,0.841383,1456.663
507,0.84305,1452.714
508,0.8447170000000001,1447.871
509,0.846383,1444.668
510,0.84805,1444.668
511,0.8497169999999999,1442.656
512,0.851383,1438.409
513,0.85305,1434.907
514,0.8547670000000001,1434.907
515,0.856383,1435.205
516,0.85805,1431.778
517,0.859717,1431.778
518,0.861383,1425.967
519,0.86305,1423.135
520,0.864717,1417.995
521,0.8663999999999999,1417.995
522,0.86805,1415.61
523,0.869717,1416.951
524,0.8715000000000001,1415.238
525,0.8730329999999999,1415.238
526,0.8747,1411.065
527,0.876367,1409.277
528,0.878033,1406.148
529,0.8797,1406.148
530,0.881367,1406.074
531,0.883033,1404.509
532,0.8847,1404.509
533,0.886367,1399.443
534,0.888133,1398.772
535,0.8897,1398.027
536,0.891367,1398.027
537,0.893033,1395.345
538,0.8947000000000001,1394.004
539,0.896367,1391.917
540,0.898033,1391.917
541,0.8997000000000001,1385.286
542,0.901367,1383.424
543,0.903033,1382.679
544,0.9046999999999999,1382.679
545,0.906367,1381.338
546,0.908033,1381.412
547,0.9097,1377.612
548,0.911367,1377.612
549,0.913033,1374.558
550,0.9147,1371.205
551,0.916367,1371.205
552,0.918033,1371.875
553,0.9197,1369.864
554,0.921367,1369.268
555,0.923033,1369.268
556,0.9247,1367.256
557,0.9263670000000001,1361.221
558,0.928033,1360.774
559,0.9297,1360.774
560,0.93135,1356.453
561,0.933017,1355.931
562,0.934683,1355.857
563,0.9363669999999999,1355.857
564,0.938067,1354.068
565,0.9397,1349.673
566,0.94135,1349.673
567,0.943017,1348.257
568,0.9446830000000001,1346.841
569,0.94635,1345.5
570,0.948017,1345.5
571,0.9496830000000001,1348.853
572,0.95135,1342.371
573,0.95305,1338.646
574,0.9546829999999999,1338.646
575,0.95635,1335.964
576,0.958017,1335.666
577,0.959683,1331.568
578,0.96135,1331.568
579,0.963,1325.235
580,0.9646670000000001,1321.882
581,0.966333,1321.882
582,0.968,1316.816
583,0.9696669999999999,1318.231
584,0.971333,1319.796
585,0.97305,1319.796
586,0.974667,1322.105
587,0.976333,1319.349
588,0.978,1317.635
589,0.979667,1317.635
590,0.981333,1317.635
591,0.983,1313.537
592,0.984667,1313.612
593,0.986333,1313.612
594,0.988,1312.569
595,0.989717,1306.31
596,0.991333,1303.181
597,0.9929829999999999,1303.181
598,0.99465,1301.84
599,0.996317,1300.201
600,0.997983,1300.201
601,0.99965,1305.416
602,1.001317,1306.012
603,1.002983,1307.279
604,1.00465,1307.279
605,1.006433,1310.483
606,1.007983,1306.981
607,1.00965,1305.938
608,1.011317,1305.938
609,1.013017,1303.107
610,1.01465,1297.221
611,1.016317,1297.221
612,1.017983,1297.221
613,1.01965,1296.625
614,1.021317,1291.856
615,1.022983,1291.856
616,1.02465,1292.527
617,1.026317,1294.985
618,1.027983,1294.24
619,1.02965,1294.24
620,1.031317,1294.687
621,1.032983,1292.005
622,1.03465,1282.394
623,1.036317,1282.394
624,1.037983,1280.084
625,1.03965,1278.296
626,1.041317,1277.104
627,1.043,1277.104
628,1.04465,1279.935
629,1.046317,1280.755
630,1.047983,1284.331
631,1.04965,1284.331
632,1.051317,1282.468
633,1.052967,1282.692
634,1.054633,1282.692
635,1.0563,1280.457
636,1.057967,1279.339
637,1.059633,1281.276
638,1.0613,1281.276
639,1.062967,1277.924
640,1.064633,1276.061
641,1.0663,1274.422
642,1.067967,1274.422
643,1.069633,1274.943
644,1.0713,1279.488
645,1.072967,1279.637
646,1.07465,1279.637
647,1.0763,1278.594
648,1.077967,1276.731
649,1.079633,1276.731
650,1.0813,1275.614
651,1.082967,1273.155
652,1.084633,1270.846
653,1.0863,1270.846
654,1.087967,1270.324
655,1.089633,1264.513
656,1.091333,1263.469
657,1.092967,1263.469
658,1.094633,1264.661
659,1.0963,1257.36
660,1.097967,1258.701
661,1.099633,1258.701
662,1.1013,1258.999
663,1.102967,1256.913
664,1.104633,1259.297
665,1.1063,1259.297
666,1.107967,1256.093
667,1.109633,1254.529
668,1.1113,1254.529
669,1.11295,1252.219
670,1.114633,1249.239
671,1.116283,1253.486
672,1.11795,1253.486
673,1.119617,1255.795
674,1.121283,1259.223
675,1.12295,1265.556
676,1.124717,1265.556
677,1.126283,1261.16
678,1.12795,1259.744
679,1.129617,1252.219
680,1.131283,1252.219
681,1.13295,1247.823
682,1.134617,1247.6
683,1.136283,1247.6
684,1.137967,1246.259
685,1.139617,1250.282
686,1.141283,1251.474
687,1.14295,1251.474
688,1.144617,1247.525
689,1.146283,1245.812
690,1.14795,1247.451
691,1.149617,1247.451
692,1.151283,1247.749
693,1.152967,1251.921
694,1.154617,1255.05
695,1.156283,1255.05
696,1.15795,1251.101
697,1.159617,1248.121
698,1.161283,1246.11
699,1.16295,1246.11
700,1.164617,1243.949
701,1.166283,1244.694
702,1.16795,1244.694
703,1.169617,1243.129
704,1.171283,1241.341
705,1.172933,1236.051
706,1.1746,1236.051
707,1.176267,1231.804
708,1.177933,1232.177
709,1.1796,1237.02
710,1.181267,1237.02
711,1.182933,1241.714
712,1.1846,1242.384
713,1.186267,1244.098
714,1.187933,1244.098
715,1.1896,1240.373
716,1.191267,1239.181
717,1.192933,1239.181
718,1.1946,1238.883
719,1.196267,1239.106
720,1.197933,1236.349
721,1.1996,1236.349
722,1.201267,1233.369
723,1.202933,1233.444
724,1.2046,1229.495
725,1.206267,1229.495
726,1.207933,1227.483
727,1.20965,1227.707
728,1.211267,1228.005
729,1.212933,1228.005
730,1.214617,1228.973
731,1.216267,1231.283
732,1.217933,1231.283
733,1.2196,1231.879
734,1.221267,1230.389
735,1.222933,1228.675
736,1.2246,1228.675
737,1.2263,1226.217
738,1.227933,1224.503
739,1.2296,1224.95
740,1.23125,1224.95
741,1.232917,1223.683
742,1.234583,1224.056
743,1.23625,1220.033
744,1.237917,1220.033
745,1.239583,1221.299
746,1.24125,1220.852
747,1.243033,1221.076
748,1.244583,1221.076
749,1.24625,1227.558
750,1.247917,1223.683
751,1.249583,1223.683
752,1.25125,1221.523
753,1.2529,1220.703
754,1.254567,1216.605
755,1.256233,1216.605
756,1.2579,1216.084
757,1.259567,1218.766
758,1.261233,1220.554
759,1.2629,1220.554
760,1.264567,1222.193
761,1.266233,1224.95
762,1.2679,1222.044
763,1.269567,1222.044
764,1.271233,1223.236
765,1.2729,1222.938
766,1.274567,1222.938
767,1.276233,1221.225
768,1.2779,1222.044
769,1.279567,1216.009
770,1.281233,1216.009
771,1.2829,1216.307
772,1.284567,1214.594
773,1.286233,1213.253
774,1.2879,1213.253
775,1.289567,1213.625
776,1.291217,1209.155
777,1.292883,1208.708
778,1.29455,1208.708
779,1.296233,1208.186
780,1.2979,1210.868
781,1.29955,1216.233
782,1.301217,1216.233
783,1.302883,1215.637
784,1.30455,1215.935
785,1.306217,1215.935
786,1.307883,1212.88
787,1.30955,1209.676
788,1.311217,1210.049
789,1.312883,1210.049
790,1.31455,1211.688
791,1.316217,1212.806
792,1.317883,1213.774
793,1.31955,1213.774
794,1.321217,1214.445
795,1.322883,1215.041
796,1.32455,1217.201
797,1.326217,1217.201
798,1.327917,1215.637
799,1.32955,1213.253
800,1.331217,1213.253
801,1.332883,1210.198
802,1.33455,1209.155
803,1.336217,1207.441
804,1.337883,1207.441
805,1.33955,1210.123
806,1.341217,1209.825
807,1.3429,1205.429
808,1.34455,1205.429
809,1.346217,1204.461
810,1.347883,1204.535
811,1.34955,1203.492
812,1.3512,1203.492
813,1.352867,1205.28
814,1.354533,1204.163
815,1.3562,1204.163
816,1.357867,1200.81
817,1.359533,1203.194
818,1.3612,1203.12
819,1.362867,1203.12
820,1.364533,1206.92
821,1.3662,1210.943
822,1.367867,1209.527
823,1.369533,1209.527
824,1.3712,1208.484
825,1.372867,1206.1
826,1.374533,1204.237
827,1.3762,1204.237
828,1.377867,1205.355
829,1.379533,1208.633
830,1.3812,1208.782
831,1.382867,1208.782
832,1.384533,1209.006
833,1.3862,1206.92
834,1.387867,1206.92
835,1.389533,1204.386
836,1.3912,1204.833
837,1.392867,1201.183
838,1.394533,1201.183
839,1.3962,1203.418
840,1.397867,1203.716
841,1.399533,1201.183
842,1.4012,1201.183
843,1.402867,1201.332
844,1.404533,1199.32
845,1.4062,1198.798
846,1.407867,1198.798
847,1.409533,1201.108
848,1.411183,1203.194
849,1.41285,1203.194
850,1.414517,1203.194
851,1.416183,1201.63
852,1.41785,1198.724
853,1.419517,1198.724
854,1.421183,1198.575
855,1.42285,1201.555
856,1.424517,1201.779
857,1.426183,1201.779
858,1.42785,1202.077
859,1.429517,1202.375
860,1.431183,1199.543
861,1.43285,1199.543
862,1.434517,1200.363
863,1.436183,1203.418
864,1.437867,1204.982
865,1.439517,1204.982
866,1.441233,1207.218
867,1.44285,1209.006
868,1.444517,1209.006
869,1.446233,1206.323
870,1.44785,1203.939
871,1.449517,1204.163
872,1.451183,1204.163
873,1.45285,1203.716
874,1.454517,1203.716
875,1.456183,1202.077
876,1.45785,1202.077
877,1.459517,1198.351
878,1.461183,1196.712
879,1.46285,1194.999
880,1.464517,1194.999
881,1.466183,1194.626
882,1.46785,1195.669
883,1.469517,1195.669
884,1.471183,1196.191
885,1.472833,1196.638
886,1.4745,1200.065
887,1.476167,1200.065
888,1.477833,1199.022
889,1.4796,1197.83
890,1.481167,1197.532
891,1.482833,1197.532
892,1.4845,1191.422
893,1.486167,1190.901
894,1.487833,1189.262
895,1.4895,1189.262
896,1.491167,1191.646
897,1.492833,1194.924
898,1.4945,1192.465
899,1.496167,1192.465
900,1.497833,1196.563
901,1.4995,1195.595
902,1.501167,1195.595
903,1.502833,1194.924
904,1.5045,1195.744
905,1.506167,1191.199
906,1.507833,1191.199
907,1.5095,1191.422
908,1.511167,1192.689
909,1.512833,1197.755
910,1.5145,1197.755
911,1.516183,1198.798
912,1.517833,1196.489
913,1.519533,1194.552
914,1.521167,1194.552
915,1.522833,1192.987
916,1.5245,1193.509
917,1.526167,1193.509
918,1.527833,1194.104
