"ID","sea_time","fid_signal"
1,0,37.527
2,0.001617,37.493
3,0.003367,37.493
4,0.00495,37.484
5,0.006617,37.502
6,0.008283,37.412
7,0.009950000000000001,37.412
8,0.011617,37.266
9,0.013283,37.15
10,0.01495,37.07
11,0.016617,37.07
12,0.018283,37.127
13,0.020033,37.282
14,0.021617,37.282
15,0.023283,37.422
16,0.02495,37.518
17,0.026617,37.53
18,0.028283,37.53
19,0.02995,37.534
20,0.031617,37.523
21,0.033283,37.516
22,0.03495,37.516
23,0.036717,37.542
24,0.038283,37.554
25,0.039933,37.538
26,0.0416,37.538
27,0.043267,37.505
28,0.044933,37.481
29,0.0466,37.481
30,0.048267,37.459
31,0.049933,37.443
32,0.051583,37.443
33,0.05325,37.443
34,0.054917,37.448
35,0.056583,37.457
36,0.05825,37.48
37,0.059917,37.48
38,0.061583,37.511
39,0.06325,37.5
40,0.064917,37.488
41,0.06660000000000001,37.488
42,0.06825000000000001,37.477
43,0.06991700000000001,37.445
44,0.07158299999999999,37.415
45,0.07325,37.415
46,0.074917,37.434
47,0.076583,37.449
48,0.07825,37.449
49,0.079917,37.45
50,0.081583,37.479
51,0.08325,37.473
52,0.08495,37.473
53,0.08658299999999999,37.445
54,0.08825,37.427
55,0.089917,37.405
56,0.091583,37.405
57,0.09325,37.396
58,0.094917,37.45
59,0.096583,37.5
60,0.09825,37.5
61,0.09991700000000001,37.493
62,0.101583,37.488
63,0.10325,37.488
64,0.104917,37.456
65,0.106583,37.452
66,0.10825,37.511
67,0.109917,37.511
68,0.111567,37.519
69,0.113233,37.521
70,0.1149,37.493
71,0.116567,37.493
72,0.118233,37.464
73,0.1199,37.454
74,0.121683,37.434
75,0.123233,37.434
76,0.1249,37.427
77,0.126567,37.426
78,0.128233,37.412
79,0.1299,37.412
80,0.131567,37.441
81,0.133233,37.462
82,0.1349,37.462
83,0.136567,37.459
84,0.138317,37.477
85,0.1399,37.472
86,0.141567,37.472
87,0.143233,37.47
88,0.144933,37.508
89,0.146567,37.515
90,0.148233,37.515
91,0.1499,37.502
92,0.151567,37.506
93,0.153233,37.502
94,0.154967,37.502
95,0.156567,37.521
96,0.158233,37.544
97,0.1599,37.544
98,0.161567,37.551
99,0.163233,37.513
100,0.1649,37.506
101,0.166567,37.506
102,0.168233,37.49
103,0.1699,37.481
104,0.17155,37.482
105,0.173217,37.482
106,0.174883,37.469
107,0.17655,37.462
108,0.178233,37.452
109,0.179933,37.452
110,0.18155,37.481
111,0.183217,37.476
112,0.184883,37.47
113,0.18655,37.47
114,0.188217,37.497
115,0.189883,37.479
116,0.19155,37.479
117,0.193217,37.471
118,0.194883,37.474
119,0.19655,37.485
120,0.198217,37.485
121,0.199883,37.488
122,0.20155,37.487
123,0.203217,37.496
124,0.204883,37.496
125,0.20655,37.457
126,0.208217,37.463
127,0.209883,37.465
128,0.21155,37.465
129,0.213217,37.479
130,0.214883,37.52
131,0.216583,37.52
132,0.218217,37.526
133,0.219883,37.55
134,0.22155,37.536
135,0.223217,37.536
136,0.224883,37.505
137,0.22655,37.508
138,0.228217,37.522
139,0.229867,37.522
140,0.231533,37.526
141,0.2332,37.554
142,0.234867,37.535
143,0.236533,37.535
144,0.2382,37.511
145,0.239883,37.514
146,0.241533,37.5
147,0.2432,37.5
148,0.244883,37.517
149,0.246533,37.558
150,0.2482,37.558
151,0.249867,37.578
152,0.251533,37.581
153,0.2532,37.569
154,0.254867,37.569
155,0.256567,37.529
156,0.2582,37.546
157,0.259867,37.597
158,0.261533,37.597
159,0.2632,37.647
160,0.2649,37.684
161,0.266533,37.698
162,0.2682,37.698
163,0.269867,37.686
164,0.271533,37.705
165,0.273267,37.751
166,0.274867,37.751
167,0.276533,37.812
168,0.2782,37.889
169,0.279867,37.889
170,0.281533,37.952
171,0.2832,38.031
172,0.284867,38.099
173,0.286533,38.099
174,0.2882,38.163
175,0.289867,38.26
176,0.291517,38.348
177,0.293183,38.348
178,0.29485,38.429
179,0.296567,38.524
180,0.298183,38.524
181,0.29985,38.669
182,0.301517,38.812
183,0.303183,39.04
184,0.30485,39.04
185,0.306517,39.334
186,0.308183,39.625
187,0.30985,40.063
188,0.311517,40.063
189,0.313183,40.597
190,0.31485,41.313
191,0.316517,42.301
192,0.318183,42.301
193,0.31985,43.561
194,0.321517,45.146
195,0.323183,47.084
196,0.32485,47.084
197,0.326517,49.376
198,0.328183,52.02
199,0.32985,52.02
200,0.3315,54.979
201,0.333167,58.145
202,0.334833,61.382
203,0.3365,61.382
204,0.338167,64.551
205,0.339867,67.502
206,0.3415,70.095
207,0.343167,70.095
208,0.344833,72.23699999999999
209,0.3465,73.83
210,0.348167,74.833
211,0.349833,74.833
212,0.351483,75.20999999999999
213,0.35315,74.971
214,0.354817,74.971
215,0.356483,74.181
216,0.3582,72.896
217,0.359817,71.26600000000001
218,0.361483,71.26600000000001
219,0.363183,69.39100000000001
220,0.364817,67.291
221,0.366483,65.102
222,0.36815,65.102
223,0.369817,62.838
224,0.371483,60.596
225,0.37315,58.446
226,0.374817,58.446
227,0.376483,56.388
228,0.37815,54.445
229,0.379817,52.627
230,0.381483,52.627
231,0.38315,51.006
232,0.384817,49.491
233,0.386483,49.491
234,0.38815,48.199
235,0.389817,47.014
236,0.391567,45.931
237,0.39315,45.931
238,0.394817,45.054
239,0.396483,44.247
240,0.39815,43.561
241,0.399817,43.561
242,0.401483,42.951
243,0.40315,42.377
244,0.404817,41.89
245,0.406483,41.89
246,0.40815,41.48
247,0.409817,41.162
248,0.411467,41.162
249,0.413133,40.882
250,0.4148,40.624
251,0.416467,40.402
252,0.418133,40.402
253,0.419817,40.142
254,0.421467,39.942
255,0.423133,39.77
256,0.4248,39.77
257,0.426467,39.63
258,0.428133,39.54
259,0.4298,39.473
260,0.431483,39.473
261,0.433133,39.396
262,0.4348,39.323
263,0.436467,39.262
264,0.43815,39.262
265,0.439833,39.184
266,0.441467,39.115
267,0.443133,39.115
268,0.4448,39.079
269,0.446467,39.028
270,0.448133,38.961
271,0.4498,38.961
272,0.451467,38.913
273,0.453133,38.822
274,0.4548,38.774
275,0.456467,38.774
276,0.458133,38.736
277,0.4598,38.704
278,0.461467,38.694
279,0.463133,38.694
280,0.4648,38.681
281,0.466467,38.664
282,0.468133,38.664
283,0.469783,38.639
284,0.47145,38.607
285,0.473117,38.584
286,0.474783,38.584
287,0.476533,38.584
288,0.478117,38.59
289,0.479783,38.616
290,0.48145,38.616
291,0.483117,38.652
292,0.484783,38.671
293,0.48645,38.656
294,0.488117,38.656
295,0.489783,38.61
296,0.49145,38.539
297,0.493117,38.539
298,0.494783,38.477
299,0.49645,38.477
300,0.498117,38.485
301,0.499783,38.485
302,0.50145,38.49
303,0.503117,38.498
304,0.504783,38.488
305,0.50645,38.488
306,0.508117,38.482
307,0.5098,38.477
308,0.51145,38.461
309,0.513117,38.461
310,0.514783,38.46
311,0.51645,38.471
312,0.51815,38.444
313,0.519783,38.444
314,0.52145,38.453
315,0.5231170000000001,38.414
316,0.524783,38.414
317,0.52645,38.382
318,0.5281169999999999,38.387
319,0.529783,38.371
320,0.531433,38.371
321,0.5331,38.397
322,0.534767,38.398
323,0.536433,38.392
324,0.5381,38.392
325,0.539767,38.402
326,0.5414330000000001,38.392
327,0.5431,38.382
328,0.544767,38.382
329,0.5464329999999999,38.397
330,0.5481,38.365
331,0.549767,38.365
332,0.551433,38.358
333,0.5531,38.336
334,0.554767,38.322
335,0.556433,38.322
336,0.5581,38.327
337,0.559767,38.334
338,0.561433,38.341
339,0.5631,38.341
340,0.564767,38.313
341,0.566433,38.302
342,0.5681,38.262
343,0.569767,38.262
344,0.571433,38.257
345,0.5731000000000001,38.252
346,0.574767,38.224
347,0.576433,38.224
348,0.5780999999999999,38.211
349,0.579767,38.211
350,0.581433,38.211
351,0.583117,38.235
352,0.5847830000000001,38.262
353,0.586433,38.276
354,0.5881,38.276
355,0.589767,38.262
356,0.591417,38.25
357,0.593083,38.258
358,0.594817,38.258
359,0.596417,38.263
360,0.598083,38.242
361,0.59975,38.227
362,0.601417,38.227
363,0.603083,38.205
364,0.60475,38.17
365,0.606417,38.17
366,0.608083,38.16
367,0.60975,38.128
368,0.611517,38.119
369,0.613083,38.119
370,0.61475,38.134
371,0.616417,38.149
372,0.618083,38.169
373,0.61975,38.169
374,0.621417,38.177
375,0.623067,38.15
376,0.624733,38.122
377,0.6264,38.122
378,0.628183,38.094
379,0.629733,38.063
380,0.6314,38.075
381,0.633067,38.075
382,0.634733,38.087
383,0.6364,38.099
384,0.6380670000000001,38.099
385,0.639733,38.099
386,0.6414,38.063
387,0.6430670000000001,38.039
388,0.644733,38.039
389,0.6464,38.027
390,0.6480669999999999,38.014
391,0.649733,38.023
392,0.651383,38.023
393,0.65305,38.018
394,0.654717,38.017
395,0.656383,38.025
396,0.65805,38.025
397,0.6597499999999999,38.023
398,0.661483,38.028
399,0.66305,38.028
400,0.664717,38.03
401,0.6663829999999999,38.021
402,0.66805,38.025
403,0.669717,38.025
404,0.671383,38.019
405,0.67305,38.007
406,0.674717,37.985
407,0.676383,37.985
408,0.67805,37.977
409,0.679717,37.96
410,0.681383,37.963
411,0.68305,37.963
412,0.684717,37.984
413,0.686383,37.96
414,0.6880500000000001,37.96
415,0.689717,37.945
416,0.691383,37.92
417,0.6930500000000001,37.925
418,0.694717,37.925
419,0.696383,37.96
420,0.6980499999999999,37.979
421,0.699717,37.976
422,0.701383,37.976
423,0.70305,37.965
424,0.704717,37.933
425,0.706383,37.912
426,0.70805,37.912
427,0.709717,37.916
428,0.711367,37.887
429,0.7131,37.875
430,0.7147,37.875
431,0.716367,37.874
432,0.718033,37.867
433,0.7197,37.867
434,0.721367,37.889
435,0.723033,37.923
436,0.7247670000000001,37.932
437,0.726367,37.932
438,0.728033,37.949
439,0.729783,37.961
440,0.731367,37.941
441,0.73305,37.941
442,0.7347,37.931
443,0.736367,37.92
444,0.7380330000000001,37.902
445,0.7397,37.902
446,0.741367,37.877
447,0.7430330000000001,37.873
448,0.7447,37.873
449,0.746483,37.872
450,0.7480329999999999,37.867
451,0.7497,37.879
452,0.751367,37.879
453,0.753033,37.865
454,0.7547,37.821
455,0.756367,37.799
456,0.758033,37.799
457,0.7597,37.804
458,0.761367,37.812
459,0.763033,37.823
460,0.7647,37.823
461,0.766367,37.789
462,0.768033,37.768
463,0.769683,37.794
464,0.77135,37.794
465,0.773017,37.841
466,0.774683,37.891
467,0.77635,37.891
468,0.778017,37.905
469,0.779683,37.901
470,0.78135,37.868
471,0.783017,37.868
472,0.784683,37.851
473,0.78635,37.841
474,0.788017,37.824
475,0.789683,37.824
476,0.79135,37.82
477,0.793033,37.809
478,0.794683,37.776
479,0.79635,37.776
480,0.798017,37.778
481,0.799683,37.768
482,0.80135,37.768
483,0.803017,37.77
484,0.804683,37.79
485,0.80635,37.76
486,0.808017,37.76
487,0.809683,37.756
488,0.81135,37.739
489,0.813017,37.757
490,0.814683,37.757
491,0.816367,37.777
492,0.818017,37.786
493,0.8196830000000001,37.789
494,0.82135,37.789
495,0.823017,37.784
496,0.8246830000000001,37.783
497,0.82635,37.785
498,0.828017,37.785
499,0.829667,37.818
500,0.831333,37.789
501,0.833,37.789
502,0.834667,37.775
503,0.836333,37.774
504,0.838,37.733
505,0.8396670000000001,37.733
506,0.841333,37.76
507,0.843,37.746
508,0.8446669999999999,37.723
509,0.846333,37.723
510,0.84805,37.725
511,0.849667,37.692
512,0.851333,37.719
513,0.853,37.719
514,0.854667,37.751
515,0.856333,37.783
516,0.858,37.783
517,0.859667,37.812
518,0.861333,37.815
519,0.863,37.81
520,0.864767,37.81
521,0.86635,37.784
522,0.868,37.795
523,0.869667,37.804
524,0.871333,37.804
525,0.873,37.77
526,0.874667,37.78
527,0.87635,37.772
528,0.878,37.772
529,0.879667,37.771
530,0.881433,37.806
531,0.883,37.806
532,0.884667,37.792
533,0.886333,37.804
534,0.888,37.795
535,0.8896500000000001,37.795
536,0.891317,37.799
537,0.892983,37.818
538,0.8946499999999999,37.811
539,0.896317,37.811
540,0.897983,37.812
541,0.8996499999999999,37.789
542,0.901317,37.798
543,0.902983,37.798
544,0.90465,37.803
545,0.906317,37.777
546,0.907983,37.783
547,0.909683,37.783
548,0.911317,37.753
549,0.912983,37.745
550,0.914633,37.745
551,0.9163,37.751
552,0.917967,37.764
553,0.919633,37.789
554,0.9213,37.789
555,0.922967,37.789
556,0.924633,37.815
557,0.9263,37.795
558,0.927967,37.795
559,0.929633,37.803
560,0.9313,37.815
561,0.932967,37.82
562,0.934633,37.82
563,0.9363,37.851
564,0.937967,37.853
565,0.93965,37.853
566,0.9413,37.837
567,0.942967,37.841
568,0.9446329999999999,37.855
569,0.9463,37.855
570,0.94795,37.872
571,0.949617,37.888
572,0.951283,37.894
573,0.95295,37.894
574,0.954617,37.857
575,0.956283,37.853
576,0.95795,37.892
577,0.9596170000000001,37.892
578,0.961283,37.91
579,0.96295,37.943
580,0.9646169999999999,37.969
581,0.96635,37.969
582,0.96795,37.966
583,0.969617,37.978
584,0.971283,37.978
585,0.97295,37.996
586,0.974617,38
587,0.976283,37.999
588,0.97795,37.999
589,0.979617,37.993
590,0.981283,38.009
591,0.98305,37.983
592,0.984617,37.983
593,0.986283,37.963
594,0.98795,37.996
595,0.989617,38.025
596,0.991283,38.025
597,0.99295,38.094
598,0.994617,38.157
599,0.996283,38.157
600,0.997983,38.174
601,0.999733,38.182
602,1.001283,38.195
603,1.00295,38.195
604,1.004617,38.197
605,1.006283,38.196
606,1.007933,38.221
607,1.0096,38.221
608,1.011267,38.217
609,1.012933,38.254
610,1.0146,38.278
611,1.016267,38.278
612,1.01795,38.277
613,1.01965,38.289
614,1.021267,38.315
615,1.022933,38.315
616,1.0246,38.347
617,1.026267,38.39
618,1.027933,38.39
619,1.0296,38.462
620,1.031267,38.465
621,1.032933,38.474
622,1.0346,38.474
623,1.036267,38.485
624,1.037933,38.464
625,1.0396,38.496
626,1.041267,38.496
627,1.042933,38.563
628,1.0446,38.615
629,1.046267,38.652
630,1.047933,38.652
631,1.0496,38.701
632,1.051283,38.727
633,1.052933,38.727
634,1.0546,38.748
635,1.056267,38.8
636,1.057933,38.812
637,1.0596,38.812
638,1.061267,38.828
639,1.062933,38.842
640,1.0646,38.878
641,1.066267,38.878
642,1.06795,38.934
643,1.069583,38.984
644,1.071267,39.049
645,1.072917,39.049
646,1.074583,39.075
647,1.07625,39.119
648,1.077917,39.119
649,1.079583,39.166
650,1.08125,39.201
651,1.082917,39.277
652,1.08465,39.277
653,1.08625,39.328
654,1.087917,39.389
655,1.089583,39.468
656,1.09125,39.468
657,1.092917,39.521
658,1.094583,39.552
659,1.09625,39.588
660,1.097917,39.588
661,1.099583,39.636
662,1.101283,39.685
663,1.102917,39.773
664,1.104583,39.773
665,1.10625,39.83
666,1.107917,39.879
667,1.109583,39.879
668,1.11125,39.94
669,1.112917,39.995
670,1.114583,40.064
671,1.11625,40.064
672,1.118017,40.118
673,1.119583,40.175
674,1.12125,40.225
675,1.122917,40.225
676,1.124583,40.302
677,1.12625,40.377
678,1.127917,40.45
679,1.129567,40.45
680,1.131233,40.513
681,1.1329,40.577
682,1.134567,40.577
683,1.136233,40.666
684,1.1379,40.746
685,1.139567,40.828
686,1.141233,40.828
687,1.1429,40.872
688,1.144567,40.9
689,1.146233,40.948
690,1.1479,40.948
691,1.149567,41.015
692,1.151233,41.083
693,1.1529,41.156
694,1.154567,41.156
695,1.156233,41.238
696,1.1579,41.338
697,1.159567,41.422
698,1.161233,41.422
699,1.1629,41.537
700,1.164567,41.633
701,1.166233,41.633
702,1.1679,41.697
703,1.169567,41.78
704,1.171233,41.832
705,1.1729,41.832
706,1.174567,41.881
707,1.176233,41.94
708,1.1779,42.012
709,1.179567,42.012
710,1.181233,42.1
711,1.1829,42.193
712,1.184567,42.291
713,1.186233,42.291
714,1.1879,42.4
715,1.189567,42.499
716,1.191217,42.499
717,1.192883,42.573
718,1.19455,42.648
719,1.196217,42.729
720,1.197883,42.729
721,1.19955,42.813
722,1.201217,42.868
723,1.202967,42.935
724,1.20455,42.935
725,1.2062,42.976
726,1.207867,43.004
727,1.209533,43.1
728,1.2112,43.1
729,1.212867,43.175
730,1.214533,43.251
731,1.2162,43.344
732,1.217867,43.344
733,1.2196,43.425
734,1.2212,43.521
735,1.222867,43.521
736,1.224533,43.633
737,1.226217,43.742
738,1.227867,43.823
739,1.229533,43.823
740,1.2312,43.888
741,1.232867,43.935
742,1.234533,43.985
743,1.236317,43.985
744,1.237867,44.057
745,1.239533,44.149
746,1.2412,44.251
747,1.242867,44.251
748,1.244533,44.352
749,1.2462,44.44
750,1.247867,44.44
751,1.249517,44.52
752,1.251183,44.596
753,1.25285,44.656
754,1.254517,44.656
755,1.256183,44.743
756,1.25785,44.829
757,1.259517,44.896
758,1.261183,44.896
759,1.26285,44.999
760,1.264517,45.083
761,1.266183,45.151
762,1.26785,45.151
763,1.269517,45.244
764,1.271183,45.294
765,1.27285,45.294
766,1.274517,45.358
767,1.276183,45.451
768,1.27785,45.537
769,1.279517,45.537
770,1.281183,45.662
771,1.28285,45.771
772,1.284517,45.843
773,1.286183,45.843
774,1.28785,45.934
775,1.289517,45.993
776,1.291183,46.042
777,1.29285,46.042
778,1.29455,46.13
779,1.296183,46.21
780,1.29785,46.287
781,1.299517,46.287
782,1.301183,46.376
783,1.30285,46.445
784,1.304517,46.445
785,1.306183,46.495
786,1.30785,46.592
787,1.309533,46.672
788,1.311167,46.672
789,1.312833,46.747
790,1.3145,46.828
791,1.316167,46.88
792,1.317833,46.88
793,1.3195,46.954
794,1.321233,47.013
795,1.322833,47.085
796,1.3245,47.085
797,1.326167,47.149
798,1.327833,47.25
799,1.3295,47.25
800,1.331167,47.339
801,1.332833,47.424
802,1.3345,47.535
803,1.336167,47.535
804,1.337833,47.598
805,1.3395,47.684
806,1.341167,47.769
807,1.342833,47.769
808,1.3445,47.815
809,1.346167,47.866
810,1.347833,47.93
811,1.3495,47.93
812,1.351167,48
813,1.352833,48.066
814,1.354617,48.126
815,1.356167,48.126
816,1.357833,48.192
817,1.3595,48.25
818,1.361167,48.25
819,1.362833,48.306
820,1.3645,48.393
821,1.366167,48.465
822,1.367833,48.465
823,1.369483,48.545
824,1.37115,48.623
825,1.37285,48.663
826,1.374483,48.663
827,1.37615,48.733
828,1.377817,48.772
829,1.379483,48.839
830,1.38115,48.839
831,1.382817,48.903
832,1.384483,48.959
833,1.38615,48.959
834,1.387817,49.017
835,1.389483,49.056
836,1.39115,49.108
837,1.392817,49.108
838,1.394483,49.15
839,1.39615,49.221
840,1.397817,49.308
841,1.399483,49.308
842,1.40115,49.39
843,1.40285,49.458
844,1.404483,49.528
845,1.40615,49.528
846,1.407817,49.583
847,1.409483,49.628
848,1.41115,49.667
849,1.412817,49.667
850,1.414483,49.701
851,1.41615,49.75
852,1.417817,49.75
853,1.419483,49.807
854,1.42115,49.876
855,1.422817,49.937
856,1.424483,49.937
857,1.42615,49.987
858,1.427817,50.044
859,1.429467,50.098
860,1.431133,50.098
861,1.4328,50.174
862,1.434467,50.249
863,1.436133,50.317
864,1.4378,50.317
865,1.43955,50.38
866,1.441133,50.404
867,1.442833,50.404
868,1.444467,50.426
869,1.446133,50.435
870,1.4478,50.469
871,1.449467,50.469
872,1.451133,50.514
873,1.4528,50.574
874,1.454483,50.652
875,1.456133,50.652
876,1.4578,50.703
877,1.459467,50.762
878,1.461133,50.818
879,1.4628,50.818
880,1.464467,50.847
881,1.466133,50.89
882,1.4678,50.931
883,1.469467,50.931
884,1.471133,50.961
885,1.4729,51.005
886,1.474467,51.005
887,1.476133,51.033
888,1.4778,51.06
889,1.479467,51.1
890,1.481133,51.1
891,1.4828,51.184
892,1.484467,51.269
893,1.486133,51.332
894,1.4878,51.332
895,1.48945,51.409
896,1.491133,51.419
897,1.492817,51.438
898,1.49445,51.438
899,1.496117,51.486
900,1.497767,51.527
901,1.499433,51.527
902,1.5011,51.584
903,1.502767,51.644
904,1.504433,51.651
905,1.5061,51.651
906,1.507767,51.666
907,1.509433,51.696
908,1.5111,51.71
909,1.512767,51.71
910,1.514433,51.754
911,1.5161,51.773
912,1.517783,51.793
913,1.519483,51.793
914,1.5211,51.825
915,1.522767,51.852
916,1.524433,51.852
917,1.5261,51.892
918,1.527767,51.954
919,1.529433,52.024
920,1.5311,52.024
921,1.532767,52.094
922,1.534433,52.134
923,1.5361,52.179
924,1.537767,52.179
925,1.539433,52.184
926,1.5411,52.201
927,1.542767,52.256
928,1.544433,52.256
929,1.5461,52.249
930,1.547767,52.292
931,1.549417,52.327
932,1.551083,52.327
933,1.55275,52.328
934,1.554417,52.399
935,1.556083,52.399
936,1.557783,52.402
937,1.559417,52.439
938,1.561083,52.478
939,1.56275,52.478
940,1.564417,52.471
941,1.566083,52.533
942,1.56775,52.574
943,1.569417,52.574
944,1.571083,52.612
945,1.57275,52.641
946,1.574517,52.656
947,1.576117,52.656
948,1.57775,52.699
949,1.579417,52.754
950,1.581083,52.754
951,1.58275,52.832
952,1.584417,52.9
953,1.586083,52.924
954,1.58775,52.924
955,1.589417,52.918
956,1.5911,52.901
957,1.59275,52.908
958,1.594417,52.908
959,1.596083,52.893
960,1.59775,52.917
961,1.599417,52.964
962,1.601083,52.964
963,1.60275,52.971
964,1.604417,53.009
965,1.606083,53.044
966,1.60775,53.044
967,1.609417,53.074
968,1.611067,53.094
969,1.612733,53.094
970,1.6144,53.116
971,1.616067,53.107
972,1.617733,53.098
973,1.6194,53.098
974,1.621067,53.128
975,1.622733,53.167
976,1.6244,53.211
977,1.626067,53.211
978,1.627733,53.274
979,1.629417,53.293
980,1.631067,53.313
981,1.632733,53.313
982,1.6344,53.339
983,1.636067,53.331
984,1.637733,53.331
985,1.6394,53.342
986,1.641067,53.363
987,1.642733,53.383
988,1.6444,53.383
989,1.646067,53.409
990,1.647733,53.474
991,1.6494,53.509
992,1.651067,53.509
993,1.652733,53.532
994,1.6544,53.544
995,1.656067,53.526
996,1.657733,53.526
997,1.6594,53.506
998,1.661067,53.543
999,1.662767,53.573
1000,1.6644,53.573
1001,1.666067,53.595
1002,1.667733,53.63
1003,1.669383,53.63
1004,1.67105,53.645
1005,1.672717,53.654
1006,1.674383,53.681
1007,1.67605,53.681
1008,1.677717,53.687
1009,1.679383,53.69
1010,1.68105,53.69
1011,1.682717,53.69
1012,1.684383,53.708
1013,1.68605,53.738
