"ID","sea_time","fid_signal"
1,0,1173.019
2,0.0017,1170.859
3,0.003333,1170.859
4,0.005,1173.392
5,0.006667,1173.541
6,0.008333,1173.541
7,0.01,1170.039
8,0.011667,1168.475
9,0.013333,1165.494
10,0.015,1165.494
11,0.016717,1163.483
12,0.018333,1162.961
13,0.02,1162.291
14,0.021667,1162.291
15,0.023333,1164.973
16,0.025,1165.42
17,0.026667,1168.996
18,0.028333,1168.996
19,0.03,1172.945
20,0.031667,1174.36
21,0.033383,1176.372
22,0.035,1176.372
23,0.036667,1175.851
24,0.03835,1174.212
25,0.04,1174.212
26,0.041667,1170.412
27,0.043333,1170.486
28,0.045,1168.475
29,0.04665,1168.475
30,0.048317,1169.22
31,0.05005,1169.741
32,0.05165,1166.91
33,0.053317,1166.91
34,0.054983,1169.518
35,0.05665,1170.486
36,0.058317,1171.976
37,0.059983,1171.976
38,0.06165,1174.286
39,0.063317,1174.957
40,0.064983,1174.957
41,0.06665,1175.702
42,0.068317,1173.913
43,0.069983,1171.529
44,0.07165000000000001,1171.529
45,0.07331699999999999,1171.008
46,0.07498299999999999,1170.337
47,0.07665,1170.933
48,0.07836700000000001,1170.933
49,0.079983,1173.392
50,0.08165,1171.604
51,0.083317,1172.349
52,0.084983,1172.349
53,0.08665,1173.317
54,0.08831700000000001,1174.286
55,0.08998299999999999,1173.243
56,0.09165,1173.243
57,0.093317,1170.412
58,0.094983,1171.38
59,0.09665,1171.38
60,0.098317,1167.804
61,0.099983,1167.282
62,0.10165,1169.369
63,0.103317,1169.369
64,0.104967,1166.239
65,0.106633,1168.847
66,0.1083,1171.231
67,0.109967,1171.231
68,0.111633,1171.529
69,0.1133,1174.733
70,0.114967,1176.298
71,0.116633,1176.298
72,0.1183,1174.957
73,0.119967,1176
74,0.121633,1176
75,0.123333,1176.074
76,0.124967,1175.031
77,0.126633,1177.192
78,0.1283,1177.192
79,0.129967,1174.36
80,0.131633,1174.137
81,0.1333,1175.329
82,0.135033,1175.329
83,0.136633,1176.67
84,0.1383,1178.756
85,0.139967,1175.925
86,0.141633,1175.925
87,0.1433,1173.839
88,0.144967,1171.902
89,0.146633,1172.572
90,0.1483,1172.572
91,0.149967,1172.647
92,0.151683,1170.71
93,0.1533,1170.71
94,0.154967,1167.804
95,0.156633,1164.749
96,0.1583,1168.4
97,0.159967,1168.4
98,0.161633,1170.71
99,0.1633,1174.137
100,0.164967,1174.435
101,0.166617,1174.435
102,0.168417,1173.392
103,0.16995,1170.039
104,0.171617,1167.506
105,0.1733,1167.506
106,0.17495,1166.91
107,0.176617,1166.165
108,0.178283,1166.165
109,0.17995,1171.976
110,0.181617,1174.36
111,0.183283,1176.447
112,0.18495,1176.447
113,0.186617,1176
114,0.188283,1174.063
115,0.18995,1172.2
116,0.191617,1172.2
117,0.193283,1170.859
118,0.19495,1169.22
119,0.196617,1166.165
120,0.198283,1166.165
121,0.19995,1167.432
122,0.201617,1167.357
123,0.203283,1167.357
124,0.20495,1167.357
125,0.206617,1167.58
126,0.208283,1166.314
127,0.20995,1166.314
128,0.211633,1166.016
129,0.213283,1166.463
130,0.21495,1166.09
131,0.216617,1166.09
132,0.218283,1165.271
133,0.21995,1166.835
134,0.221617,1166.835
135,0.223267,1166.835
136,0.224967,1167.506
137,0.2266,1171.455
138,0.228267,1171.753
139,0.229933,1171.753
140,0.2316,1171.082
141,0.233267,1174.063
142,0.234933,1174.063
143,0.2366,1172.349
144,0.238267,1173.243
145,0.239933,1176.521
146,0.2416,1176.521
147,0.243267,1176.894
148,0.244933,1174.733
149,0.2466,1172.87
150,0.248267,1172.87
151,0.249933,1172.945
152,0.2516,1169.294
153,0.253317,1171.604
154,0.254933,1171.604
155,0.2566,1170.71
156,0.258267,1171.455
157,0.259933,1171.455
158,0.2616,1174.659
159,0.263267,1172.721
160,0.264933,1174.733
161,0.2666,1174.733
162,0.268267,1173.094
163,0.269933,1171.231
164,0.2716,1172.721
165,0.273267,1172.721
166,0.274933,1172.945
167,0.2766,1172.87
168,0.278267,1174.882
169,0.279933,1174.882
170,0.2816,1174.36
171,0.28325,1173.541
172,0.284917,1173.243
173,0.2866,1173.243
174,0.288233,1170.188
175,0.2899,1168.475
176,0.291567,1168.475
177,0.293233,1169.667
178,0.2949,1170.635
179,0.296567,1173.168
180,0.298233,1173.168
181,0.2999,1173.988
182,0.301583,1173.466
183,0.303233,1171.231
184,0.3049,1171.231
185,0.306567,1171.753
186,0.308233,1173.913
187,0.3099,1174.957
188,0.311567,1174.957
189,0.313233,1178.086
190,0.3149,1175.776
191,0.316567,1175.776
192,0.318233,1176.372
193,0.3199,1178.756
194,0.321567,1182.184
195,0.323233,1182.184
196,0.3249,1188.219
197,0.326567,1190.975
198,0.328233,1193.434
199,0.3299,1193.434
200,0.331567,1196.563
201,0.333233,1201.704
202,0.3349,1208.335
203,0.336567,1208.335
204,0.338233,1213.402
205,0.3399,1218.468
206,0.341567,1220.256
207,0.343233,1220.256
208,0.344883,1221.672
209,0.34655,1222.864
210,0.348233,1222.864
211,0.349883,1224.801
212,0.35155,1228.601
213,0.353217,1232.177
214,0.354883,1232.177
215,0.35655,1234.859
216,0.358217,1232.624
217,0.359883,1234.561
218,0.36155,1234.561
219,0.363217,1233.965
220,0.364883,1231.283
221,0.366567,1232.624
222,0.368217,1232.624
223,0.369883,1226.962
224,0.371617,1223.385
225,0.373217,1223.385
226,0.374883,1222.193
227,0.37655,1220.256
228,0.378217,1218.17
229,0.379883,1218.17
230,0.38155,1217.499
231,0.383217,1213.551
232,0.384883,1211.464
233,0.38655,1211.464
234,0.388217,1208.335
235,0.389883,1203.492
236,0.39155,1199.245
237,0.393217,1199.245
238,0.394883,1194.775
239,0.39655,1192.763
240,0.398217,1192.763
241,0.399883,1191.571
242,0.40155,1192.689
243,0.403217,1190.752
244,0.404967,1190.752
245,0.406533,1188.666
246,0.4082,1186.579
247,0.409867,1186.207
248,0.411533,1186.207
249,0.4132,1185.983
250,0.414867,1186.877
251,0.416533,1187.548
252,0.4182,1187.548
253,0.419867,1185.909
254,0.421533,1183.748
255,0.4232,1182.854
256,0.424867,1182.854
257,0.426533,1181.215
258,0.4282,1180.768
259,0.429867,1180.768
260,0.431533,1183.674
261,0.4332,1182.78
262,0.434867,1183.301
263,0.436533,1183.301
264,0.4382,1183.748
265,0.439867,1181.215
266,0.441533,1182.482
267,0.443217,1182.482
268,0.444867,1182.78
269,0.446583,1183.674
270,0.4482,1183.599
271,0.449867,1183.599
272,0.451533,1182.109
273,0.4532,1182.333
274,0.454867,1182.333
275,0.456533,1180.768
276,0.4582,1180.693
277,0.459867,1182.482
278,0.461533,1182.482
279,0.4632,1183.823
280,0.46485,1184.195
281,0.466517,1184.27
282,0.468183,1184.27
283,0.46985,1185.387
284,0.471517,1183.748
285,0.473183,1184.717
286,0.47485,1184.717
287,0.476517,1187.324
288,0.478183,1187.623
289,0.47985,1187.474
290,0.481517,1187.474
291,0.483183,1186.729
292,0.48485,1185.313
293,0.486517,1185.313
294,0.488183,1185.685
295,0.4899,1190.007
296,0.491517,1197.681
297,0.493183,1197.681
298,0.49485,1208.931
299,0.496517,1218.095
300,0.498183,1229.644
301,0.49985,1229.644
302,0.501517,1242.98
303,0.503183,1256.317
304,0.50485,1278.296
305,0.506517,1278.296
306,0.5081830000000001,1303.107
307,0.50985,1332.536
308,0.511517,1332.536
309,0.5131829999999999,1366.809
310,0.51485,1405.031
311,0.516533,1453.608
312,0.5182,1453.608
313,0.51985,1510.754
314,0.521517,1576.319
315,0.5233,1648.59
316,0.52485,1648.59
317,0.5265,1727.79
318,0.5281670000000001,1811.013
319,0.529833,1904.368
320,0.5315,1904.368
321,0.5331669999999999,2008.08
322,0.534833,2121.255
323,0.5365,2244.86
324,0.538167,2244.86
325,0.539833,2376.139
326,0.5415,2516.508
327,0.543167,2516.508
328,0.544833,2663.061
329,0.5465,2819.896
330,0.548167,2981.946
331,0.549833,2981.946
332,0.5515,3152.49
333,0.553167,3332.123
334,0.554833,3514.066
335,0.5565,3514.066
336,0.558167,3705.844
337,0.559833,3901.198
338,0.5615,4097.67
339,0.563167,4097.67
340,0.564833,4300.4
341,0.5665,4507.005
342,0.568167,4507.005
343,0.569833,4716.516
344,0.5715,4930.571
345,0.573167,5144.775
346,0.574833,5144.775
347,0.5765,5359.203
348,0.5781500000000001,5576.834
349,0.579817,5797.371
350,0.581483,5797.371
351,0.5831499999999999,6019.324
352,0.584817,6240.979
353,0.586467,6464.198
354,0.588133,6464.198
355,0.589867,6683.692
356,0.591467,6906.018
357,0.593133,6906.018
358,0.5948,7128.12
359,0.596467,7343.888
360,0.598133,7559.731
361,0.5998,7559.731
362,0.601467,7774.979
363,0.603133,7991.269
364,0.6048,8208.23
365,0.606467,8208.23
366,0.608133,8419.528
367,0.6098,8627.251
368,0.611467,8827.82
369,0.613133,8827.82
370,0.6148,9024.739
371,0.616467,9224.787
372,0.618133,9420.142
373,0.6198,9420.142
374,0.621467,9613.037
375,0.623133,9805.561
376,0.624883,9989.813
377,0.626467,9989.813
378,0.6281330000000001,10168.553
379,0.6298,10343.864
380,0.631467,10343.864
381,0.6331329999999999,10511.056
382,0.6348,10674.969
383,0.636467,10832.921
384,0.638133,10832.921
385,0.6398,10982.826
386,0.641567,11127.069
387,0.643133,11264.458
388,0.644783,11264.458
389,0.64645,11396.855
390,0.6481170000000001,11522.397
391,0.649783,11522.397
392,0.65145,11638.925
393,0.6531169999999999,11746.585
394,0.654783,11842.698
395,0.65645,11842.698
396,0.658233,11926.517
397,0.659783,11996.403
398,0.66145,12054.443
399,0.663133,12054.443
400,0.664817,12101.531
401,0.66645,12136.996
402,0.668117,12159.943
403,0.669783,12159.943
404,0.67145,12164.936
405,0.673117,12150.929
406,0.674783,12119.188
407,0.67645,12119.188
408,0.678117,12070.388
409,0.679783,12002.141
410,0.68145,12002.141
411,0.683117,11915.862
412,0.684783,11802.986
413,0.68645,11666.417
414,0.688117,11666.417
415,0.689783,11507.496
416,0.69145,11324.51
417,0.693117,11122.674
418,0.694783,11122.674
419,0.69645,10896.623
420,0.698117,10650.68
421,0.699783,10387.823
422,0.70145,10387.823
423,0.703117,10109.692
424,0.704767,9823.218000000001
425,0.706433,9823.218000000001
426,0.7081,9527.132
427,0.709767,9220.540000000001
428,0.711433,8914.992
429,0.7131,8914.992
430,0.714767,8605.867
431,0.716433,8303.002
432,0.7181,8007.661
433,0.719767,8007.661
434,0.721433,7720.366
435,0.7231,7444.844
436,0.7248,7176.772
437,0.726433,7176.772
438,0.7281,6923.303
439,0.7297670000000001,6681.383
440,0.731433,6457.046
441,0.733117,6457.046
442,0.7348,6245.226
443,0.736433,6044.209
444,0.7381,6044.209
445,0.739767,5855.039
446,0.741433,5678.311
447,0.743167,5513.355
448,0.744767,5513.355
449,0.746433,5362.928
450,0.7481,5222.038
451,0.749767,5086.139
452,0.751433,5086.139
453,0.7531,4960.671
454,0.754767,4841.313
455,0.756433,4733.279
456,0.7581,4733.279
457,0.759817,4630.536
458,0.761433,4533.008
459,0.7631,4533.008
460,0.76475,4442.483
461,0.766417,4355.088
462,0.768083,4274.1
463,0.76975,4274.1
464,0.771417,4198.328
465,0.773083,4124.567
466,0.77475,4055.947
467,0.776533,4055.947
468,0.778083,3987.849
469,0.7797500000000001,3922.88
470,0.781417,3863.2
471,0.783083,3863.2
472,0.7847499999999999,3802.925
473,0.786417,3749.132
474,0.788083,3699.586
475,0.78975,3699.586
476,0.791417,3651.678
477,0.793083,3605.41
478,0.79475,3605.41
479,0.796417,3557.727
480,0.798083,3511.533
481,0.79975,3465.042
482,0.801433,3465.042
483,0.803083,3422.797
484,0.804767,3382.563
485,0.8064170000000001,3341.362
486,0.808083,3341.362
487,0.80975,3302.544
488,0.8114170000000001,3265.44
489,0.813083,3229.752
490,0.81475,3229.752
491,0.8164169999999999,3196.523
492,0.818083,3162.324
493,0.81975,3162.324
494,0.82145,3126.636
495,0.823083,3092.364
496,0.824733,3062.934
497,0.8264,3062.934
498,0.828067,3034.398
499,0.8297330000000001,3009.066
500,0.8314,2981.573
501,0.833067,2981.573
502,0.8347329999999999,2952.442
503,0.8364,2927.259
504,0.838067,2900.585
505,0.839733,2900.585
506,0.8414,2879.724
507,0.843067,2853.87
508,0.844733,2853.87
509,0.8464,2828.315
510,0.848067,2804.92
511,0.849733,2778.545
512,0.8514,2778.545
513,0.853067,2756.566
514,0.854733,2734.14
515,0.8564000000000001,2711.043
516,0.858067,2711.043
517,0.859733,2688.244
518,0.861417,2667.531
519,0.863067,2646.521
520,0.864733,2646.521
521,0.8663999999999999,2625.436
522,0.86805,2607.852
523,0.869733,2590.641
524,0.871383,2590.641
525,0.87305,2574.623
526,0.874717,2559.498
527,0.876383,2559.498
528,0.8780829999999999,2543.554
529,0.879717,2527.162
530,0.881383,2508.908
531,0.88305,2508.908
532,0.8847,2491.176
533,0.886367,2475.157
534,0.888033,2459.288
535,0.8897,2459.288
536,0.891367,2444.685
537,0.893033,2428.442
538,0.894817,2410.933
539,0.896367,2410.933
540,0.898033,2394.095
541,0.8997000000000001,2380.088
542,0.901367,2380.088
543,0.903033,2367.124
544,0.9046999999999999,2353.713
545,0.906367,2342.91
546,0.908033,2342.91
547,0.9097,2330.542
548,0.911367,2318.174
549,0.91305,2307.445
550,0.9147,2307.445
551,0.916367,2291.799
552,0.918033,2278.909
553,0.9197,2264.678
554,0.921367,2264.678
555,0.923033,2252.162
556,0.9247,2242.252
557,0.9263670000000001,2229.512
558,0.928033,2229.512
559,0.9297,2221.987
560,0.9313669999999999,2212.226
561,0.933033,2212.226
562,0.9347,2201.498
563,0.9363669999999999,2191.812
564,0.938033,2179.593
565,0.9397,2179.593
566,0.941367,2166.256
567,0.943067,2156.272
568,0.9446830000000001,2146.736
569,0.94635,2146.736
570,0.948017,2137.721
571,0.9496830000000001,2132.133
572,0.95135,2122.969
573,0.953017,2122.969
574,0.9546829999999999,2109.781
575,0.95635,2099.126
576,0.958017,2099.126
577,0.959683,2085.939
578,0.96135,2074.54
579,0.963017,2067.462
580,0.964683,2067.462
581,0.96635,2058.744
582,0.968017,2051.368
583,0.969683,2044.067
584,0.97135,2044.067
585,0.973017,2038.032
586,0.974683,2031.103
587,0.9763500000000001,2025.589
588,0.978017,2025.589
589,0.979733,2021.417
590,0.9813499999999999,2013.743
591,0.983017,2006.739
592,0.984683,2006.739
593,0.9863499999999999,1999.885
594,0.988017,1986.697
595,0.989683,1986.697
596,0.991367,1977.906
597,0.993017,1969.859
598,0.994683,1962.93
599,0.99635,1962.93
600,0.998017,1963.153
601,0.999683,1957.715
602,1.00135,1951.158
603,1.003017,1951.158
604,1.004667,1942.515
605,1.006333,1932.83
606,1.008,1927.465
607,1.009667,1927.465
608,1.011333,1920.536
609,1.013117,1913.905
610,1.014667,1913.905
611,1.016333,1907.125
612,1.018,1900.718
613,1.019733,1896.247
614,1.021333,1896.247
615,1.023,1890.212
616,1.024667,1885.667
617,1.026333,1879.632
618,1.028,1879.632
619,1.029667,1873.151
620,1.031333,1870.021
621,1.033,1861.602
622,1.034667,1861.602
623,1.036333,1853.183
624,1.038,1846.403
625,1.039667,1846.403
626,1.041333,1834.333
627,1.043,1829.565
628,1.044667,1825.541
629,1.046333,1825.541
630,1.048,1822.188
631,1.049667,1826.361
632,1.051333,1823.381
633,1.053,1823.381
634,1.054667,1819.655
635,1.056333,1814.812
636,1.058,1803.264
637,1.059667,1803.264
638,1.061333,1794.025
639,1.063,1787.245
640,1.06465,1780.614
641,1.066317,1780.614
642,1.067983,1775.697
643,1.06965,1774.058
644,1.071317,1774.058
645,1.072983,1771.45
646,1.07465,1770.78
647,1.076317,1769.289
648,1.077983,1769.289
649,1.07965,1764.148
650,1.08135,1759.678
651,1.082983,1752.377
652,1.0847,1752.377
653,1.086317,1748.279
654,1.087983,1744.181
655,1.08965,1741.275
656,1.091317,1741.275
657,1.092983,1739.338
658,1.09465,1734.868
659,1.096317,1734.868
660,1.098033,1730.323
661,1.09965,1724.809
662,1.101317,1719.892
663,1.102983,1719.892
664,1.10465,1716.465
665,1.106317,1714.155
666,1.107983,1709.312
667,1.10965,1709.312
668,1.111317,1703.426
669,1.112983,1699.924
670,1.11465,1697.54
671,1.116317,1697.54
672,1.117983,1695.901
673,1.11965,1691.803
674,1.121317,1685.619
675,1.122983,1685.619
676,1.124633,1678.318
677,1.1263,1672.506
678,1.127967,1672.506
679,1.129633,1669.005
680,1.131417,1665.279
681,1.132967,1662.523
682,1.134633,1662.523
683,1.1363,1662.895
684,1.137967,1663.864
685,1.139633,1661.554
686,1.1413,1661.554
687,1.142967,1661.256
688,1.144633,1656.637
689,1.1463,1652.911
690,1.147967,1652.911
691,1.149633,1652.464
692,1.1513,1649.931
693,1.152967,1649.931
694,1.154633,1646.578
695,1.1563,1641.661
696,1.157967,1636.52
697,1.15965,1636.52
698,1.1613,1633.316
699,1.16295,1631.677
700,1.164617,1630.411
701,1.166283,1630.411
702,1.16795,1631.007
703,1.169617,1627.579
704,1.171283,1624.078
705,1.17295,1624.078
706,1.174617,1618.266
707,1.176283,1610.517
708,1.17795,1610.517
709,1.179617,1605.228
710,1.181283,1601.726
711,1.18295,1600.981
712,1.1846,1600.981
713,1.186267,1600.757
714,1.187933,1600.459
715,1.1896,1597.553
716,1.191267,1597.553
717,1.192933,1595.244
718,1.1946,1591.667
719,1.196267,1587.868
720,1.197933,1587.868
721,1.1996,1583.77
722,1.201267,1581.758
723,1.202933,1579.449
724,1.2046,1579.449
725,1.206267,1575.872
726,1.207933,1574.904
727,1.2096,1574.904
728,1.211267,1571.7
729,1.212933,1571.849
730,1.2146,1571.849
731,1.216317,1571.849
732,1.217933,1569.167
733,1.2196,1568.049
734,1.221267,1566.261
735,1.222933,1566.261
736,1.2246,1563.951
737,1.226267,1561.195
738,1.227933,1557.544
739,1.2296,1557.544
740,1.231267,1555.234
741,1.232933,1551.732
742,1.2346,1551.732
743,1.236267,1548.529
744,1.237933,1546.89
745,1.2396,1541.972
746,1.241267,1541.972
747,1.242933,1540.557
748,1.244583,1537.204
749,1.24625,1531.02
750,1.247917,1531.02
751,1.2497,1529.53
752,1.25125,1526.922
753,1.252917,1528.71
754,1.254583,1528.71
755,1.25625,1530.126
756,1.257917,1526.326
757,1.259583,1524.538
758,1.26125,1524.538
759,1.262917,1520.962
760,1.264583,1519.024
761,1.26625,1519.024
762,1.267917,1516.268
763,1.269583,1512.244
764,1.27125,1509.488
765,1.272917,1509.488
766,1.274583,1508.519
767,1.27625,1509.264
768,1.277917,1508.594
769,1.279583,1508.594
770,1.28125,1509.19
771,1.282917,1506.284
772,1.284583,1505.613
773,1.28625,1505.613
774,1.287917,1502.931
775,1.289583,1500.621
776,1.29125,1500.621
777,1.292917,1496.598
778,1.294583,1494.065
779,1.29625,1494.363
780,1.297917,1494.363
781,1.299583,1493.469
782,1.301233,1496.226
783,1.302917,1494.139
784,1.304567,1494.139
785,1.306233,1492.873
786,1.307967,1488.701
787,1.309567,1486.465
788,1.311233,1486.465
789,1.3129,1485.422
790,1.314567,1483.187
791,1.316233,1480.952
792,1.3179,1480.952
793,1.319567,1478.27
794,1.321233,1474.246
795,1.3229,1474.246
796,1.324567,1474.246
797,1.326233,1473.501
798,1.3279,1469.851
799,1.329567,1469.851
800,1.331233,1468.286
801,1.3329,1466.349
802,1.334617,1468.36
803,1.336233,1468.36
804,1.3379,1466.796
805,1.339567,1467.764
806,1.341233,1464.71
807,1.3429,1464.71
808,1.344567,1460.984
809,1.346233,1461.133
810,1.3479,1461.133
811,1.349567,1456.812
812,1.351233,1452.565
813,1.3529,1449.138
814,1.354567,1449.138
815,1.356233,1446.009
816,1.3579,1446.679
817,1.359567,1447.201
818,1.361233,1447.201
819,1.3629,1446.456
820,1.364567,1446.903
821,1.366217,1445.636
822,1.368,1445.636
823,1.36955,1446.232
824,1.371217,1444.519
825,1.372883,1444.817
826,1.37455,1444.817
827,1.376217,1442.954
828,1.377883,1439.974
829,1.37955,1439.974
830,1.381233,1439.229
831,1.382967,1435.95
832,1.38455,1433.566
833,1.386217,1433.566
834,1.387883,1433.417
835,1.38955,1433.715
836,1.391217,1432.598
837,1.392883,1432.598
838,1.39455,1431.331
839,1.396217,1429.468
840,1.397883,1429.319
841,1.39955,1429.319
842,1.401217,1427.606
843,1.402883,1428.798
844,1.40455,1428.798
845,1.406217,1428.425
846,1.407883,1427.755
847,1.40955,1427.01
848,1.411217,1427.01
849,1.412883,1424.625
850,1.41455,1420.975
851,1.416217,1416.355
852,1.417883,1416.355
853,1.41955,1412.779
854,1.421217,1411.364
855,1.422883,1411.512
856,1.424533,1411.512
857,1.4262,1412.109
858,1.427867,1411.214
859,1.429533,1411.214
860,1.4312,1409.799
861,1.432867,1410.991
862,1.434533,1409.054
863,1.4362,1409.054
864,1.437867,1409.873
865,1.439533,1409.426
866,1.4412,1407.34
867,1.442867,1407.34
868,1.444567,1407.862
869,1.4462,1407.564
870,1.447867,1406.67
871,1.449517,1406.67
872,1.451183,1406.148
873,1.452867,1402.572
874,1.454517,1400.113
875,1.456183,1400.113
876,1.45785,1397.952
877,1.459517,1395.941
878,1.461183,1395.941
879,1.46285,1397.058
880,1.464517,1397.654
881,1.466183,1396.164
882,1.46785,1396.164
883,1.469617,1396.164
884,1.471183,1394.525
885,1.47285,1394.004
886,1.474517,1394.004
887,1.476183,1392.812
888,1.47785,1387.596
889,1.479517,1386.181
890,1.481183,1386.181
891,1.48285,1383.424
892,1.4845,1384.616
893,1.486233,1387
894,1.487833,1387
895,1.4895,1385.808
896,1.491167,1388.341
897,1.492833,1388.341
898,1.4945,1387.969
899,1.496167,1385.584
900,1.497833,1383.871
901,1.4995,1383.871
902,1.501167,1378.432
903,1.502833,1374.707
904,1.5045,1371.577
905,1.506167,1371.577
906,1.507833,1370.832
907,1.5095,1370.609
908,1.511167,1369.715
909,1.512833,1369.715
910,1.5145,1372.695
911,1.516167,1372.322
912,1.517833,1372.322
913,1.5195,1372.62
914,1.521183,1372.77
915,1.522833,1371.577
916,1.52455,1371.577
917,1.526167,1371.205
918,1.527833,1371.056
919,1.5295,1371.056
