"ID","sea_time","fid_signal"
1,0,141.412
2,0.001683,141.39
3,0.003333,141.39
4,0.005,141.3
5,0.006667,141.501
6,0.008333,140.943
7,0.01,140.943
8,0.011667,140.667
9,0.013333,140.049
10,0.015,139.49
11,0.016667,139.49
12,0.018333,139.624
13,0.02,139.669
14,0.021667,139.698
15,0.023333,139.698
16,0.025,139.549
17,0.026667,139.363
18,0.028333,139.363
19,0.03,139.683
20,0.031667,139.728
21,0.033333,139.929
22,0.035067,139.929
23,0.036667,140.227
24,0.038317,139.788
25,0.039983,140.183
26,0.04165,140.183
27,0.043317,140.294
28,0.044983,140.011
29,0.04665,140.376
30,0.048317,140.376
31,0.049983,140.309
32,0.051683,140.473
33,0.053317,140.473
34,0.054983,140.727
35,0.05665,140.585
36,0.058317,140.57
37,0.059983,140.57
38,0.06165,140.19
39,0.063317,140.041
40,0.064983,140.086
41,0.06665,140.086
42,0.06843299999999999,139.967
43,0.069983,140.131
44,0.07165000000000001,140.145
45,0.07331699999999999,140.145
46,0.07498299999999999,140.175
47,0.07665,140.175
48,0.078317,140.175
49,0.079983,140.25
50,0.08165,140.563
51,0.083317,140.369
52,0.084983,140.369
53,0.08665,140.689
54,0.08831700000000001,140.466
55,0.08998299999999999,140.391
56,0.09165,140.391
57,0.093317,140.555
58,0.094983,140.466
59,0.09665,140.756
60,0.0983,140.756
61,0.099967,140.607
62,0.101633,140.771
63,0.1033,140.868
64,0.104967,140.868
65,0.106633,140.697
66,0.1083,140.704
67,0.109967,140.704
68,0.111633,140.451
69,0.1133,140.376
70,0.114967,140.51
71,0.116633,140.51
72,0.118317,140.54
73,0.119983,140.488
74,0.121633,140.093
75,0.1233,140.093
76,0.124967,140.034
77,0.126633,139.825
78,0.1283,140.205
79,0.129967,140.205
80,0.131633,140.548
81,0.1333,140.607
82,0.134967,140.607
83,0.136633,140.786
84,0.1383,140.436
85,0.139967,140.317
86,0.141633,140.317
87,0.1433,140.123
88,0.144967,139.855
89,0.146633,139.959
90,0.1483,139.959
91,0.149967,139.982
92,0.151633,140.294
93,0.1533,140.481
94,0.154967,140.481
95,0.156633,140.339
96,0.158283,140.294
97,0.15995,140.101
98,0.161617,140.101
99,0.163283,140.145
100,0.16495,140.607
101,0.166617,140.607
102,0.168283,140.816
103,0.16995,141.025
104,0.171617,141.092
105,0.173283,141.092
106,0.17495,141.069
107,0.176617,140.972
108,0.178283,140.764
109,0.17995,140.764
110,0.181617,140.66
111,0.183283,140.384
112,0.18495,140.429
113,0.186733,140.429
114,0.188283,140.16
115,0.18995,139.944
116,0.191617,139.944
117,0.193283,139.84
118,0.195,139.654
119,0.196617,140.063
120,0.198317,140.063
121,0.19995,140.28
122,0.201617,140.302
123,0.203283,140.555
124,0.20495,140.555
125,0.206617,140.198
126,0.208283,140.436
127,0.20995,140.503
128,0.211617,140.503
129,0.213283,140.689
130,0.21495,140.958
131,0.216617,141.025
132,0.218267,141.025
133,0.219933,141.062
134,0.2216,140.674
135,0.223267,140.674
136,0.224933,140.667
137,0.2266,140.458
138,0.228267,140.123
139,0.22995,140.123
140,0.2316,140.287
141,0.233267,140.28
142,0.234933,140.399
143,0.2366,140.399
144,0.238267,141.039
145,0.239933,140.876
146,0.2416,140.764
147,0.243267,140.764
148,0.244933,140.391
149,0.2466,140.011
150,0.248267,140.011
151,0.249933,140.198
152,0.2516,140.637
153,0.253267,141.136
154,0.254933,141.136
155,0.2566,141.442
156,0.258267,142.03
157,0.259933,142.47
158,0.2616,142.47
159,0.2633,143.379
160,0.264933,144.541
161,0.266617,145.994
162,0.268267,145.994
163,0.269933,148.296
164,0.271667,150.8
165,0.27325,150.8
166,0.274917,154.376
167,0.276583,158.496
168,0.278233,163.108
169,0.2799,163.108
170,0.281567,169.039
171,0.283233,175.178
172,0.2849,182.189
173,0.286567,182.189
174,0.288233,190.303
175,0.2899,199.281
176,0.291567,209.764
177,0.293233,209.764
178,0.2949,221.379
179,0.296567,233.948
180,0.298233,247.56
181,0.2999,247.56
182,0.301567,262.499
183,0.303233,278.421
184,0.305,295.9
185,0.306567,295.9
186,0.308233,314.809
187,0.3099,334.881
188,0.311567,334.881
189,0.313233,356.682
190,0.3149,379.562
191,0.316567,403.97
192,0.318233,403.97
193,0.3199,430.048
194,0.321567,457.957
195,0.323233,487.722
196,0.3249,487.722
197,0.326567,519.3579999999999
198,0.328233,553.206
199,0.3299,553.206
200,0.331567,588.924
201,0.333233,627.235
202,0.3349,667.7430000000001
203,0.33655,667.7430000000001
204,0.338217,710.86
205,0.339883,756.986
206,0.34155,806.302
207,0.343217,806.302
208,0.34495,859.059
209,0.34655,915.49
210,0.348217,976.3390000000001
211,0.349883,976.3390000000001
212,0.35155,1041.889
213,0.353217,1113.497
214,0.354883,1191.646
215,0.35655,1191.646
216,0.358217,1277.514
217,0.359883,1372.024
218,0.36155,1372.024
219,0.363217,1475.453
220,0.364883,1588.039
221,0.36655,1708.813
222,0.368217,1708.813
223,0.369883,1835.853
224,0.37155,1967.445
225,0.373217,2100.408
226,0.374883,2100.408
227,0.37655,2231.292
228,0.378217,2357.602
229,0.379883,2475.217
230,0.38155,2475.217
231,0.383217,2581.127
232,0.384883,2673.179
233,0.38655,2673.179
234,0.388217,2749.219
235,0.389883,2808.958
236,0.39155,2852.261
237,0.393217,2852.261
238,0.394883,2878.74
239,0.39655,2889.544
240,0.3982,2885.327
241,0.399867,2885.327
242,0.401533,2867.579
243,0.4032,2838.977
244,0.404883,2800.167
245,0.406533,2800.167
246,0.4082,2753.235
247,0.409867,2699.584
248,0.411533,2639.882
249,0.4132,2639.882
250,0.414867,2575.643
251,0.416533,2507.888
252,0.4182,2507.888
253,0.419867,2437.495
254,0.421533,2365.723
255,0.423267,2293.393
256,0.424867,2293.393
257,0.426533,2220.772
258,0.4282,2148.919
259,0.429867,2077.58
260,0.431533,2077.58
261,0.4332,2007.082
262,0.434867,1938.321
263,0.436533,1870.476
264,0.4382,1870.476
265,0.439867,1804.94
266,0.441533,1741.476
267,0.4432,1741.476
268,0.444867,1679.391
269,0.446533,1619.808
270,0.4482,1562.052
271,0.449867,1562.052
272,0.451533,1506.016
273,0.4532,1452.23
274,0.454867,1400.813
275,0.456533,1400.813
276,0.458183,1350.82
277,0.45985,1303.025
278,0.461517,1257.39
279,0.463183,1257.39
280,0.46485,1213.484
281,0.466517,1171.403
282,0.468183,1171.403
283,0.46985,1131.535
284,0.471517,1093.082
285,0.473183,1056.083
286,0.47485,1056.083
287,0.476517,1020.879
288,0.478183,986.926
289,0.47985,954.308
290,0.481533,954.308
291,0.483233,923.1420000000001
292,0.48485,893.22
293,0.486517,864.61
294,0.488183,864.61
295,0.48985,837.259
296,0.491517,811.279
297,0.493183,786.4829999999999
298,0.49485,786.4829999999999
299,0.496517,763.074
300,0.498183,740.655
301,0.49985,740.655
302,0.501517,718.653
303,0.503183,697.434
304,0.50485,676.5650000000001
305,0.506517,676.5650000000001
306,0.5082,657.149
307,0.50985,638.381
308,0.511517,620.8200000000001
309,0.5131829999999999,620.8200000000001
310,0.51485,604.384
311,0.516517,587.933
312,0.518167,572.801
313,0.519833,572.801
314,0.5215,558.302
315,0.523167,543.654
316,0.52495,529.833
317,0.5265,529.833
318,0.5281670000000001,516.362
319,0.529833,503.115
320,0.5315,503.115
321,0.5331669999999999,490.606
322,0.534833,478.618
323,0.5365,467.084
324,0.538167,467.084
325,0.539833,456.162
326,0.541617,445.947
327,0.543167,435.822
328,0.544833,435.822
329,0.5465,426.009
330,0.548167,416.167
331,0.549833,406.995
332,0.5515,406.995
333,0.553167,398.234
334,0.554833,390.075
335,0.5565,390.075
336,0.558167,382.699
337,0.55985,374.749
338,0.56155,367.18
339,0.563167,367.18
340,0.564817,360.154
341,0.566483,352.688
342,0.56815,346.504
343,0.569817,346.504
344,0.571483,340.514
345,0.57315,334.434
346,0.574817,328.571
347,0.576467,328.571
348,0.578133,322.476
349,0.579817,316.903
350,0.581467,316.903
351,0.583133,311.144
352,0.5848,306.308
353,0.586467,301.413
354,0.588133,301.413
355,0.5898,296.496
356,0.591467,291.884
357,0.593133,287.361
358,0.5948,287.361
359,0.596467,283.264
360,0.598133,279.225
361,0.5998,275.426
362,0.601467,275.426
363,0.603133,271.492
364,0.6048,267.588
365,0.606467,264.22
366,0.608133,264.22
367,0.6098,260.748
368,0.611467,257.209
369,0.613133,257.209
370,0.6148,254.035
371,0.616467,250.608
372,0.618133,247.501
373,0.6198,247.501
374,0.621467,244.647
375,0.623133,241.756
376,0.624817,238.985
377,0.6265500000000001,238.985
378,0.6281330000000001,236.213
379,0.6298,233.665
380,0.631467,231.124
381,0.6331329999999999,231.124
382,0.6348,228.345
383,0.63645,225.984
384,0.638117,225.984
385,0.639783,223.473
386,0.64145,221.394
387,0.6432,219.494
388,0.644783,219.494
389,0.64645,217.192
390,0.6481170000000001,215.329
391,0.649783,213.347
392,0.65145,213.347
393,0.6531169999999999,211.09
394,0.654783,209.376
395,0.65645,207.677
396,0.658117,207.677
397,0.659883,205.576
398,0.66145,204.563
399,0.663117,204.563
400,0.664783,203.066
401,0.66645,201.68
402,0.668117,200.294
403,0.669783,200.294
404,0.67145,198.67
405,0.673117,196.978
406,0.674783,195.339
407,0.67645,195.339
408,0.678117,193.834
409,0.679783,192.225
410,0.68145,191.197
411,0.683117,191.197
412,0.684783,189.818
413,0.68645,189.14
414,0.688117,188.38
415,0.689783,188.38
416,0.69145,187.099
417,0.693117,185.698
418,0.694783,185.698
419,0.69645,184.141
420,0.6981000000000001,182.837
421,0.6998,181.787
422,0.701483,181.787
423,0.7030999999999999,181.347
424,0.704767,180.557
425,0.706433,179.492
426,0.7081,179.492
427,0.709767,178.449
428,0.711433,177.786
429,0.7131,176.832
430,0.714767,176.832
431,0.716433,176.042
432,0.7181,175.335
433,0.7198,174.388
434,0.721433,174.388
435,0.7231,173.643
436,0.7247670000000001,173.017
437,0.726433,173.017
438,0.7281,172.198
439,0.7297670000000001,170.946
440,0.731433,170.693
441,0.7331,170.693
442,0.7347669999999999,169.992
443,0.736433,169.605
444,0.7381,169.545
445,0.739767,169.545
446,0.741433,168.428
447,0.7431,167.713
448,0.744817,166.796
449,0.746433,166.796
450,0.7481,165.865
451,0.749767,165.418
452,0.751433,165.418
453,0.7531,165.202
454,0.754767,165.232
455,0.756433,164.703
456,0.758083,164.703
457,0.75975,164.069
458,0.761467,163.428
459,0.763083,162.624
460,0.76475,162.624
461,0.766417,162.333
462,0.768117,162.043
463,0.76975,161.573
464,0.771417,161.573
465,0.773083,161.208
466,0.77475,160.649
467,0.776417,160.649
468,0.77815,160.292
469,0.7797500000000001,160.031
470,0.781417,159.413
471,0.783083,159.413
472,0.7847499999999999,159.413
473,0.786417,159.07
474,0.788083,158.623
475,0.78975,158.623
476,0.791417,158.444
477,0.793083,158.072
478,0.7948499999999999,157.371
479,0.796417,157.371
480,0.798083,156.857
481,0.79975,156.35
482,0.801417,155.747
483,0.803083,155.747
484,0.80475,155.993
485,0.8064170000000001,156.179
486,0.808083,156.179
487,0.809783,156.201
488,0.8114170000000001,156.328
489,0.813083,155.628
490,0.81475,155.628
491,0.8164169999999999,155.047
492,0.818067,154.674
493,0.819733,154.197
494,0.8214,154.197
495,0.823067,154.115
496,0.824733,154.056
497,0.8264,154.123
498,0.828067,154.123
499,0.8297330000000001,153.743
500,0.8314,153.638
501,0.833067,153.638
502,0.8347329999999999,153.184
503,0.8364,153.117
504,0.838067,153.288
505,0.83975,153.288
506,0.8414,152.998
507,0.843067,153.057
508,0.844733,152.387
509,0.8464,152.387
510,0.848067,151.895
511,0.849733,151.493
512,0.8514,151.135
513,0.853067,151.135
514,0.854733,150.874
515,0.856383,150.777
516,0.85805,150.777
517,0.859717,150.874
518,0.861383,150.755
519,0.86305,150.882
520,0.864717,150.882
521,0.866383,150.762
522,0.86805,150.867
523,0.869717,150.777
524,0.871383,150.777
525,0.87305,150.651
526,0.874717,150.39
527,0.876367,150.271
528,0.878033,150.271
529,0.879717,150.256
530,0.881367,149.943
531,0.883033,149.705
532,0.8847,149.705
533,0.886367,149.518
534,0.888033,149.183
535,0.8897,149.183
536,0.891367,149.176
537,0.893033,149.094
538,0.894717,148.43
539,0.89645,148.43
540,0.898033,148.021
541,0.8997000000000001,147.827
542,0.901367,147.663
543,0.903033,147.663
544,0.9046999999999999,147.745
545,0.906367,147.991
546,0.908033,148.185
547,0.9097,148.185
548,0.911367,148.267
549,0.913133,148.214
550,0.9147,148.214
551,0.916367,148.147
552,0.91805,147.894
553,0.9197,147.797
554,0.921367,147.797
555,0.923033,147.983
556,0.9247,147.857
557,0.9263670000000001,147.82
558,0.928033,147.82
559,0.9297,147.507
560,0.9313669999999999,147.395
561,0.933033,147.492
562,0.9347,147.492
563,0.9363669999999999,147.313
564,0.938017,147.462
565,0.939683,147.03
566,0.94135,147.03
567,0.943017,146.523
568,0.9446830000000001,146.605
569,0.94635,146.605
570,0.948017,146.508
571,0.9496830000000001,146.441
572,0.95135,146.613
573,0.953017,146.613
574,0.9546829999999999,146.352
575,0.95635,146.225
576,0.958017,146.374
577,0.959683,146.374
578,0.96135,146.225
579,0.963017,146.18
580,0.964683,145.92
581,0.96635,145.92
582,0.968017,145.86
583,0.969683,145.711
584,0.97135,145.711
585,0.973017,145.517
586,0.974683,145.592
587,0.9763500000000001,145.547
588,0.978033,145.547
589,0.979683,145.584
590,0.9813499999999999,145.674
591,0.983017,145.92
592,0.984717,145.92
593,0.9863499999999999,145.629
594,0.988017,145.42
595,0.989683,145.301
596,0.99135,145.301
597,0.993017,145.137
598,0.994683,145.197
599,0.99635,145.1
600,0.998017,145.1
601,0.999667,145.219
602,1.001333,145.219
603,1.003,145.219
604,1.004667,145.383
605,1.006333,145.823
606,1.008,145.726
607,1.009667,145.726
608,1.011333,145.637
609,1.013,145.547
610,1.014667,145.271
611,1.016333,145.271
612,1.018,144.899
613,1.019667,144.877
614,1.021333,144.802
615,1.023,144.802
616,1.024667,144.869
617,1.026333,145.175
618,1.028,145.175
619,1.029667,145.1
620,1.031433,145.108
621,1.033,144.832
622,1.034667,144.832
623,1.03635,144.407
624,1.038,144.437
625,1.039667,144.742
626,1.041333,144.742
627,1.043,145.122
628,1.044667,145.309
629,1.046333,144.891
630,1.048,144.891
631,1.049667,144.392
632,1.051333,144.087
633,1.053,144.087
634,1.054667,144.012
635,1.056333,144.191
636,1.057983,144.318
637,1.05965,144.318
638,1.061317,144.169
639,1.06305,144.206
640,1.06465,144.258
641,1.066317,144.258
642,1.067983,144.02
643,1.06965,144.124
644,1.071317,144.333
645,1.072983,144.333
646,1.07465,144.139
647,1.076317,144.139
648,1.077983,144.064
649,1.07965,144.064
650,1.081317,143.997
651,1.082983,144.251
652,1.08465,144.251
653,1.086317,144.206
654,1.087983,144.34
655,1.08965,144.295
656,1.091317,144.295
657,1.092983,144.146
658,1.09465,143.953
659,1.096317,143.662
660,1.097983,143.662
661,1.09965,143.26
662,1.101317,142.984
663,1.102983,143.29
664,1.10465,143.29
665,1.106317,143.357
666,1.107983,143.565
667,1.10965,143.565
668,1.111317,143.886
669,1.112983,143.893
670,1.11465,143.744
671,1.1163,143.744
672,1.117967,143.729
673,1.119633,143.372
674,1.1213,143.193
675,1.122967,143.193
676,1.124633,143.223
677,1.1263,143.17
678,1.127967,143.319
679,1.129633,143.319
680,1.131317,143.364
681,1.133,143.282
682,1.134633,143.215
683,1.1363,143.215
684,1.137967,143.506
685,1.139633,143.476
686,1.1413,143.476
687,1.142967,143.565
688,1.144633,143.655
689,1.1463,143.513
690,1.14795,143.513
691,1.149717,143.297
692,1.151283,143.297
693,1.15295,143.036
694,1.154617,143.036
695,1.156283,142.895
696,1.15795,142.895
697,1.159617,143.133
698,1.161283,143.133
699,1.16295,143.483
700,1.164617,143.386
701,1.166283,143.386
702,1.16795,143.528
703,1.169617,143.319
704,1.171283,143.17
705,1.17295,143.17
706,1.174617,143.237
707,1.176267,142.969
708,1.177933,143.066
709,1.1796,143.066
710,1.181267,142.924
711,1.182933,143.141
712,1.1846,143.379
713,1.186267,143.379
714,1.187933,143.327
715,1.1896,143.617
716,1.191267,143.491
717,1.192933,143.491
718,1.1946,143.416
719,1.196267,143.088
720,1.197933,143.088
721,1.1996,142.85
722,1.201267,142.828
723,1.202933,142.79
724,1.2046,142.79
725,1.206267,142.843
726,1.207933,142.783
727,1.2096,142.664
728,1.211283,142.664
729,1.212933,142.91
730,1.2146,143.036
731,1.216267,142.82
732,1.217933,142.82
733,1.2196,142.783
734,1.221267,142.44
735,1.222933,142.44
736,1.2246,142.291
737,1.226267,142.507
738,1.227933,142.492
739,1.2296,142.492
740,1.231267,142.619
741,1.232933,142.664
742,1.23465,142.664
743,1.236267,142.664
744,1.237917,142.552
745,1.239583,142.388
746,1.24125,142.44
747,1.242917,142.44
748,1.244583,142.343
749,1.24625,142.507
750,1.247917,142.507
751,1.249583,142.671
752,1.25125,142.753
753,1.252917,142.85
754,1.254583,142.85
755,1.25625,142.5
756,1.257917,142.448
757,1.259583,142.388
758,1.26125,142.388
759,1.262917,142.448
760,1.264583,142.686
761,1.26625,142.604
762,1.267983,142.604
763,1.269583,142.545
764,1.27125,142.545
765,1.272917,142.753
766,1.274583,142.753
767,1.27625,142.984
768,1.277917,142.947
769,1.2796,142.947
770,1.28125,142.999
771,1.28295,142.761
772,1.284583,142.455
773,1.28625,142.455
774,1.287917,142.641
775,1.289583,142.507
776,1.29125,142.314
777,1.292917,142.314
778,1.294583,142.314
779,1.29625,142.239
780,1.2979,142.366
781,1.299567,142.366
782,1.301233,142.604
783,1.3029,142.686
784,1.304567,142.686
785,1.306233,142.433
786,1.3079,142.165
787,1.309567,142.075
788,1.311233,142.075
789,1.3129,142.023
790,1.314567,142.105
791,1.316233,142.157
792,1.3179,142.157
793,1.319567,142.425
794,1.321233,142.619
795,1.3229,142.783
796,1.324567,142.783
797,1.326233,142.634
798,1.3279,142.343
799,1.329567,142.291
800,1.331233,142.291
801,1.3329,141.986
802,1.334567,141.971
803,1.336233,141.971
804,1.3379,141.785
805,1.339567,141.494
806,1.341233,141.442
807,1.3429,141.442
808,1.344567,141.777
809,1.346233,141.956
810,1.3479,142.232
811,1.349583,142.232
812,1.35125,142.254
813,1.35295,142.06
814,1.354567,142.142
815,1.356233,142.142
816,1.357883,142.246
817,1.35955,142.671
818,1.361217,142.671
819,1.362883,142.82
820,1.36455,142.865
821,1.366217,142.723
822,1.367883,142.723
823,1.36955,142.552
824,1.371217,142.463
825,1.372883,142.336
826,1.37455,142.336
827,1.376217,142.105
828,1.377883,142.15
829,1.37955,141.896
830,1.381217,141.896
831,1.382883,141.896
832,1.38455,142.12
833,1.386317,141.867
834,1.387883,141.867
835,1.38955,141.874
836,1.391217,141.874
837,1.392883,141.874
838,1.39455,141.621
839,1.396217,141.74
840,1.397883,142.045
841,1.39955,142.045
842,1.401217,142.105
843,1.402883,142.41
844,1.40455,142.463
845,1.406217,142.463
846,1.407883,142.343
847,1.40955,142.306
848,1.411217,142.321
849,1.412883,142.321
850,1.41455,142.194
851,1.416217,142.038
852,1.417867,142.038
853,1.419533,141.755
854,1.4212,141.673
855,1.422883,141.889
856,1.42455,141.889
857,1.4262,142.127
858,1.427867,142.15
859,1.429533,142.053
860,1.4312,142.053
861,1.432867,141.852
862,1.434533,141.799
863,1.4362,141.993
864,1.437867,141.993
865,1.439517,141.986
866,1.441183,141.859
867,1.44285,141.859
868,1.444517,141.971
869,1.446183,142.008
870,1.44785,142.045
871,1.449517,142.045
872,1.451183,142.12
873,1.45285,141.844
874,1.454517,141.852
875,1.456183,141.852
876,1.45785,141.896
877,1.459517,141.971
878,1.461183,141.874
879,1.46285,141.874
880,1.464517,142.023
881,1.466183,142.172
882,1.46785,142.194
883,1.469517,142.194
884,1.47125,142.403
885,1.47285,142.105
886,1.474517,142.105
887,1.476183,141.844
888,1.477833,141.777
889,1.4795,141.77
890,1.481167,141.77
891,1.482833,141.762
892,1.4845,141.978
893,1.486167,141.785
894,1.4879,141.785
895,1.4895,141.755
896,1.491217,141.568
897,1.492833,141.293
898,1.4945,141.293
899,1.496167,141.479
900,1.497833,141.248
901,1.4995,141.248
902,1.501167,141.449
903,1.502833,141.397
904,1.504533,141.323
905,1.506167,141.323
906,1.507833,141.338
907,1.5095,141.077
908,1.511167,140.987
909,1.512833,140.987
910,1.5145,141.025
911,1.516167,141.181
912,1.517833,141.412
913,1.5195,141.412
914,1.521267,141.412
915,1.522833,141.375
916,1.5245,141.338
917,1.526167,141.338
918,1.527833,141.509
919,1.5295,141.963
920,1.531167,141.963
921,1.532833,142.12
922,1.5345,142.381
923,1.53615,142.045
924,1.537817,142.045
925,1.539483,141.777
926,1.54115,141.986
927,1.542817,141.963
928,1.544483,141.963
929,1.54615,142.217
930,1.547817,142.425
931,1.549483,142.254
932,1.55115,142.254
933,1.552817,141.844
934,1.554483,141.636
935,1.55615,141.636
936,1.557817,141.405
937,1.559483,141.293
938,1.56115,141.539
939,1.562833,141.539
940,1.5645,141.658
941,1.56615,141.822
942,1.567817,141.725
943,1.569483,141.725
944,1.57115,141.889
945,1.572817,141.665
946,1.574483,141.487
947,1.57615,141.487
948,1.577817,141.792
949,1.579483,141.554
950,1.58115,141.613
951,1.582817,141.613
952,1.584483,141.658
953,1.58615,141.308
954,1.587817,141.308
955,1.589483,141.598
956,1.59115,141.896
957,1.592817,141.941
