"ID","sea_time","fid_signal"
1,0,139.877
2,0.001667,139.795
3,0.003333,139.795
4,0.005,139.788
5,0.006667,139.885
6,0.008333,139.467
7,0.01,139.467
8,0.011667,139.393
9,0.013333,139.244
10,0.015,139.244
11,0.016683,139.445
12,0.018333,139.743
13,0.02,139.907
14,0.021667,139.907
15,0.023333,140.041
16,0.025,139.758
17,0.026667,139.438
18,0.028333,139.438
19,0.03,139.296
20,0.031667,139.482
21,0.033333,139.557
22,0.035,139.557
23,0.036667,139.974
24,0.038333,140.235
25,0.040033,140.212
26,0.04165,140.212
27,0.043317,140.361
28,0.044983,140.339
29,0.04665,140.339
30,0.048317,140.242
31,0.050017,140.294
32,0.05165,140.458
33,0.053317,140.458
34,0.054983,140.272
35,0.056733,140.332
36,0.058317,140.026
37,0.059983,140.026
38,0.06165,139.721
39,0.063317,139.609
40,0.064983,139.624
41,0.06665,139.624
42,0.0683,139.557
43,0.069967,139.602
44,0.071633,139.602
45,0.07340000000000001,139.497
46,0.07496700000000001,139.304
47,0.07663300000000001,139.393
48,0.07829999999999999,139.393
49,0.079967,139.363
50,0.081633,139.728
51,0.0833,139.855
52,0.084967,139.855
53,0.086633,140.242
54,0.0883,140.287
55,0.08996700000000001,140.451
56,0.09163300000000001,140.451
57,0.09329999999999999,140.607
58,0.094967,140.585
59,0.096667,140.637
60,0.0983,140.637
61,0.09995,140.555
62,0.101617,140.525
63,0.103283,140.525
64,0.10495,140.272
65,0.106617,140.391
66,0.108283,140.049
67,0.10995,140.049
68,0.111617,139.676
69,0.113283,139.549
70,0.11495,139.49
71,0.116617,139.49
72,0.118283,139.497
73,0.11995,139.743
74,0.121617,140.011
75,0.123283,140.011
76,0.12495,139.952
77,0.126633,139.922
78,0.128283,139.922
79,0.12995,139.84
80,0.131617,139.847
81,0.133283,139.624
82,0.13495,139.624
83,0.136617,139.527
84,0.1383,139.758
85,0.13995,139.631
86,0.141617,139.631
87,0.143283,139.706
88,0.14495,140.086
89,0.146617,139.9
90,0.148283,139.9
91,0.14995,140.116
92,0.151617,140.138
93,0.153283,140.138
94,0.15495,139.862
95,0.156617,139.691
96,0.1583,139.289
97,0.159933,139.289
98,0.1616,139.542
99,0.163267,139.885
100,0.164967,139.967
101,0.1666,139.967
102,0.168267,140.063
103,0.169933,140.086
104,0.1716,140.108
105,0.173267,140.108
106,0.174983,140.093
107,0.1766,140.101
108,0.178267,139.855
109,0.179933,139.855
110,0.1816,139.654
111,0.183267,139.579
112,0.184933,139.579
113,0.1866,139.572
114,0.188267,139.393
115,0.189933,139.408
116,0.191667,139.408
117,0.193267,139.482
118,0.194933,139.497
119,0.1966,139.862
120,0.198267,139.862
121,0.199933,140.011
122,0.2016,139.959
123,0.203267,140.168
124,0.204933,140.168
125,0.2066,140.175
126,0.208367,139.914
127,0.209933,139.914
128,0.2116,140.101
129,0.213267,139.765
130,0.214933,139.765
131,0.2166,139.765
132,0.21825,139.78
133,0.219917,140.011
134,0.221583,140.309
135,0.22325,140.309
136,0.224917,140.443
137,0.226583,140.689
138,0.22825,140.339
139,0.229917,140.339
140,0.231583,140.265
141,0.2333,139.9
142,0.234917,139.49
143,0.236583,139.49
144,0.23825,139.46
145,0.239917,139.169
146,0.241617,139.169
147,0.24325,139.326
148,0.244917,139.482
149,0.246583,139.445
150,0.24825,139.445
151,0.249917,139.967
152,0.251583,139.9
153,0.25325,139.922
154,0.254917,139.922
155,0.256583,139.989
156,0.25825,139.698
157,0.259917,139.892
158,0.261583,139.892
159,0.26325,139.989
160,0.264917,140.324
161,0.266583,140.324
162,0.26825,140.227
163,0.269917,140.265
164,0.271583,140.011
165,0.27325,140.011
166,0.274917,139.795
167,0.276567,140.138
168,0.27825,140.212
169,0.2799,140.212
170,0.281567,140.436
171,0.283233,140.63
172,0.2849,140.563
173,0.286567,140.563
174,0.288233,140.749
175,0.2899,141.069
176,0.291567,141.181
177,0.2933,141.181
178,0.2949,141.211
179,0.296567,141.375
180,0.298233,141.375
181,0.2999,141.71
182,0.301567,142.165
183,0.303233,142.85
184,0.3049,142.85
185,0.306567,143.133
186,0.308233,143.729
187,0.30995,144.593
188,0.311583,144.593
189,0.31325,146.27
190,0.3149,148.907
191,0.316567,152.029
192,0.318233,152.029
193,0.3199,156.686
194,0.321567,162.02
195,0.323233,162.02
196,0.3249,168.405
197,0.326667,176.05
198,0.328233,184.305
199,0.3299,184.305
200,0.331567,193.156
201,0.333233,202.015
202,0.3349,210.859
203,0.336567,210.859
204,0.338233,219.502
205,0.3399,227.273
206,0.34155,234.053
207,0.343217,234.053
208,0.344883,239.916
209,0.34655,243.902
210,0.348217,246.234
211,0.349883,246.234
212,0.35155,247.344
213,0.353217,246.286
214,0.3549,246.286
215,0.35655,243.947
216,0.358217,240.356
217,0.359867,235.915
218,0.361533,235.915
219,0.3632,230.834
220,0.364867,225.112
221,0.366533,219.196
222,0.3682,219.196
223,0.369867,212.99
224,0.371533,206.858
225,0.3732,201.181
226,0.374867,201.181
227,0.376533,195.816
228,0.3782,190.742
229,0.379867,190.742
230,0.381533,186.011
231,0.3832,181.265
232,0.3849,177.123
233,0.38655,177.123
234,0.3882,173.576
235,0.389867,170.387
236,0.391533,167.787
237,0.3932,167.787
238,0.394867,165.693
239,0.396533,163.54
240,0.398183,161.73
241,0.39985,161.73
242,0.401517,160.009
243,0.403183,158.533
244,0.40485,158.533
245,0.406517,157.148
246,0.408183,155.635
247,0.40985,154.622
248,0.411533,154.622
249,0.413183,153.43
250,0.41485,152.558
251,0.416517,152.059
252,0.418183,152.059
253,0.41985,151.284
254,0.421517,150.748
255,0.423183,150.077
256,0.42485,150.077
257,0.426517,149.734
258,0.4282,149.325
259,0.42985,148.907
260,0.431517,148.907
261,0.433183,148.669
262,0.43485,148.252
263,0.436517,148.252
264,0.438183,148.088
265,0.43985,148.036
266,0.441517,148.214
267,0.443183,148.214
268,0.444967,148.267
269,0.446517,148.162
270,0.448183,147.864
271,0.44985,147.864
272,0.451517,147.328
273,0.453183,147.037
274,0.45485,146.866
275,0.456517,146.866
276,0.458183,147.045
277,0.459833,147.179
278,0.461533,147.179
279,0.463167,147.164
280,0.464833,146.978
281,0.4665,146.613
282,0.468167,146.613
283,0.469833,146.404
284,0.4715,146.21
285,0.473167,146.069
286,0.474833,146.069
287,0.4765,146.165
288,0.478167,146.359
289,0.479833,146.665
290,0.481533,146.665
291,0.483167,146.613
292,0.484833,146.598
293,0.4865,146.471
294,0.488167,146.471
295,0.489833,146.009
296,0.4915,145.927
297,0.493167,145.927
298,0.494833,145.689
299,0.4965,145.324
300,0.498167,145.197
301,0.499833,145.197
302,0.5014999999999999,145.45
303,0.503167,145.361
304,0.504833,145.517
305,0.5065,145.517
306,0.508167,145.473
307,0.509833,145.294
308,0.5115,145.234
309,0.513167,145.234
310,0.514833,144.891
311,0.5165,144.72
312,0.518167,144.72
313,0.519817,144.4
314,0.521483,144.303
315,0.52315,144.504
316,0.524817,144.504
317,0.526483,144.646
318,0.528183,144.929
319,0.5299,144.631
320,0.531483,144.631
321,0.53315,144.28
322,0.534817,144.422
323,0.536483,144.444
324,0.53815,144.444
325,0.539817,144.862
326,0.541483,144.742
327,0.54315,144.221
328,0.544817,144.221
329,0.5464830000000001,143.945
330,0.54815,143.476
331,0.549817,143.476
332,0.5514829999999999,143.476
333,0.55315,143.528
334,0.554817,143.342
335,0.5564829999999999,143.342
336,0.55815,143.23
337,0.559817,143.342
338,0.561483,143.468
339,0.563267,143.468
340,0.564817,143.364
341,0.566483,143.602
342,0.56815,143.446
343,0.569833,143.446
344,0.571483,143.17
345,0.57315,143.141
346,0.574817,143.141
347,0.576483,142.88
348,0.5781500000000001,142.813
349,0.5798,142.716
350,0.581467,142.716
351,0.583133,142.962
352,0.5848,143.088
353,0.586467,143.044
354,0.588133,143.044
355,0.5898,143.051
356,0.591467,142.857
357,0.593133,142.82
358,0.5948,142.82
359,0.596467,142.962
360,0.598133,143.044
361,0.599817,142.768
362,0.601467,142.768
363,0.603133,142.649
364,0.6048,142.351
365,0.606467,142.351
366,0.608133,142.336
367,0.6098,142.284
368,0.611467,142.12
369,0.613133,142.12
370,0.6148,142.09
371,0.616467,141.829
372,0.618133,142.075
373,0.6198,142.075
374,0.621467,142.433
375,0.623133,142.775
376,0.6248,143.051
377,0.626467,143.051
378,0.6281330000000001,142.79
379,0.6298,142.373
380,0.631467,142.373
381,0.6331329999999999,141.889
382,0.6348,141.889
383,0.636467,142.194
384,0.638117,142.194
385,0.639783,142.485
386,0.64145,142.5
387,0.643117,142.172
388,0.644783,142.172
389,0.64645,142.075
390,0.648183,141.777
391,0.649767,141.799
392,0.651467,141.799
393,0.6531,141.785
394,0.654767,141.77
395,0.656433,141.77
396,0.6581,141.956
397,0.659767,142.179
398,0.661433,142.358
399,0.6631,142.358
400,0.6647999999999999,142.276
401,0.6664330000000001,142.202
402,0.6681,142.165
403,0.669767,142.165
404,0.6714329999999999,142.097
405,0.673133,141.837
406,0.674767,141.717
407,0.676433,141.717
408,0.6781,141.65
409,0.679767,141.606
410,0.68155,141.725
411,0.6831,141.725
412,0.684767,141.919
413,0.686433,141.896
414,0.6881,141.896
415,0.689767,141.725
416,0.691433,141.606
417,0.6931,141.419
418,0.694767,141.419
419,0.696433,141.256
420,0.6981000000000001,141.27
421,0.69975,141.077
422,0.701417,141.077
423,0.703083,140.972
424,0.704767,141.136
425,0.706417,141.419
426,0.708083,141.419
427,0.70975,141.628
428,0.711417,141.859
429,0.713083,141.859
430,0.71475,141.717
431,0.716417,141.755
432,0.718083,141.814
433,0.71975,141.814
434,0.721417,141.643
435,0.723083,141.449
436,0.72475,141.263
437,0.726417,141.263
438,0.728083,141.233
439,0.72975,141.397
440,0.731417,141.501
441,0.733083,141.501
442,0.73475,141.658
443,0.736417,141.665
444,0.7381,141.352
445,0.73975,141.352
446,0.741417,141.487
447,0.743083,141.256
448,0.74475,141.256
449,0.746417,141.472
450,0.7480830000000001,141.74
451,0.74975,141.658
452,0.751433,141.658
453,0.7530829999999999,141.561
454,0.75475,141.308
455,0.756417,141.114
456,0.758083,141.114
457,0.759733,141.121
458,0.7614,141.479
459,0.7630670000000001,141.643
460,0.764733,141.643
461,0.766467,141.971
462,0.7680670000000001,142.053
463,0.769733,142.053
464,0.7714,142.03
465,0.7730669999999999,142.127
466,0.774733,142.127
467,0.7764,142.127
468,0.778067,141.993
469,0.779733,141.77
470,0.7814,141.703
471,0.783067,141.703
472,0.784733,141.755
473,0.7864,142.075
474,0.788067,142.291
475,0.789733,142.291
476,0.7914,142.515
477,0.793067,142.239
478,0.794733,142.239
479,0.7964,142.06
480,0.798067,142.254
481,0.799833,142.388
482,0.8014,142.388
483,0.803067,142.731
484,0.804733,142.992
485,0.8064,142.612
486,0.808067,142.612
487,0.809733,142.276
488,0.8114,142.187
489,0.813067,142.12
490,0.814733,142.12
491,0.8164,142.358
492,0.818067,142.82
493,0.819717,143.051
494,0.821383,143.051
495,0.8230499999999999,143.215
496,0.824717,143.602
497,0.826383,143.602
498,0.82805,143.327
499,0.8297330000000001,143.193
500,0.83145,143.386
501,0.83305,143.386
502,0.834717,143.625
503,0.836383,143.811
504,0.83805,143.997
505,0.839717,143.997
506,0.841383,143.833
507,0.84305,143.424
508,0.8447170000000001,143.796
509,0.846383,143.796
510,0.84805,144.079
511,0.8497169999999999,144.601
512,0.851383,144.601
513,0.85305,144.944
514,0.8547169999999999,144.78
515,0.856383,144.787
516,0.85805,144.787
517,0.859717,144.698
518,0.861383,144.854
519,0.86305,145.108
520,0.864717,145.108
521,0.866383,145.361
522,0.86805,145.644
523,0.869717,146.016
524,0.871383,146.016
525,0.87305,146.456
526,0.874717,146.754
527,0.876383,147.149
528,0.87805,147.149
529,0.8797,147.529
530,0.881367,147.648
531,0.883033,147.648
532,0.884733,147.931
533,0.886367,148.244
534,0.888033,148.848
535,0.8897,148.848
536,0.891367,149.578
537,0.893033,150.077
538,0.8947000000000001,150.606
539,0.896383,150.606
540,0.898033,150.8
541,0.8997000000000001,151.128
542,0.901467,151.835
543,0.903033,151.835
544,0.9046999999999999,152.558
545,0.906367,153.065
546,0.908033,153.065
547,0.9097,153.773
548,0.911367,154.234
549,0.913033,154.577
550,0.9147,154.577
551,0.916367,155.292
552,0.918133,156.112
553,0.9197,156.984
554,0.921367,156.984
555,0.923033,157.796
556,0.9247,158.504
557,0.9263670000000001,159.122
558,0.928033,159.122
559,0.9297,160.001
560,0.9313669999999999,161.007
561,0.933033,162.251
562,0.9348,162.251
563,0.9363669999999999,163.25
564,0.938033,164.464
565,0.939683,164.464
566,0.941333,165.716
567,0.9429999999999999,166.684
568,0.944667,167.966
569,0.946333,167.966
570,0.948,169.18
571,0.949667,170.268
572,0.951333,171.542
573,0.953,171.542
574,0.954667,172.757
575,0.956333,173.964
576,0.958,175.312
577,0.959667,175.312
578,0.961333,176.758
579,0.963,178.27
580,0.9646670000000001,178.27
581,0.966333,179.544
582,0.968033,180.818
583,0.9696669999999999,182.48
584,0.971367,182.48
585,0.973,183.873
586,0.974667,185.356
587,0.976333,187.092
588,0.978,187.092
589,0.979667,188.373
590,0.981333,189.93
591,0.983,191.748
592,0.984667,191.748
593,0.986333,193.67
594,0.988,195.704
595,0.989667,195.704
596,0.991333,197.761
597,0.993,199.407
598,0.994667,201.106
599,0.996333,201.106
600,0.997983,202.775
601,0.99965,204.526
602,1.001317,206.545
603,1.003017,206.545
604,1.00465,208.601
605,1.006317,210.457
606,1.007983,212.461
607,1.00965,212.461
608,1.011317,214.398
609,1.012983,216.305
610,1.01465,218.444
611,1.016317,218.444
612,1.017983,220.619
613,1.0197,222.854
614,1.021317,222.854
615,1.022983,225.008
616,1.02465,227.153
617,1.026317,229.336
618,1.027983,229.336
619,1.02965,231.385
620,1.031317,233.412
621,1.032983,235.833
622,1.03465,235.833
623,1.0364,238.203
624,1.037983,240.691
625,1.039667,243.321
626,1.041367,243.321
627,1.042983,245.243
628,1.04465,247.099
629,1.046317,247.099
630,1.047983,249.274
631,1.04965,251.204
632,1.051317,253.804
633,1.0531,253.804
634,1.05465,256.151
635,1.056317,258.319
636,1.057967,260.83
637,1.059633,260.83
638,1.0613,263.043
639,1.062967,265.434
640,1.064633,267.811
641,1.0663,267.811
642,1.067967,270.076
643,1.069633,272.125
644,1.0713,274.114
645,1.072967,274.114
646,1.074633,276.096
647,1.0763,277.989
648,1.077967,277.989
649,1.079633,280.187
650,1.0813,282.548
651,1.082967,284.791
652,1.084633,284.791
653,1.0863,286.728
654,1.087967,288.866
655,1.089633,290.93
656,1.0913,290.93
657,1.092967,292.897
658,1.094633,294.939
659,1.0963,296.704
660,1.097967,296.704
661,1.099633,298.545
662,1.1013,300.303
663,1.102967,300.303
664,1.104633,302.263
665,1.1063,304.259
666,1.107967,306.353
667,1.109633,306.353
668,1.1113,308.327
669,1.112967,310.399
670,1.114633,312.299
671,1.1163,312.299
672,1.11795,313.684
673,1.119617,315.599
674,1.1213,317.186
675,1.12295,317.186
676,1.124617,318.788
677,1.126283,320.733
678,1.12795,322.446
679,1.129617,322.446
680,1.131283,324.138
681,1.13295,325.777
682,1.134617,325.777
683,1.136283,327.364
684,1.137983,328.869
685,1.139617,330.679
686,1.141283,330.679
687,1.14295,332.37
688,1.144617,333.726
689,1.146283,335.127
690,1.14795,335.127
691,1.149617,336.222
692,1.151283,337.534
693,1.15295,338.703
694,1.154667,338.703
695,1.156283,339.761
696,1.15795,340.976
697,1.159617,340.976
698,1.1613,342.295
699,1.16295,343.494
700,1.164617,344.612
701,1.166283,344.612
702,1.16795,345.595
703,1.169617,346.698
704,1.171383,347.83
705,1.17295,347.83
706,1.174617,349.253
707,1.176283,350.408
708,1.177933,351.28
709,1.1796,351.28
710,1.181267,352.219
711,1.182933,352.859
712,1.1846,352.859
713,1.186267,353.85
714,1.187933,354.633
715,1.1896,355.557
716,1.191283,355.557
717,1.192967,356.458
718,1.1946,357.188
719,1.196267,358.09
720,1.197933,358.09
721,1.1996,359.111
722,1.201267,359.811
723,1.202933,360.563
724,1.2046,360.563
725,1.206267,360.899
726,1.207933,360.973
727,1.2096,361.644
728,1.211267,361.644
729,1.212933,362.068
730,1.2146,363.007
731,1.216267,363.007
732,1.217933,363.745
733,1.2196,364.184
734,1.221267,364.4
735,1.222933,364.4
736,1.2246,364.572
737,1.226267,364.84
738,1.227933,364.996
739,1.2296,364.996
740,1.231267,365.645
741,1.232917,366.017
742,1.234583,366.397
743,1.236233,366.397
744,1.237917,366.785
745,1.239567,367.075
746,1.241233,367.075
747,1.2429,367.112
748,1.244567,367.381
749,1.246233,367.5
750,1.2479,367.5
751,1.249567,367.671
752,1.251233,367.962
753,1.2529,368.237
754,1.254567,368.237
755,1.25625,368.424
756,1.2579,368.677
757,1.259567,368.752
758,1.261233,368.752
759,1.2629,368.506
760,1.264567,368.588
761,1.266233,368.498
762,1.2679,368.498
763,1.269567,368.476
764,1.271233,368.67
765,1.272933,368.67
766,1.274567,368.804
767,1.276233,368.632
768,1.2779,368.431
769,1.279567,368.431
770,1.281233,368.439
771,1.2829,368.066
772,1.284567,367.88
773,1.286233,367.88
774,1.2879,368.096
775,1.289583,367.738
776,1.291233,367.835
777,1.2929,367.835
778,1.294567,367.694
779,1.296233,367.299
780,1.2979,367.299
781,1.29955,367.5
782,1.301217,367.612
783,1.302883,367.835
784,1.30455,367.835
785,1.306217,367.858
786,1.307883,367.798
787,1.30955,367.574
788,1.311217,367.574
789,1.312883,367.135
790,1.31455,366.777
791,1.316217,366.189
792,1.317883,366.189
793,1.31955,365.652
794,1.321217,365.525
795,1.322883,365.369
796,1.32455,365.369
797,1.326217,365.213
798,1.327883,365.056
799,1.329567,365.056
800,1.331217,364.833
801,1.332917,364.736
802,1.33455,364.706
803,1.336233,364.706
804,1.337883,364.52
805,1.33955,364.326
806,1.341217,364.222
807,1.342883,364.222
808,1.34455,363.983
809,1.346217,363.849
810,1.347883,363.499
811,1.34955,363.499
812,1.351217,362.828
813,1.352883,362.486
814,1.35455,362.486
815,1.356217,361.837
816,1.357867,361.398
817,1.359533,361.271
818,1.3612,361.271
819,1.362867,360.519
820,1.364533,360.191
821,1.3662,359.885
822,1.367867,359.885
823,1.369533,359.692
824,1.3712,359.848
825,1.372867,359.796
826,1.3746,359.796
827,1.3762,359.349
828,1.377867,358.731
829,1.379533,358.731
830,1.3812,358.291
831,1.382867,357.844
832,1.384533,357.702
833,1.3862,357.702
834,1.387867,357.27
835,1.389533,356.555
836,1.391267,356.25
837,1.392867,356.25
838,1.394533,355.884
839,1.3962,355.586
840,1.397867,355.534
841,1.399533,355.534
842,1.4012,355.326
843,1.402867,355.057
844,1.404533,354.722
845,1.4062,354.722
846,1.407983,354.409
847,1.409533,354.104
848,1.4112,354.104
849,1.412867,353.478
850,1.414533,353.083
851,1.4162,352.591
852,1.41785,352.591
853,1.419517,351.831
854,1.421183,351.481
855,1.42285,351.213
856,1.424517,351.213
857,1.426183,350.907
858,1.42785,350.893
859,1.429517,350.513
860,1.431183,350.513
861,1.43285,350.073
862,1.434517,349.715
863,1.436183,349.715
864,1.43785,349.216
865,1.439517,349.008
866,1.441183,349.037
867,1.44285,349.037
868,1.444517,348.851
869,1.446183,348.493
870,1.44785,348.054
871,1.449517,348.054
872,1.451183,347.48
873,1.45285,346.981
874,1.454517,346.795
875,1.456183,346.795
876,1.45785,346.452
877,1.459517,345.819
878,1.461183,345.29
879,1.46285,345.29
880,1.464517,344.761
881,1.466183,344.321
882,1.46785,344.321
883,1.469517,343.949
884,1.471183,343.516
885,1.47285,342.809
886,1.474533,342.809
887,1.4762,342.414
888,1.47785,342.25
889,1.4795,341.87
890,1.481167,341.87
891,1.482833,341.557
892,1.4845,341.184
893,1.486167,340.648
894,1.487833,340.648
895,1.4895,340.454
896,1.491167,340.007
897,1.492883,339.799
898,1.4945,339.799
899,1.496167,339.441
900,1.497833,338.964
901,1.4995,338.964
902,1.501167,338.8
903,1.502833,338.383
904,1.5045,338.323
905,1.506167,338.323
906,1.507833,338.085
907,1.5095,337.951
908,1.511167,337.824
909,1.512833,337.824
910,1.5145,337.206
911,1.516167,336.543
912,1.517833,335.76
913,1.5195,335.76
914,1.521167,335.194
915,1.522833,334.881
916,1.524483,334.881
917,1.526267,334.553
918,1.527817,334.233
919,1.529483,333.868
920,1.53115,333.868
921,1.532817,333.361
922,1.534483,333.197
923,1.53615,333.108
924,1.5378,333.108
925,1.539467,332.75
926,1.541133,332.631
927,1.5428,332.095
928,1.544467,332.095
929,1.546133,331.61
930,1.5478,331.052
931,1.549467,331.052
932,1.55115,330.53
933,1.552867,330.105
934,1.554467,329.815
935,1.556133,329.815
936,1.5578,329.599
937,1.559467,329.1
938,1.561133,328.727
939,1.5628,328.727
940,1.564467,328.131
941,1.566133,327.624
942,1.5678,327.319
943,1.569467,327.319
944,1.571133,327.274
945,1.5728,327.066
946,1.574467,327.066
947,1.576133,326.917
948,1.5778,326.887
949,1.579467,326.477
950,1.581133,326.477
951,1.5828,326.313
952,1.584467,326.045
953,1.586133,325.59
954,1.5878,325.59
955,1.589467,325.248
956,1.591133,324.763
957,1.5928,324.175
958,1.594467,324.175
959,1.596133,323.772
960,1.5978,323.43
961,1.59945,323.214
962,1.601117,323.214
963,1.602783,322.916
964,1.60445,322.603
965,1.606117,322.603
966,1.607783,322.215
967,1.60945,321.768
968,1.611183,321.299
