"ID","sea_time","fid_signal"
1,0,1174.36
2,0.001667,1172.498
3,0.003367,1167.729
4,0.005,1167.729
5,0.006667,1164.675
6,0.008333,1168.4
7,0.01,1172.274
8,0.011667,1172.274
9,0.013333,1174.807
10,0.015,1175.404
11,0.016667,1175.404
12,0.018333,1174.063
13,0.02,1170.263
14,0.021667,1168.102
15,0.023333,1168.102
16,0.025,1168.996
17,0.026667,1167.729
18,0.028317,1171.604
19,0.029983,1171.604
20,0.03165,1172.423
21,0.033317,1173.466
22,0.034983,1177.937
23,0.03665,1177.937
24,0.038317,1174.659
25,0.04005,1176.968
26,0.04165,1176.968
27,0.043317,1176.149
28,0.044983,1174.733
29,0.04665,1174.212
30,0.048317,1174.212
31,0.049983,1172.051
32,0.05165,1172.423
33,0.053317,1168.922
34,0.054983,1168.922
35,0.05665,1169.071
36,0.058317,1166.761
37,0.059983,1162.961
38,0.06165,1162.961
39,0.063417,1166.761
40,0.064983,1164.675
41,0.06665,1171.678
42,0.068317,1171.678
43,0.069983,1174.212
44,0.07165000000000001,1173.019
45,0.07331699999999999,1173.019
46,0.07498299999999999,1173.019
47,0.07665,1167.953
48,0.078317,1167.282
49,0.079983,1167.282
50,0.08165,1171.976
51,0.083317,1175.851
52,0.084983,1176.819
53,0.08665,1176.819
54,0.0883,1179.352
55,0.08996700000000001,1174.435
56,0.09163300000000001,1168.996
57,0.09329999999999999,1168.996
58,0.094983,1167.059
59,0.09668300000000001,1166.91
60,0.0983,1166.91
61,0.099967,1167.953
62,0.101617,1176.074
63,0.103283,1176.223
64,0.10495,1176.223
65,0.106617,1178.086
66,0.108283,1179.874
67,0.10995,1174.36
68,0.111617,1174.36
69,0.1133,1174.51
70,0.11495,1169.667
71,0.116617,1166.388
72,0.118283,1166.388
73,0.11995,1167.357
74,0.121617,1166.239
75,0.123283,1164.228
76,0.12495,1164.228
77,0.126617,1162.44
78,0.128283,1163.632
79,0.12995,1163.632
80,0.131617,1166.835
81,0.133283,1167.506
82,0.13495,1169.741
83,0.136617,1169.741
84,0.138283,1171.604
85,0.13995,1171.827
86,0.141617,1172.349
87,0.143283,1172.349
88,0.14495,1169.443
89,0.146617,1166.165
90,0.148317,1161.546
91,0.14995,1161.546
92,0.1516,1166.761
93,0.153267,1169.89
94,0.154933,1169.89
95,0.1566,1169.369
96,0.158267,1173.839
97,0.159933,1173.541
98,0.1616,1173.541
99,0.163267,1171.827
100,0.164933,1172.87
101,0.1666,1171.678
102,0.168267,1171.678
103,0.169933,1168.922
104,0.1716,1169.89
105,0.173267,1171.902
106,0.174933,1171.902
107,0.1766,1170.039
108,0.178267,1168.773
109,0.179933,1168.177
110,0.181633,1168.177
111,0.183267,1162.887
112,0.184933,1163.855
113,0.1866,1163.855
114,0.188267,1166.761
115,0.189933,1169.667
116,0.191617,1178.16
117,0.193267,1178.16
118,0.194933,1182.407
119,0.1966,1183.972
120,0.198267,1180.843
121,0.199933,1180.843
122,0.2016,1173.019
123,0.203267,1169.071
124,0.204933,1164.153
125,0.2066,1164.153
126,0.20825,1162.067
127,0.209917,1163.557
128,0.211583,1163.557
129,0.21325,1162.663
130,0.214917,1164.004
131,0.216583,1165.494
132,0.21825,1165.494
133,0.219917,1164.526
134,0.221583,1165.792
135,0.22325,1165.122
136,0.224917,1165.122
137,0.226583,1166.91
138,0.22825,1169.443
139,0.229917,1169.145
140,0.231583,1169.145
141,0.23325,1168.922
142,0.234917,1167.58
143,0.236583,1167.58
144,0.23825,1166.09
145,0.239917,1167.282
146,0.241583,1168.475
147,0.24325,1168.475
148,0.244917,1170.933
149,0.246583,1175.106
150,0.24825,1174.212
151,0.249917,1174.212
152,0.251583,1173.839
153,0.25325,1173.466
154,0.25495,1173.094
155,0.256583,1173.094
156,0.25825,1175.329
157,0.259917,1175.553
158,0.261583,1177.117
159,0.26325,1177.117
160,0.264917,1177.117
161,0.266633,1174.137
162,0.268233,1174.137
163,0.2699,1171.231
164,0.271567,1167.655
165,0.273233,1164.675
166,0.2749,1164.675
167,0.276567,1166.984
168,0.278233,1168.549
169,0.2799,1169.145
170,0.281567,1169.145
171,0.283233,1169.145
172,0.2849,1163.93
173,0.286567,1165.792
174,0.288233,1165.792
175,0.2899,1165.196
176,0.291567,1162.365
177,0.293233,1162.365
178,0.2949,1164.898
179,0.296567,1165.271
180,0.298233,1165.643
181,0.300017,1165.643
182,0.301567,1168.4
183,0.303233,1172.349
184,0.3049,1170.635
185,0.306567,1170.635
186,0.308233,1170.859
187,0.3099,1171.678
188,0.311567,1169.369
189,0.313233,1169.369
190,0.3149,1172.2
191,0.316567,1174.51
192,0.318233,1178.086
193,0.3199,1178.086
194,0.321567,1177.043
195,0.323233,1174.063
196,0.3249,1174.063
197,0.326567,1173.541
198,0.328217,1172.498
199,0.329883,1175.553
200,0.331583,1175.553
201,0.333217,1177.937
202,0.334883,1178.607
203,0.33655,1176.67
204,0.338217,1176.67
205,0.339883,1177.117
206,0.34155,1178.086
207,0.343217,1177.564
208,0.344883,1177.564
209,0.34655,1180.246
210,0.348217,1185.164
211,0.349883,1185.164
212,0.35155,1186.43
213,0.353217,1187.921
214,0.354883,1192.614
215,0.35655,1192.614
216,0.358217,1194.179
217,0.359883,1196.712
218,0.36155,1205.802
219,0.363217,1205.802
220,0.364883,1208.633
221,0.36655,1210.272
222,0.368217,1218.468
223,0.369883,1218.468
224,0.37155,1221.821
225,0.373217,1224.13
226,0.374883,1227.558
227,0.37655,1227.558
228,0.378217,1230.985
229,0.379883,1237.094
230,0.38155,1237.094
231,0.383217,1247.749
232,0.3849,1263.618
233,0.386533,1285.225
234,0.3882,1285.225
235,0.389867,1315.177
236,0.391533,1366.213
237,0.393183,1439.676
238,0.39485,1439.676
239,0.396517,1546.964
240,0.398217,1700.893
241,0.39985,1899.6
242,0.401617,1899.6
243,0.403183,2163.5
244,0.404867,2502.725
245,0.406517,2502.725
246,0.408183,2923.235
247,0.40985,3435.537
248,0.411517,4037.768
249,0.413183,4037.768
250,0.41485,4722.849
251,0.416517,5485.118
252,0.418233,6319.731
253,0.41985,6319.731
254,0.421517,7210.747
255,0.423183,8147.806
256,0.42485,9118.84
257,0.426517,9118.84
258,0.428183,10107.085
259,0.42985,11099.503
260,0.431517,11099.503
261,0.433183,12086.63
262,0.43485,13053.119
263,0.436517,13984.665
264,0.438183,13984.665
265,0.43985,14869.124
266,0.441517,15687.868
267,0.443183,16429.797
268,0.44485,16429.797
269,0.446517,17083.436
270,0.448167,17638.43
271,0.449833,18082.484
272,0.4515,18082.484
273,0.453167,18414.781
274,0.454833,18626.973
275,0.4565,18710.643
276,0.458167,18710.643
277,0.459833,18669.664
278,0.4615,18501.58
279,0.463167,18501.58
280,0.464833,18218.756
281,0.4665,17834.604
282,0.468167,17361.566
283,0.469833,17361.566
284,0.47155,16816.258
285,0.473167,16214.028
286,0.474833,15576.184
287,0.4765,15576.184
288,0.478167,14913.604
289,0.479833,14246.776
290,0.4815,13585.463
291,0.483167,13585.463
292,0.484833,12937.039
293,0.4865,12315.661
294,0.488167,12315.661
295,0.489833,11716.857
296,0.491533,11152.104
297,0.493167,10617.896
298,0.494833,10617.896
299,0.4965,10116.025
300,0.498167,9648.352999999999
301,0.499833,9212.196
302,0.5014999999999999,9212.196
303,0.5032,8807.629000000001
304,0.504833,8430.034
305,0.5065,8080.75
306,0.50815,8080.75
307,0.509817,7754.564
308,0.511483,7450.655
309,0.51315,7168.278
310,0.514817,7168.278
311,0.516483,6904.527
312,0.51815,6654.561
313,0.519883,6654.561
314,0.521483,6424.337
315,0.52315,6209.91
316,0.524817,6010.085
317,0.526483,6010.085
318,0.52815,5824.119
319,0.529817,5646.497
320,0.531483,5482.063
321,0.53315,5482.063
322,0.534817,5321.354
323,0.5366,5168.84
324,0.53815,5027.652
325,0.539817,5027.652
326,0.541483,4891.008
327,0.54315,4767.18
328,0.544817,4767.18
329,0.5465,4654.154
330,0.548183,4541.427
331,0.549817,4433.17
332,0.5514829999999999,4433.17
333,0.553267,4331.768
334,0.554817,4234.761
335,0.5564829999999999,4143.491
336,0.55815,4143.491
337,0.559817,4056.32
338,0.561483,3971.458
339,0.56315,3886.819
340,0.564817,3886.819
341,0.5664670000000001,3808.811
342,0.568133,3737.658
343,0.5698,3667.101
344,0.5714669999999999,3667.101
345,0.573133,3600.418
346,0.5748,3534.406
347,0.576467,3534.406
348,0.578133,3470.332
349,0.5798,3409.311
350,0.581467,3351.271
351,0.583133,3351.271
352,0.584833,3296.137
353,0.586467,3241.077
354,0.588133,3193.244
355,0.5898,3193.244
356,0.591467,3143.474
357,0.593133,3098.398
358,0.5948,3055.93
359,0.596467,3055.93
360,0.598133,3010.333
361,0.5998,2968.162
362,0.601467,2968.162
363,0.603133,2924.204
364,0.6048,2882.108
365,0.606483,2845.377
366,0.608133,2845.377
367,0.6098,2810.583
368,0.611467,2776.831
369,0.613133,2740.249
370,0.6148,2740.249
371,0.616483,2702.326
372,0.618133,2670.288
373,0.6198,2638.698
374,0.621467,2638.698
375,0.623133,2612.844
376,0.6248,2587.438
377,0.62645,2587.438
378,0.628117,2556.071
379,0.629783,2530.366
380,0.63145,2501.085
381,0.633117,2501.085
382,0.634783,2474.338
383,0.63645,2450.198
384,0.638117,2422.556
385,0.639783,2422.556
386,0.64145,2400.279
387,0.643117,2376.884
388,0.644783,2355.948
389,0.64645,2355.948
390,0.6481170000000001,2335.236
391,0.649783,2313.927
392,0.65145,2289.787
393,0.6531169999999999,2289.787
394,0.654833,2268.329
395,0.65645,2246.723
396,0.658117,2246.723
397,0.659783,2227.575
398,0.66145,2210.066
399,0.663117,2190.545
400,0.664783,2190.545
401,0.66645,2172.962
402,0.668117,2154.261
403,0.669783,2135.485
404,0.671567,2135.485
405,0.673117,2117.381
406,0.674783,2100.021
407,0.67645,2083.778
408,0.678117,2083.778
409,0.679783,2068.058
410,0.68145,2050.921
411,0.683117,2050.921
412,0.684767,2035.871
413,0.686433,2020.076
414,0.688083,2005.696
415,0.68975,2005.696
416,0.6914169999999999,1994.222
417,0.693083,1981.929
418,0.6948,1970.455
419,0.696417,1970.455
420,0.698083,1959.801
421,0.69975,1949.891
422,0.701417,1939.833
423,0.703083,1939.833
424,0.70475,1928.732
425,0.706417,1916.364
426,0.708083,1901.314
427,0.70975,1901.314
428,0.711417,1883.507
429,0.713083,1871.586
430,0.71475,1871.586
431,0.716417,1859.292
432,0.718083,1847.446
433,0.71975,1838.952
434,0.721417,1838.952
435,0.723083,1830.161
436,0.72475,1820.922
437,0.726417,1815.781
438,0.728083,1815.781
439,0.72975,1808.181
440,0.731417,1797.08
441,0.733083,1787.022
442,0.73475,1787.022
443,0.736417,1775.995
444,0.738083,1765.862
445,0.73975,1765.862
446,0.741417,1757.667
447,0.743083,1748.875
448,0.744733,1741.052
449,0.746417,1741.052
450,0.748067,1735.464
451,0.749767,1727.566
452,0.75145,1721.159
453,0.753067,1721.159
454,0.754733,1711.249
455,0.7564,1702.905
456,0.758067,1692.995
457,0.759733,1692.995
458,0.7614,1685.098
459,0.7631,1677.498
460,0.764733,1671.165
461,0.7664,1671.165
462,0.7680670000000001,1666.62
463,0.769733,1661.927
464,0.7714,1661.927
465,0.7731170000000001,1658.052
466,0.774733,1651.347
467,0.7764,1645.386
468,0.778067,1645.386
469,0.779733,1641.512
470,0.781417,1634.881
471,0.783067,1627.952
472,0.784733,1627.952
473,0.7864,1618.788
474,0.788067,1610.667
475,0.789833,1601.13
476,0.7914,1601.13
477,0.793067,1595.393
478,0.794733,1594.946
479,0.7964,1594.946
480,0.798067,1587.644
481,0.799733,1586.08
482,0.8014,1580.641
483,0.803067,1580.641
484,0.804733,1572.222
485,0.8064,1569.018
486,0.80805,1563.355
487,0.809717,1563.355
488,0.811383,1557.916
489,0.8130500000000001,1554.489
490,0.814717,1544.729
491,0.816383,1544.729
492,0.8180500000000001,1538.172
493,0.819717,1535.639
494,0.821383,1535.639
495,0.8230499999999999,1530.126
496,0.824717,1528.487
497,0.826383,1527.071
498,0.82805,1527.071
499,0.829717,1521.26
500,0.831383,1518.056
501,0.833067,1516.193
502,0.8347329999999999,1516.193
503,0.836417,1509.562
504,0.83805,1508.072
505,0.839717,1503.229
506,0.841383,1503.229
507,0.84305,1501.143
508,0.8447170000000001,1499.206
509,0.846383,1494.438
510,0.84805,1494.438
511,0.8497169999999999,1491.01
512,0.851383,1485.72
513,0.85305,1485.72
514,0.8547169999999999,1484.752
515,0.856383,1482.591
516,0.85805,1478.344
517,0.859717,1478.344
518,0.861383,1478.046
519,0.86305,1475.513
520,0.864717,1471.713
521,0.866383,1471.713
522,0.8680330000000001,1468.509
523,0.8697,1462.102
524,0.871367,1457.632
525,0.8730329999999999,1457.632
526,0.874783,1454.055
527,0.876367,1450.181
528,0.878033,1450.181
529,0.8797,1444.593
530,0.881367,1441.315
531,0.883033,1437.664
532,0.8847,1437.664
533,0.886367,1435.429
534,0.888033,1435.056
535,0.8897,1431.48
536,0.891367,1431.48
537,0.893033,1426.786
538,0.8947000000000001,1425.445
539,0.896367,1420.453
540,0.898033,1420.453
541,0.8997000000000001,1416.653
542,0.901367,1415.834
543,0.903033,1414.716
544,0.9046999999999999,1414.716
545,0.906367,1414.642
546,0.908133,1411.661
547,0.9097,1411.661
548,0.911367,1407.564
549,0.91305,1402.199
550,0.91475,1396.984
551,0.916367,1396.984
552,0.918033,1395.494
553,0.9197,1394.302
554,0.921367,1392.886
555,0.923033,1392.886
556,0.9247,1395.494
557,0.9263670000000001,1393.557
558,0.928017,1390.502
559,0.929683,1390.502
560,0.93135,1387.373
561,0.933017,1382.455
562,0.934683,1382.455
563,0.93635,1384.467
564,0.938017,1381.189
565,0.939683,1377.761
566,0.94135,1377.761
567,0.943017,1371.95
568,0.9446830000000001,1365.319
569,0.94635,1364.201
570,0.948017,1364.201
571,0.9496830000000001,1364.499
572,0.95135,1367.256
573,0.953017,1367.405
574,0.9546829999999999,1367.405
575,0.95635,1364.574
576,0.958017,1362.115
577,0.959683,1361.296
578,0.96135,1361.296
579,0.963017,1358.688
580,0.964683,1361.221
581,0.96635,1361.221
582,0.968017,1362.413
583,0.969683,1359.507
584,0.97135,1356.304
585,0.973017,1356.304
586,0.974667,1353.621
587,0.976333,1349.077
588,0.978,1346.469
589,0.979667,1346.469
590,0.981333,1345.947
591,0.983,1342.073
592,0.984667,1342.595
593,0.986333,1342.595
594,0.9879829999999999,1342.446
595,0.98965,1339.838
596,0.991317,1339.838
597,0.993,1338.422
598,0.99465,1332.462
599,0.996317,1333.207
600,0.997983,1333.207
601,0.99965,1333.728
602,1.001317,1334.324
603,1.002983,1334.474
604,1.00465,1334.474
605,1.006317,1327.097
606,1.007983,1325.905
607,1.00965,1326.278
608,1.011317,1326.278
609,1.012983,1325.16
610,1.01465,1326.948
611,1.016317,1326.948
612,1.017983,1322.925
613,1.01965,1318.753
614,1.021317,1316.443
615,1.022983,1316.443
616,1.02465,1314.878
617,1.026417,1315.847
618,1.027983,1313.314
619,1.02965,1313.314
620,1.031317,1311.153
621,1.032983,1305.044
622,1.03465,1300.275
623,1.036317,1300.275
624,1.037983,1301.542
625,1.03965,1302.063
626,1.041317,1309.961
627,1.042983,1309.961
628,1.04465,1312.494
629,1.046317,1308.769
630,1.047967,1308.769
631,1.049633,1307.204
632,1.0513,1302.51
633,1.052967,1302.213
634,1.054683,1302.213
635,1.05635,1299.456
636,1.058,1298.785
637,1.059633,1295.805
638,1.0613,1295.805
639,1.062967,1297.146
640,1.064633,1298.264
641,1.0663,1297.37
642,1.067967,1297.37
643,1.069633,1297.295
644,1.0713,1290.739
645,1.072967,1290.739
646,1.074633,1291.26
647,1.0763,1292.452
648,1.077967,1289.174
649,1.079633,1289.174
650,1.0813,1289.919
651,1.082967,1287.758
652,1.084633,1287.237
653,1.0863,1287.237
654,1.087967,1287.609
655,1.089633,1284.48
656,1.0913,1282.916
657,1.092967,1282.916
658,1.094633,1281.127
659,1.0963,1280.829
660,1.097967,1277.104
661,1.099633,1277.104
662,1.1013,1278.818
663,1.102967,1276.731
664,1.104633,1276.731
665,1.1063,1273.975
666,1.10795,1279.861
667,1.109617,1277.924
668,1.11135,1277.924
669,1.11295,1276.061
670,1.114617,1272.634
671,1.116283,1268.685
672,1.11795,1268.685
673,1.119617,1264.96
674,1.121333,1265.556
675,1.12295,1268.387
676,1.124617,1268.387
677,1.126283,1267.716
678,1.127967,1266.748
679,1.129617,1266.748
680,1.131283,1264.364
681,1.13295,1263.618
682,1.134617,1264.438
683,1.136283,1264.438
684,1.13795,1265.332
685,1.139617,1266.822
686,1.141283,1267.716
687,1.14295,1267.716
688,1.144717,1263.693
689,1.146283,1264.96
690,1.14795,1262.799
691,1.149617,1262.799
692,1.151283,1262.873
693,1.15295,1262.203
694,1.154617,1262.873
695,1.156283,1262.873
696,1.15795,1264.438
697,1.159617,1262.873
698,1.161283,1262.873
699,1.16295,1261.83
700,1.164617,1254.752
701,1.166267,1251.549
702,1.167933,1251.549
703,1.1696,1251.772
704,1.171267,1251.474
705,1.172933,1254.231
706,1.1746,1254.231
707,1.176267,1254.678
708,1.177933,1255.05
709,1.1796,1257.062
710,1.181267,1257.062
711,1.182933,1254.603
712,1.184617,1253.262
713,1.186267,1253.262
714,1.187933,1251.623
715,1.1896,1251.325
716,1.191267,1255.348
717,1.192933,1255.348
718,1.194617,1257.434
719,1.196267,1255.05
720,1.197933,1253.784
721,1.1996,1253.784
722,1.201267,1251.4
723,1.202933,1247.674
724,1.2046,1245.737
725,1.206267,1245.737
726,1.207933,1244.917
727,1.2096,1246.035
728,1.211283,1244.769
729,1.212933,1244.769
730,1.2146,1244.098
731,1.216267,1242.31
732,1.217933,1242.31
733,1.2196,1240.298
734,1.221267,1241.043
735,1.222933,1244.917
736,1.2246,1244.917
737,1.226267,1246.184
738,1.227917,1246.259
739,1.229633,1245.29
740,1.23125,1245.29
741,1.232917,1242.757
742,1.234583,1242.831
743,1.23625,1238.063
744,1.237917,1238.063
745,1.239583,1238.137
746,1.24125,1235.008
747,1.242917,1235.008
748,1.244583,1232.475
749,1.246333,1235.53
750,1.247917,1235.306
751,1.249583,1235.306
752,1.25125,1236.722
753,1.252917,1234.04
754,1.254583,1231.73
755,1.25625,1231.73
756,1.257917,1228.377
757,1.259583,1227.26
758,1.26125,1226.738
759,1.263033,1226.738
760,1.264583,1228.75
761,1.266233,1229.942
762,1.2679,1229.942
763,1.269567,1230.761
764,1.271233,1234.636
765,1.272917,1232.922
766,1.274567,1232.922
767,1.276233,1232.401
768,1.2779,1231.357
769,1.279567,1230.463
770,1.281233,1230.463
771,1.2829,1232.699
772,1.284567,1231.879
773,1.286233,1232.55
774,1.287883,1232.55
775,1.28955,1230.612
776,1.291217,1227.632
777,1.292883,1228.973
778,1.29455,1228.973
779,1.296217,1224.205
780,1.297883,1223.311
781,1.29955,1223.311
782,1.301217,1220.405
783,1.302883,1217.35
784,1.304567,1223.013
785,1.306217,1223.013
786,1.307883,1220.331
787,1.30955,1221.448
788,1.311217,1221.001
789,1.312883,1221.001
790,1.31455,1219.437
791,1.316217,1219.734
792,1.317883,1222.268
793,1.31955,1222.268
794,1.321217,1224.652
795,1.322883,1218.99
796,1.32455,1218.99
797,1.326217,1222.119
798,1.327883,1218.393
799,1.32955,1217.127
800,1.331217,1217.127
801,1.332883,1221.97
802,1.33455,1219.362
803,1.336217,1220.405
804,1.337883,1220.405
805,1.33955,1223.534
806,1.34125,1217.648
807,1.342883,1217.276
808,1.34455,1217.276
809,1.346217,1214.221
810,1.347883,1209.527
811,1.349533,1212.507
812,1.3512,1212.507
813,1.352867,1213.104
814,1.354533,1212.954
815,1.3562,1212.954
816,1.357867,1210.943
817,1.35955,1210.57
818,1.3612,1208.261
819,1.362867,1208.261
820,1.3646,1208.559
821,1.3662,1208.41
822,1.367867,1205.206
823,1.369533,1205.206
824,1.3712,1207.367
825,1.372867,1210.943
826,1.374533,1214.743
827,1.3762,1214.743
828,1.377867,1215.413
829,1.379533,1212.806
830,1.381217,1212.806
831,1.382867,1209.9
832,1.384533,1209.751
833,1.3862,1210.421
834,1.387867,1210.421
835,1.389533,1214.668
836,1.3912,1213.998
837,1.392867,1214.445
838,1.394567,1214.445
839,1.3962,1217.946
840,1.397983,1215.115
841,1.399533,1216.009
842,1.4012,1216.009
843,1.402867,1214.221
844,1.404533,1211.613
845,1.406183,1211.613
846,1.40785,1215.19
847,1.409517,1216.158
848,1.411183,1217.946
849,1.41285,1217.946
850,1.414517,1217.425
851,1.416183,1208.633
852,1.41785,1205.206
853,1.419567,1205.206
854,1.421183,1202.077
855,1.42285,1199.394
856,1.424517,1205.131
857,1.426183,1205.131
858,1.42785,1204.386
859,1.429517,1201.853
860,1.431183,1202.002
861,1.43285,1202.002
862,1.434517,1198.053
863,1.436183,1198.202
864,1.43785,1198.202
865,1.439517,1199.842
866,1.441183,1200.512
867,1.44285,1203.492
868,1.444517,1203.492
869,1.446183,1207.814
870,1.44785,1206.622
871,1.449517,1206.174
872,1.451183,1206.174
873,1.45285,1203.567
874,1.454517,1200.214
875,1.456183,1199.469
876,1.45785,1199.469
877,1.459517,1198.873
878,1.461183,1197.457
879,1.46285,1197.457
880,1.464517,1193.881
881,1.466217,1193.359
882,1.467833,1196.34
883,1.4695,1196.34
884,1.471167,1198.351
885,1.472833,1202.002
886,1.4745,1206.026
887,1.476167,1206.026
888,1.477833,1203.79
889,1.4795,1204.163
890,1.481167,1201.779
891,1.4829,1201.779
892,1.4845,1201.108
893,1.486167,1200.959
894,1.487833,1198.277
895,1.489533,1198.277
896,1.491167,1199.32
897,1.492833,1199.096
898,1.4945,1199.096
899,1.496167,1198.426
900,1.497833,1201.034
901,1.499567,1197.01
902,1.501167,1197.01
903,1.502833,1194.03
904,1.5045,1196.414
905,1.506167,1195.073
906,1.507833,1195.073
907,1.5095,1199.171
908,1.511167,1201.257
909,1.512833,1201.481
910,1.5145,1201.481
911,1.516267,1200.959
912,1.517833,1198.053
913,1.5195,1198.053
914,1.521167,1195.371
915,1.522833,1193.062
916,1.5245,1193.21
917,1.526167,1193.21
918,1.527817,1197.308
