"ID","sea_time","fid_signal"
1,0,141.576
2,0.001667,141.717
3,0.003333,141.717
4,0.005,141.568
5,0.006667,141.218
6,0.008333,141.352
7,0.01,141.352
8,0.011667,141.151
9,0.013367,140.972
10,0.015,140.727
11,0.016667,140.727
12,0.018333,140.674
13,0.02,140.54
14,0.021733,140.54
15,0.023317,140.384
16,0.024983,140.533
17,0.02665,140.592
18,0.028317,140.592
19,0.029983,140.809
20,0.03165,141.203
21,0.033317,141.114
22,0.034983,141.114
23,0.03665,140.697
24,0.038417,140.481
25,0.039983,140.041
26,0.04165,140.041
27,0.043317,139.795
28,0.044983,140.153
29,0.04665,140.153
30,0.048317,140.324
31,0.049983,140.585
32,0.05165,140.95
33,0.053317,140.95
34,0.05505,140.883
35,0.05665,140.645
36,0.05835,140.689
37,0.059983,140.689
38,0.06165,140.57
39,0.063317,140.488
40,0.064983,140.414
41,0.066633,140.414
42,0.0683,140.339
43,0.069967,140.16
44,0.071633,140.16
45,0.0733,140.265
46,0.07496700000000001,140.481
47,0.07663300000000001,140.563
48,0.07829999999999999,140.563
49,0.079967,140.779
50,0.081617,140.496
51,0.083283,140.473
52,0.08495,140.473
53,0.086617,140.429
54,0.088283,140.22
55,0.08996700000000001,140.354
56,0.091683,140.354
57,0.093283,140.294
58,0.09495000000000001,140.242
59,0.09661699999999999,140.339
60,0.098283,140.339
61,0.09995,140.406
62,0.101617,140.458
63,0.103283,140.458
64,0.10495,140.592
65,0.106617,140.868
66,0.108283,140.801
67,0.10995,140.801
68,0.111617,140.876
69,0.113283,140.771
70,0.11495,140.555
71,0.116617,140.555
72,0.118283,140.719
73,0.11995,140.607
74,0.121617,140.853
75,0.123283,140.853
76,0.12495,140.846
77,0.126617,140.712
78,0.128283,140.712
79,0.12995,140.779
80,0.131617,140.622
81,0.133283,140.697
82,0.13495,140.697
83,0.136617,140.563
84,0.138317,140.54
85,0.139983,140.406
86,0.141617,140.406
87,0.143267,140.592
88,0.144933,140.697
89,0.1466,140.764
90,0.148267,140.764
91,0.149933,140.734
92,0.1516,140.414
93,0.153267,140.443
94,0.154933,140.443
95,0.156717,140.458
96,0.158267,140.369
97,0.15995,140.369
98,0.1616,140.585
99,0.163267,140.801
100,0.164933,140.592
101,0.1666,140.592
102,0.168267,140.846
103,0.169933,140.712
104,0.1716,140.525
105,0.173367,140.525
106,0.174933,140.771
107,0.1766,140.749
108,0.178267,140.95
109,0.179933,140.95
110,0.1816,141.032
111,0.183267,140.779
112,0.184933,140.779
113,0.1866,140.868
114,0.188267,140.972
115,0.189933,141.248
116,0.1916,141.248
117,0.193267,141.717
118,0.194933,141.822
119,0.1966,141.501
120,0.198267,141.501
121,0.199933,140.987
122,0.2016,140.704
123,0.20325,140.473
124,0.204917,140.473
125,0.206583,140.317
126,0.20825,140.294
127,0.209917,140.086
128,0.211583,140.086
129,0.21325,140.071
130,0.214917,140.376
131,0.216583,140.376
132,0.21825,140.652
133,0.219917,140.846
134,0.221583,140.958
135,0.22325,140.958
136,0.224917,141.218
137,0.226583,141.688
138,0.228267,142.746
139,0.229917,142.746
140,0.231583,144.556
141,0.23325,147.186
142,0.234917,151.59
143,0.236583,151.59
144,0.23825,157.863
145,0.239917,166.461
146,0.241583,166.461
147,0.24325,178.047
148,0.244917,193.432
149,0.246583,212.714
150,0.24825,212.714
151,0.249933,236.474
152,0.251583,264.779
153,0.25325,297.003
154,0.254917,297.003
155,0.256583,334.196
156,0.25825,375.487
157,0.259917,421.181
158,0.261567,421.181
159,0.263233,470.869
160,0.2649,524.1559999999999
161,0.266567,524.1559999999999
162,0.268233,581.026
163,0.2699,641.212
164,0.271567,704.4450000000001
165,0.273233,704.4450000000001
166,0.27495,770.152
167,0.276567,838.9349999999999
168,0.278233,910.155
169,0.2799,910.155
170,0.281567,984.2809999999999
171,0.283233,1061.521
172,0.2849,1141.518
173,0.286567,1141.518
174,0.288233,1224.592
175,0.2899,1310.9
176,0.291667,1400.165
177,0.293233,1400.165
178,0.2949,1493.193
179,0.296567,1590.036
180,0.298233,1590.036
181,0.2999,1691.222
182,0.301567,1797.371
183,0.303233,1908.295
184,0.304917,1908.295
185,0.306567,2024.502
186,0.308233,2146.281
187,0.3099,2274.275
188,0.311567,2274.275
189,0.313233,2408.929
190,0.3149,2550.714
191,0.316567,2700.292
192,0.318233,2700.292
193,0.319883,2858.169
194,0.32155,3024.973
195,0.323217,3024.973
196,0.324883,3202.312
197,0.32655,3391.311
198,0.328217,3594.339
199,0.329883,3594.339
200,0.33155,3813.11
201,0.333217,4050.978
202,0.334883,4311.383
203,0.33655,4311.383
204,0.338217,4597.351
205,0.339883,4912.317
206,0.34155,5255.923
207,0.343217,5255.923
208,0.344883,5624.316
209,0.34655,6009.787
210,0.348217,6399.594
211,0.349883,6399.594
212,0.35155,6776.698
213,0.353217,7122.628
214,0.354883,7122.628
215,0.35655,7417.411
216,0.3582,7643.268
217,0.359867,7786.9
218,0.361533,7786.9
219,0.3632,7839.583
220,0.364867,7799.909
221,0.366533,7671.684
222,0.3682,7671.684
223,0.3699,7463.358
224,0.371533,7188
225,0.3732,6858.938
226,0.374867,6858.938
227,0.376533,6490.767
228,0.378183,6097.816
229,0.3799,6097.816
230,0.381533,5692.125
231,0.383183,5284.406
232,0.38485,4883.178
233,0.386517,4883.178
234,0.388183,4494.831
235,0.38985,4123.881
236,0.391517,3773.63
237,0.393233,3773.63
238,0.39485,3446.221
239,0.396517,3142.938
240,0.398183,2863.594
241,0.39985,2863.594
242,0.401517,2607.875
243,0.403183,2374.664
244,0.40485,2162.65
245,0.406517,2162.65
246,0.408183,1970.351
247,0.4099,1796.618
248,0.411517,1796.618
249,0.413183,1639.813
250,0.41485,1498.327
251,0.416517,1371.115
252,0.418183,1371.115
253,0.41985,1256.473
254,0.421517,1153.126
255,0.423183,1060.27
256,0.424867,1060.27
257,0.426633,976.518
258,0.428183,901.237
259,0.42985,833.981
260,0.431517,833.981
261,0.433183,773.072
262,0.43485,718.3630000000001
263,0.436517,718.3630000000001
264,0.438183,669.129
265,0.43985,624.3440000000001
266,0.441517,584.155
267,0.443167,584.155
268,0.444833,548.013
269,0.4465,514.768
270,0.448217,484.765
271,0.449833,484.765
272,0.4515,457.302
273,0.453167,432.245
274,0.454833,409.707
275,0.4565,409.707
276,0.458167,389.189
277,0.459833,370.897
278,0.4615,370.897
279,0.463167,353.873
280,0.464833,338.495
281,0.4665,324.495
282,0.468167,324.495
283,0.469833,311.397
284,0.4715,299.923
285,0.4732,289.142
286,0.474833,289.142
287,0.4765,279.278
288,0.478167,270.061
289,0.479833,261.471
290,0.4815,261.471
291,0.483167,253.834
292,0.484833,246.383
293,0.4865,239.767
294,0.488167,239.767
295,0.489833,233.553
296,0.4915,227.958
297,0.493167,227.958
298,0.494833,223.026
299,0.4965,218.324
300,0.498167,213.958
301,0.499833,213.958
302,0.5014999999999999,209.771
303,0.50315,205.822
304,0.504817,202.142
305,0.506483,202.142
306,0.50815,198.99
307,0.509817,195.771
308,0.5115,192.784
309,0.51315,192.784
310,0.514817,190.176
311,0.516483,187.665
312,0.51815,187.665
313,0.519867,185.184
314,0.521483,183.038
315,0.52315,180.826
316,0.524817,180.826
317,0.526483,178.59
318,0.5281670000000001,176.862
319,0.529817,175.312
320,0.531483,175.312
321,0.53315,173.964
322,0.534817,172.667
323,0.536483,171.304
324,0.53815,171.304
325,0.539817,170.134
326,0.541483,169.322
327,0.54315,168.428
328,0.544933,168.428
329,0.5464830000000001,167.564
330,0.54815,166.319
331,0.549817,166.319
332,0.5514829999999999,164.74
333,0.55315,163.63
334,0.554817,162.594
335,0.5564829999999999,162.594
336,0.55815,162.058
337,0.559817,161.551
338,0.561467,160.761
339,0.563133,160.761
340,0.564817,160.187
341,0.5665,159.703
342,0.568133,159.137
343,0.5698,159.137
344,0.5714669999999999,158.75
345,0.573133,158.101
346,0.5748,158.101
347,0.576467,157.557
348,0.578133,157.103
349,0.5798,156.507
350,0.581467,156.507
351,0.583133,156.507
352,0.5848,156.075
353,0.586467,155.546
354,0.588133,155.546
355,0.5898,155.129
356,0.591467,154.465
357,0.593133,153.892
358,0.5948329999999999,153.892
359,0.596467,153.586
360,0.598133,153.236
361,0.5998,152.566
362,0.601467,152.566
363,0.603133,152.245
364,0.6048,152.051
365,0.606467,152.051
366,0.608133,151.88
367,0.6098,151.984
368,0.611467,151.694
369,0.613133,151.694
370,0.6148,151.277
371,0.616467,151.061
372,0.618133,150.949
373,0.6198,150.949
374,0.6214499999999999,150.956
375,0.623117,150.822
376,0.624783,150.613
377,0.62645,150.613
378,0.628117,150.39
379,0.62985,150.04
380,0.63145,150.04
381,0.633117,149.786
382,0.634783,149.69
383,0.63645,149.332
384,0.638117,149.332
385,0.639783,149.079
386,0.64145,149.019
387,0.643117,148.788
388,0.644783,148.788
389,0.646467,148.833
390,0.6481,148.557
391,0.649767,148.565
392,0.651433,148.565
393,0.6531,148.609
394,0.654767,148.475
395,0.656433,148.475
396,0.6581,148.684
397,0.659767,148.334
398,0.661433,148.192
399,0.663183,148.192
400,0.664767,148.065
401,0.6664330000000001,148.036
402,0.6681,148.147
403,0.669767,148.147
404,0.6714329999999999,147.924
405,0.6731,147.633
406,0.6748,147.35
407,0.676433,147.35
408,0.6781,147.201
409,0.67975,147.082
410,0.681433,147.06
411,0.683083,147.06
412,0.68475,147.216
413,0.6864170000000001,147.194
414,0.688083,147.194
415,0.68975,147.186
416,0.6914169999999999,147.283
417,0.693083,146.955
418,0.69475,146.955
419,0.696417,146.396
420,0.698083,146.3
421,0.69975,146.165
422,0.701417,146.165
423,0.703083,146.002
424,0.70475,146.255
425,0.706417,146.21
426,0.708083,146.21
427,0.70975,145.927
428,0.711417,146.076
429,0.713083,146.076
430,0.71475,146.322
431,0.716417,146.076
432,0.718083,146.046
433,0.71975,146.046
434,0.721417,145.786
435,0.723083,145.54
436,0.72475,145.487
437,0.726417,145.487
438,0.728117,145.622
439,0.72975,145.644
440,0.731417,145.428
441,0.733083,145.428
442,0.73475,145.786
443,0.736417,145.629
444,0.738083,145.502
445,0.739733,145.502
446,0.741417,145.487
447,0.7431,145.04
448,0.744783,145.04
449,0.7464,144.877
450,0.748133,144.824
451,0.749733,144.653
452,0.7514,144.653
453,0.753067,144.623
454,0.754733,144.497
455,0.7564,144.75
456,0.758067,144.75
457,0.759733,144.936
458,0.7614,144.966
459,0.7630670000000001,145.13
460,0.764733,145.13
461,0.7664,144.884
462,0.7680670000000001,144.839
463,0.769733,144.839
464,0.7714,144.735
465,0.7730669999999999,144.713
466,0.774733,144.549
467,0.7764,144.549
468,0.778067,144.541
469,0.779733,144.631
470,0.781517,144.459
471,0.783067,144.459
472,0.784733,144.601
473,0.7864,144.266
474,0.788067,144.228
475,0.789733,144.228
476,0.7914,144.273
477,0.793067,144.377
478,0.794733,144.728
479,0.7964,144.728
480,0.798067,144.653
481,0.799733,144.72
482,0.801383,144.72
483,0.80305,144.355
484,0.804717,144.228
485,0.806383,143.968
486,0.80805,143.968
487,0.809717,143.707
488,0.811383,143.707
489,0.8130500000000001,143.625
490,0.814717,143.625
491,0.816383,143.938
492,0.8181,144.087
493,0.819717,144.273
494,0.821383,144.273
495,0.8230499999999999,144.392
496,0.824717,144.295
497,0.826383,144.295
498,0.828067,144.497
499,0.829717,144.392
500,0.831383,144.459
501,0.83305,144.459
502,0.834717,144.526
503,0.836383,144.333
504,0.83805,144.362
505,0.839717,144.362
506,0.841383,144.146
507,0.84305,144.094
508,0.8447170000000001,143.982
509,0.846383,143.982
510,0.84805,143.774
511,0.8497169999999999,143.968
512,0.851383,143.751
513,0.85305,143.751
514,0.8547169999999999,143.632
515,0.856383,143.573
516,0.85805,143.573
517,0.859717,143.088
518,0.861367,142.962
519,0.8630330000000001,142.85
520,0.8647,142.85
521,0.866433,142.924
522,0.8680330000000001,143.044
523,0.8697,143.17
524,0.871367,143.17
525,0.8730329999999999,143.513
526,0.8747,143.476
527,0.876367,143.461
528,0.878033,143.461
529,0.8797,143.26
530,0.881367,143.029
531,0.883033,143.029
532,0.8847,143.014
533,0.886367,143.178
534,0.888033,143.215
535,0.8897,143.215
536,0.891367,143.386
537,0.893033,143.401
538,0.8947000000000001,143.088
539,0.896367,143.088
540,0.898033,143.074
541,0.8998,142.686
542,0.901367,142.775
543,0.903033,142.775
544,0.9046999999999999,142.872
545,0.906367,143.17
546,0.908033,143.17
547,0.9097,143.483
548,0.911367,143.379
549,0.913033,143.334
550,0.9147,143.334
551,0.916367,143.163
552,0.918033,143.006
553,0.9197,143.185
554,0.92135,143.185
555,0.923017,143.237
556,0.924683,143.223
557,0.92635,143.118
558,0.928017,143.118
559,0.929683,142.619
560,0.93135,142.463
561,0.933017,142.44
562,0.934683,142.44
563,0.93635,142.559
564,0.938017,142.82
565,0.939667,142.82
566,0.941333,142.939
567,0.9429999999999999,142.939
568,0.944667,142.902
569,0.946333,142.902
570,0.948,142.947
571,0.949667,143.081
572,0.951333,142.992
573,0.953,142.992
574,0.954667,142.992
575,0.956333,142.91
576,0.958,142.805
577,0.959683,142.805
578,0.961333,143.103
579,0.96305,143.2
580,0.9646670000000001,143.2
581,0.966333,143.483
582,0.968,143.513
583,0.9696669999999999,143.081
584,0.971333,143.081
585,0.973,142.731
586,0.974667,142.328
587,0.976333,141.986
588,0.978,141.986
589,0.979667,142.142
590,0.981333,142.388
591,0.9829830000000001,142.671
592,0.984717,142.671
593,0.986317,142.902
594,0.9879829999999999,142.835
595,0.98965,142.902
596,0.991317,142.902
597,0.9929829999999999,142.761
598,0.99465,142.679
599,0.996317,142.679
600,0.997983,142.649
601,0.99965,142.44
602,1.001317,142.403
603,1.003,142.403
604,1.00465,142.433
605,1.006317,142.373
606,1.007983,142.261
607,1.00965,142.261
608,1.011317,142.246
609,1.012983,142.068
610,1.01465,142.135
611,1.016317,142.135
612,1.0181,142.232
613,1.01965,141.941
614,1.021317,141.941
615,1.022983,141.874
616,1.02465,141.978
617,1.026317,142.12
618,1.027983,142.12
619,1.02965,142.105
620,1.031317,142.202
621,1.032983,142.232
622,1.03465,142.232
623,1.036317,142.276
624,1.038,142.254
625,1.03965,142.373
626,1.0413,142.373
627,1.042967,142.068
628,1.044633,141.926
629,1.0463,141.926
630,1.047967,142.328
631,1.049633,142.187
632,1.0513,142.321
633,1.052967,142.321
634,1.054633,142.261
635,1.0563,142.03
636,1.057967,142.187
637,1.059633,142.187
638,1.0613,142.209
639,1.062967,142.09
640,1.064633,142.246
641,1.0663,142.246
642,1.067967,142.321
643,1.069633,142.202
644,1.0713,142.463
645,1.072967,142.463
646,1.074633,142.321
647,1.0763,142.373
648,1.077967,142.373
649,1.079633,142.515
650,1.0813,142.463
651,1.082967,142.53
652,1.084633,142.53
653,1.0863,142.671
654,1.087967,142.798
655,1.089633,142.731
656,1.0913,142.731
657,1.092967,142.828
658,1.094633,142.626
659,1.0963,142.269
660,1.097967,142.269
661,1.099633,142.135
662,1.101283,141.881
663,1.103033,141.68
664,1.104617,141.68
665,1.106283,141.628
666,1.10795,141.658
667,1.109617,141.658
668,1.111283,141.665
669,1.11295,141.74
670,1.114617,142.001
671,1.116283,142.001
672,1.11795,142.217
673,1.119667,142.477
674,1.121283,142.545
675,1.12295,142.545
676,1.124617,142.612
677,1.126283,142.328
678,1.12795,141.956
679,1.129617,141.956
680,1.131283,141.859
681,1.13295,141.837
682,1.134617,141.837
683,1.136383,141.934
684,1.13795,142.097
685,1.139617,142.001
686,1.141283,142.001
687,1.14295,141.665
688,1.144617,141.405
689,1.146283,141.501
690,1.14795,141.501
691,1.149617,141.457
692,1.151283,141.501
693,1.153067,141.509
694,1.154617,141.509
695,1.156283,141.181
696,1.15795,141.218
697,1.1596,141.218
698,1.161267,141.256
699,1.162933,141.643
700,1.1646,142.068
701,1.166267,142.068
702,1.167933,141.986
703,1.1696,142.194
704,1.171267,141.986
705,1.172933,141.986
706,1.1746,141.747
707,1.176267,141.747
708,1.177967,141.799
709,1.1796,141.799
710,1.181267,141.993
711,1.182933,142.053
712,1.1846,142.083
713,1.186267,142.083
714,1.187933,141.688
715,1.1896,141.464
716,1.191267,141.464
717,1.192933,141.33
718,1.1946,141.628
719,1.196267,141.68
720,1.197933,141.68
721,1.1996,141.852
722,1.201267,142.15
723,1.202933,142.105
724,1.2046,142.105
725,1.206267,142.492
726,1.207933,142.515
727,1.2096,142.239
728,1.211267,142.239
729,1.212933,142.001
730,1.2146,141.829
731,1.216267,141.829
732,1.217933,141.881
733,1.2196,141.941
734,1.221317,141.948
735,1.222917,141.948
736,1.224583,141.777
737,1.22625,141.613
738,1.227917,141.703
739,1.229583,141.703
740,1.231233,141.68
741,1.2329,141.844
742,1.234567,142.001
743,1.236233,142.001
744,1.237967,141.799
745,1.239567,141.799
746,1.241233,141.799
747,1.2429,141.539
748,1.2446,141.501
749,1.246233,141.501
750,1.247933,141.501
751,1.249567,141.643
752,1.251233,141.695
753,1.2529,141.419
754,1.25465,141.419
755,1.256233,141.375
756,1.2579,141.189
757,1.259567,141.509
758,1.261233,141.509
759,1.2629,141.695
760,1.264567,141.65
761,1.266233,141.799
762,1.2679,141.799
763,1.269567,141.747
764,1.271317,141.762
765,1.2729,141.762
766,1.274567,142.291
767,1.276233,142.068
768,1.2779,141.844
769,1.279567,141.844
770,1.281217,141.636
771,1.282883,141.174
772,1.28455,141.241
773,1.286217,141.241
774,1.287883,141.226
775,1.28955,141.174
776,1.291217,141.159
777,1.292883,141.159
778,1.29455,141.062
779,1.296217,141.241
780,1.297883,141.241
781,1.29955,141.546
782,1.301217,141.576
783,1.302883,141.576
784,1.30455,141.576
785,1.306217,141.315
786,1.307883,141.196
787,1.30955,141.233
788,1.311217,141.233
789,1.312883,141.442
790,1.31455,141.889
791,1.316217,141.65
792,1.317883,141.65
793,1.319567,141.613
794,1.321217,141.472
795,1.322883,141.114
796,1.32455,141.114
797,1.326217,141.248
798,1.327917,141.531
799,1.32955,141.531
800,1.331217,141.583
801,1.332883,141.494
802,1.33455,141.464
803,1.336217,141.464
804,1.337883,141.434
805,1.33955,141.464
806,1.3412,141.889
807,1.342867,141.889
808,1.344533,142.157
809,1.3462,142.045
810,1.347867,142.157
811,1.349533,142.157
812,1.3512,141.874
813,1.352867,141.568
814,1.354533,141.568
815,1.356217,141.434
816,1.357867,141.33
817,1.359533,141.226
818,1.3612,141.226
819,1.362867,141.084
820,1.364533,141.107
821,1.3662,141.174
822,1.367867,141.174
823,1.369533,141.218
824,1.3712,141.509
825,1.3729,141.725
826,1.374533,141.725
827,1.3762,141.717
828,1.377867,141.755
829,1.379533,141.583
830,1.3812,141.583
831,1.382867,141.293
832,1.384533,141.211
833,1.3862,141.211
834,1.387867,141.107
835,1.389617,141.248
836,1.3912,141.166
837,1.392867,141.166
838,1.394533,141.166
839,1.3962,141.114
840,1.397867,140.95
841,1.399567,140.95
842,1.401183,141.092
843,1.40285,141.256
844,1.404517,141.323
845,1.4062,141.323
846,1.40785,141.621
847,1.409517,141.568
848,1.411183,141.568
849,1.41285,141.568
850,1.414517,141.963
851,1.416183,141.881
852,1.41785,141.881
853,1.419533,142.142
854,1.421183,141.889
855,1.42285,141.531
856,1.424517,141.531
857,1.426183,141.479
858,1.42785,141.405
859,1.429517,141.799
860,1.431183,141.799
861,1.43285,141.777
862,1.434517,141.613
863,1.436183,141.487
864,1.43785,141.487
865,1.439517,141.151
866,1.441183,141.069
867,1.44285,141.069
868,1.444517,141.114
869,1.446183,140.928
870,1.44785,141.181
871,1.449517,141.181
872,1.451183,141.315
873,1.45285,141.248
874,1.454517,141.33
875,1.456183,141.33
876,1.45785,140.965
877,1.459517,140.779
878,1.461167,140.838
879,1.462833,140.838
880,1.4645,140.764
881,1.466167,140.786
882,1.467883,140.786
883,1.4695,140.682
884,1.471167,140.704
885,1.472833,140.861
886,1.4745,140.861
887,1.476167,140.995
888,1.477833,141.039
889,1.4795,141.241
890,1.481167,141.241
891,1.482833,141.233
892,1.4845,141.196
893,1.486167,141.628
894,1.487833,141.628
895,1.4895,141.583
896,1.491183,141.539
897,1.492833,141.539
898,1.4945,141.464
899,1.496167,141.382
900,1.497833,141.203
901,1.4995,141.203
902,1.501167,141.315
903,1.502833,141.36
904,1.5045,141.323
905,1.506167,141.323
906,1.50795,141.308
907,1.5095,141.189
908,1.511167,140.905
909,1.512833,140.905
910,1.5145,140.972
911,1.516167,141.069
912,1.517833,141.151
913,1.5195,141.151
914,1.52115,141.412
915,1.5228,141.524
916,1.524467,141.524
917,1.526133,141.747
918,1.5278,141.643
919,1.529467,141.613
920,1.531133,141.613
921,1.5328,141.591
922,1.534467,141.501
923,1.536133,141.598
924,1.5378,141.598
925,1.539467,141.613
926,1.541133,141.233
927,1.542833,140.987
928,1.544467,140.987
929,1.546133,141.084
930,1.5478,141.367
931,1.549467,141.367
932,1.551133,141.636
933,1.5528,141.688
934,1.554467,141.494
935,1.556133,141.494
936,1.5578,141.189
937,1.559467,141.092
938,1.561133,140.95
939,1.5628,140.95
940,1.564467,141.032
941,1.566133,141.256
942,1.5678,141.166
943,1.569467,141.166
944,1.571133,141.233
945,1.5728,141.516
946,1.574467,141.203
947,1.576133,141.203
948,1.5778,141.263
949,1.579467,141.263
950,1.58115,141.263
951,1.582783,140.965
952,1.58445,141.107
953,1.586117,141.3
954,1.587783,141.3
955,1.58945,141.36
956,1.591117,141.33
957,1.592867,141.36
958,1.59445,141.36
