"ID","sea_time","fid_signal"
1,0,1165.345
2,0.001667,1165.345
3,0.003333,1164.377
4,0.005,1162.589
5,0.006667,1164.228
6,0.008333,1164.228
7,0.010017,1167.879
8,0.011667,1171.157
9,0.013333,1170.784
10,0.015,1170.784
11,0.01665,1169.816
12,0.018317,1169.518
13,0.019983,1169.518
14,0.02165,1167.059
15,0.023317,1168.102
16,0.024983,1168.326
17,0.026783,1168.326
18,0.028317,1164.749
19,0.029983,1166.761
20,0.03165,1165.867
21,0.03335,1165.867
22,0.034983,1167.432
23,0.03665,1168.251
24,0.038317,1164.973
25,0.039983,1164.973
26,0.04165,1167.804
27,0.043317,1168.177
28,0.044983,1171.455
29,0.04665,1171.455
30,0.048317,1174.36
31,0.049983,1171.753
32,0.05165,1171.753
33,0.053317,1170.114
34,0.054983,1169.071
35,0.05665,1168.549
36,0.058317,1168.549
37,0.059983,1170.337
38,0.06165,1171.902
39,0.063317,1169.592
40,0.064983,1169.592
41,0.06665,1168.326
42,0.068317,1167.506
43,0.069983,1167.953
44,0.07165000000000001,1167.953
45,0.07331699999999999,1171.306
46,0.075017,1170.561
47,0.07663300000000001,1170.561
48,0.07829999999999999,1170.71
49,0.079967,1169.22
50,0.081633,1166.761
51,0.0833,1166.761
52,0.084967,1170.337
53,0.086633,1169.369
54,0.08831700000000001,1170.114
55,0.08996700000000001,1170.114
56,0.09163300000000001,1168.698
57,0.09329999999999999,1164.824
58,0.094967,1168.624
59,0.096633,1168.624
60,0.0983,1170.337
61,0.099967,1173.094
62,0.101633,1173.765
63,0.1033,1173.765
64,0.104967,1170.039
65,0.106633,1166.463
66,0.1083,1166.463
67,0.11,1164.302
68,0.111633,1167.059
69,0.1133,1170.412
70,0.114967,1170.412
71,0.116617,1169.369
72,0.118283,1169.145
73,0.11995,1166.463
74,0.121617,1166.463
75,0.123283,1162.738
76,0.12495,1162.365
77,0.126617,1162.589
78,0.1283,1162.589
79,0.12995,1162.738
80,0.131617,1165.42
81,0.133283,1165.42
82,0.13495,1168.177
83,0.1366,1169.22
84,0.138267,1171.529
85,0.139933,1171.529
86,0.1416,1171.529
87,0.143267,1170.933
88,0.145067,1173.541
89,0.1466,1173.541
90,0.148267,1172.572
91,0.149983,1170.486
92,0.1516,1169.816
93,0.153267,1169.816
94,0.154933,1166.686
95,0.1566,1165.792
96,0.158267,1165.792
97,0.159933,1166.239
98,0.1616,1166.314
99,0.163267,1167.357
100,0.164933,1167.357
101,0.1666,1168.922
102,0.168267,1170.114
103,0.169933,1171.827
104,0.1716,1171.827
105,0.173267,1171.529
106,0.174933,1169.294
107,0.1766,1168.475
108,0.178267,1168.475
109,0.179933,1168.102
110,0.1816,1167.953
111,0.183267,1168.102
112,0.184933,1168.102
113,0.1866,1169.071
114,0.188267,1166.537
115,0.189933,1166.537
116,0.1916,1167.506
117,0.193267,1167.58
118,0.194933,1168.251
119,0.196583,1168.251
120,0.198283,1171.902
121,0.199917,1170.188
122,0.201583,1170.859
123,0.20325,1170.859
124,0.204917,1168.698
125,0.206583,1165.271
126,0.20825,1163.11
127,0.209917,1163.11
128,0.211583,1164.451
129,0.21325,1164.973
130,0.214917,1164.973
131,0.216617,1165.42
132,0.21825,1166.91
133,0.219917,1163.11
134,0.221583,1163.11
135,0.22325,1165.569
136,0.224917,1169.592
137,0.226583,1173.69
138,0.22825,1173.69
139,0.229967,1179.501
140,0.231583,1184.344
141,0.23325,1188.07
142,0.234917,1188.07
143,0.236583,1195.52
144,0.23825,1204.088
145,0.239917,1215.488
146,0.241583,1215.488
147,0.24325,1233.071
148,0.244917,1253.337
149,0.246583,1253.337
150,0.24825,1278.892
151,0.249917,1305.267
152,0.251583,1339.093
153,0.25325,1339.093
154,0.254917,1376.495
155,0.256567,1416.504
156,0.258233,1459.941
157,0.2599,1459.941
158,0.261567,1504.123
159,0.263317,1550.987
160,0.2649,1602.024
161,0.266567,1602.024
162,0.268233,1653.88
163,0.2699,1708.344
164,0.271567,1708.344
165,0.273233,1768.172
166,0.2749,1832.172
167,0.276567,1900.718
168,0.278233,1900.718
169,0.2799,1972.094
170,0.281567,2046.451
171,0.283233,2129.376
172,0.2849,2129.376
173,0.286567,2219.9
174,0.288233,2319.962
175,0.2899,2425.015
176,0.2916,2425.015
177,0.293233,2535.954
178,0.2949,2660.453
179,0.296583,2794.713
180,0.298233,2794.713
181,0.2999,2942.681
182,0.301567,3101.677
183,0.303233,3101.677
184,0.3049,3267.452
185,0.306567,3449.544
186,0.308233,3648.326
187,0.3099,3648.326
188,0.311567,3866.851
189,0.313233,4108.921
190,0.3149,4377.216
191,0.316567,4377.216
192,0.318217,4681.796
193,0.319883,5036.294
194,0.32155,5464.554
195,0.323217,5464.554
196,0.324883,5990.49
197,0.32655,6646.142
198,0.328217,6646.142
199,0.329883,7467.94
200,0.33155,8471.832
201,0.333217,9673.387000000001
202,0.334883,9673.387000000001
203,0.33655,11065.006
204,0.338217,12601.465
205,0.339883,14235.303
206,0.34155,14235.303
207,0.343217,15877.933
208,0.344883,17424.748
209,0.34655,18773.451
210,0.348283,18773.451
211,0.349883,19827.484
212,0.35155,20510.033
213,0.353217,20510.033
214,0.354883,20782.799
215,0.35655,20653.232
216,0.358217,20152.629
217,0.359883,20152.629
218,0.36155,19345.432
219,0.363217,18313.229
220,0.364883,17129.332
221,0.36655,17129.332
222,0.368217,15861.988
223,0.369883,14573.782
224,0.37155,13309.271
225,0.373217,13309.271
226,0.374883,12099.668
227,0.376533,10967.627
228,0.3782,9921.268
229,0.379867,9921.268
230,0.381617,8961.707
231,0.3832,8087.754
232,0.384867,8087.754
233,0.386533,7296.875
234,0.3882,6589.964
235,0.389867,5957.782
236,0.391533,5957.782
237,0.3932,5396.902
238,0.394867,4901.215
239,0.396533,4459.247
240,0.3982,4459.247
241,0.399867,4075.095
242,0.401533,3739.595
243,0.4032,3445.595
244,0.404867,3445.595
245,0.406533,3192.127
246,0.408183,2966.151
247,0.40985,2966.151
248,0.411517,2768.934
249,0.413183,2596.304
250,0.41485,2440.959
251,0.416517,2440.959
252,0.418183,2306.104
253,0.41985,2186.298
254,0.421517,2081.469
255,0.423183,2081.469
256,0.42485,1990.721
257,0.426517,1911.968
258,0.428183,1842.678
259,0.42985,1842.678
260,0.431517,1781.583
261,0.433183,1728.237
262,0.43485,1680.627
263,0.4365,1680.627
264,0.4382,1635.999
265,0.439867,1595.989
266,0.4415,1595.989
267,0.443167,1558.885
268,0.444833,1524.389
269,0.4465,1499.057
270,0.448167,1499.057
271,0.449833,1477.525
272,0.4515,1458.749
273,0.453167,1440.346
274,0.454833,1440.346
275,0.4565,1419.932
276,0.458167,1403.391
277,0.459833,1385.659
278,0.4615,1385.659
279,0.463167,1371.875
280,0.464833,1361.147
281,0.466567,1346.32
282,0.468167,1346.32
283,0.469833,1334.995
284,0.4715,1326.129
285,0.473167,1326.129
286,0.474833,1315.474
287,0.4765,1307.577
288,0.478167,1301.467
289,0.479833,1301.467
290,0.4815,1295.805
291,0.483167,1288.727
292,0.484833,1283.661
293,0.4865,1283.661
294,0.488167,1277.849
295,0.489833,1271.591
296,0.4915,1271.591
297,0.493167,1269.504
298,0.494833,1267.791
299,0.4965,1264.811
300,0.49815,1264.811
301,0.499933,1261.532
302,0.501483,1260.936
303,0.50315,1258.031
304,0.504817,1258.031
305,0.506483,1257.583
306,0.50815,1255.423
307,0.509817,1249.835
308,0.511483,1249.835
309,0.51315,1244.247
310,0.514817,1240.149
311,0.516483,1238.361
312,0.51815,1238.361
313,0.519817,1237.541
314,0.521483,1237.765
315,0.52315,1237.765
316,0.524817,1239.628
317,0.526483,1237.541
318,0.52815,1233.369
319,0.529817,1233.369
320,0.531483,1229.718
321,0.53315,1224.205
322,0.534817,1221.448
323,0.536483,1221.448
324,0.53815,1220.48
325,0.539817,1219.958
326,0.541483,1221.895
327,0.54315,1221.895
328,0.544817,1221.672
329,0.5464830000000001,1223.981
330,0.54815,1223.981
331,0.549817,1223.832
332,0.5514829999999999,1220.331
333,0.55315,1219.287
334,0.554817,1219.287
335,0.556467,1216.531
336,0.558133,1216.456
337,0.5598,1214.147
338,0.561467,1214.147
339,0.563133,1213.104
340,0.5648,1211.837
341,0.5664670000000001,1208.708
342,0.568133,1208.708
343,0.5698,1210.272
344,0.5714669999999999,1208.782
345,0.573133,1209.378
346,0.5748,1209.378
347,0.576467,1210.794
348,0.578133,1207.814
349,0.579817,1207.814
350,0.581483,1210.645
351,0.583183,1208.037
352,0.584817,1205.057
353,0.586467,1205.057
354,0.588133,1204.684
355,0.5898,1200.438
356,0.591467,1201.034
357,0.593133,1201.034
358,0.5948,1200.885
359,0.596467,1201.034
360,0.598133,1202.449
361,0.5998,1202.449
362,0.601533,1203.716
363,0.603133,1204.61
364,0.6048,1204.61
365,0.606467,1202.822
366,0.608133,1200.736
367,0.6098,1197.308
368,0.611467,1197.308
369,0.613133,1196.265
370,0.6148,1195.148
371,0.616467,1195.222
372,0.6182,1195.222
373,0.619783,1195.744
374,0.6214499999999999,1195.893
375,0.623117,1197.83
376,0.624783,1197.83
377,0.62645,1198.202
378,0.628117,1196.563
379,0.629783,1194.328
380,0.63145,1194.328
381,0.633117,1193.509
382,0.634867,1194.999
383,0.63645,1194.999
384,0.638117,1196.116
385,0.639783,1198.277
386,0.64145,1197.457
387,0.643117,1197.457
388,0.644783,1194.775
389,0.64645,1192.763
390,0.6481170000000001,1189.634
391,0.649783,1189.634
392,0.65145,1188.964
393,0.6531169999999999,1186.356
394,0.654783,1185.909
395,0.65645,1185.909
396,0.65815,1186.132
397,0.659783,1188.07
398,0.66145,1188.07
399,0.663117,1193.434
400,0.664783,1195.371
401,0.66645,1194.85
402,0.668117,1194.85
403,0.669783,1192.093
404,0.67145,1190.752
405,0.673117,1191.273
406,0.674783,1191.273
407,0.67645,1194.328
408,0.6781,1195.446
409,0.679767,1193.359
410,0.681433,1193.359
411,0.6831,1192.391
412,0.684767,1191.944
413,0.686433,1192.018
414,0.6881,1192.018
415,0.689767,1190.826
416,0.691433,1192.093
417,0.6931,1192.093
418,0.694767,1191.497
419,0.696433,1190.305
420,0.6981000000000001,1192.391
421,0.69975,1192.391
422,0.701417,1188.964
423,0.703117,1186.654
424,0.70475,1187.026
425,0.706417,1187.026
426,0.708083,1187.399
427,0.70975,1187.324
428,0.711417,1187.772
429,0.713083,1187.772
430,0.71475,1187.474
431,0.716417,1185.834
432,0.718083,1185.834
433,0.719817,1188.144
434,0.721417,1188.591
435,0.723083,1191.497
436,0.72475,1191.497
437,0.72645,1191.795
438,0.728083,1188.964
439,0.729783,1187.026
440,0.731417,1187.026
441,0.733083,1183.674
442,0.734733,1182.258
443,0.736467,1183.897
444,0.738067,1183.897
445,0.739733,1185.611
446,0.7413999999999999,1188.144
447,0.743067,1188.144
448,0.744733,1191.124
449,0.7464,1189.038
450,0.748067,1189.336
451,0.749733,1189.336
452,0.7514,1190.156
453,0.753167,1187.474
454,0.754733,1187.548
455,0.7564,1187.548
456,0.758067,1188.74
457,0.759733,1184.791
458,0.7614,1183.301
459,0.7630670000000001,1183.301
460,0.764733,1184.046
461,0.7664,1182.035
462,0.7680670000000001,1181.588
463,0.769733,1181.588
464,0.7714,1181.886
465,0.7730669999999999,1180.768
466,0.774733,1180.768
467,0.7764,1179.501
468,0.778067,1182.929
469,0.779733,1185.462
470,0.7814,1185.462
471,0.783067,1186.729
472,0.784733,1187.399
473,0.7864,1181.29
474,0.788067,1181.29
475,0.789733,1177.862
476,0.7914,1177.117
477,0.793067,1179.203
478,0.794717,1179.203
479,0.796383,1183.078
480,0.79805,1183.525
481,0.799767,1183.525
482,0.801383,1181.662
483,0.80305,1179.352
484,0.804717,1181.215
485,0.806383,1181.215
486,0.80805,1181.96
487,0.809717,1183.227
488,0.811383,1185.313
489,0.8130500000000001,1185.313
490,0.814717,1182.78
491,0.816383,1183.227
492,0.8180500000000001,1183.674
493,0.81975,1183.674
494,0.821383,1181.141
495,0.8230499999999999,1183.823
496,0.824717,1184.046
497,0.826383,1184.046
498,0.82805,1184.717
499,0.829717,1187.026
500,0.831383,1187.026
501,0.83305,1185.387
502,0.834717,1184.791
503,0.836383,1185.089
504,0.8381,1185.089
505,0.839717,1182.109
506,0.841383,1179.948
507,0.84305,1181.513
508,0.8447170000000001,1181.513
509,0.846383,1183.376
510,0.84805,1183.823
511,0.8497169999999999,1183.674
512,0.851383,1183.674
513,0.85305,1184.866
514,0.854733,1181.364
515,0.856383,1181.364
516,0.858033,1180.246
517,0.8597,1180.693
518,0.861367,1177.341
519,0.8630330000000001,1177.341
520,0.8647,1176.819
521,0.866367,1179.352
522,0.8680330000000001,1177.266
523,0.8697,1177.266
524,0.871467,1175.18
525,0.8730329999999999,1175.925
526,0.8747,1172.349
527,0.8764,1172.349
528,0.878033,1172.87
529,0.8797,1176.596
530,0.881367,1175.18
531,0.883033,1175.18
532,0.8847,1177.937
533,0.886367,1180.768
534,0.888033,1180.768
535,0.8897,1179.65
536,0.891367,1181.141
537,0.893033,1180.47
538,0.894717,1180.47
539,0.896367,1178.011
540,0.898033,1174.659
541,0.8997000000000001,1174.36
542,0.901367,1174.36
543,0.903033,1174.882
544,0.9046999999999999,1176.298
545,0.906367,1178.831
546,0.908033,1178.831
547,0.909733,1177.862
548,0.911367,1178.309
549,0.913033,1178.309
550,0.9147,1179.054
551,0.91635,1180.619
552,0.918017,1181.141
553,0.919683,1181.141
554,0.92135,1181.066
555,0.923017,1178.309
556,0.924683,1177.043
557,0.92635,1177.043
558,0.928017,1179.874
559,0.929683,1179.352
560,0.93135,1183.003
561,0.933017,1183.003
562,0.934683,1180.768
563,0.93635,1176.372
564,0.938017,1176.372
565,0.939717,1175.925
566,0.94135,1173.019
567,0.943017,1177.639
568,0.9446830000000001,1177.639
569,0.94635,1180.693
570,0.948017,1180.47
571,0.9496830000000001,1182.556
572,0.95135,1182.556
573,0.953017,1178.682
574,0.9546829999999999,1177.639
575,0.95635,1176.074
576,0.958017,1176.074
577,0.959683,1172.87
578,0.96135,1174.51
579,0.963017,1173.317
580,0.964683,1173.317
581,0.96635,1176.521
582,0.968017,1177.266
583,0.969683,1177.266
584,0.97135,1174.286
585,0.973017,1172.2
586,0.974683,1168.922
587,0.9763500000000001,1168.922
588,0.978,1170.933
589,0.979667,1174.733
590,0.981333,1178.831
591,0.983,1178.831
592,0.984667,1180.321
593,0.986333,1179.203
594,0.988,1178.384
595,0.989783,1178.384
596,0.991317,1177.192
597,0.9929829999999999,1177.639
598,0.99465,1177.639
599,0.996317,1180.023
600,0.997983,1180.172
601,0.99965,1180.545
602,1.001317,1180.545
603,1.003,1179.427
604,1.00465,1176.968
605,1.006317,1176.223
606,1.007983,1176.223
607,1.00965,1175.627
608,1.011317,1176.745
609,1.012983,1174.584
610,1.01465,1174.584
611,1.016317,1175.255
612,1.017983,1173.019
613,1.01965,1172.423
614,1.021317,1172.423
615,1.022983,1174.435
616,1.02465,1172.945
617,1.026317,1172.945
618,1.027983,1175.031
619,1.02965,1174.882
620,1.031317,1173.839
621,1.032983,1173.839
622,1.03465,1174.212
623,1.0363,1173.094
624,1.037967,1171.529
625,1.039633,1171.529
626,1.0413,1173.988
627,1.042967,1171.678
628,1.044633,1173.243
629,1.0463,1173.243
630,1.047967,1172.647
631,1.049633,1169.667
632,1.0513,1169.667
633,1.052967,1173.019
634,1.054633,1170.859
635,1.0563,1171.38
636,1.057967,1171.38
637,1.059633,1173.168
638,1.0613,1173.69
639,1.062967,1176.298
640,1.064633,1176.298
641,1.0663,1179.725
642,1.067967,1178.682
643,1.06965,1176.819
644,1.0713,1176.819
645,1.072967,1177.639
646,1.074633,1173.765
647,1.0763,1174.212
648,1.077967,1174.212
649,1.079633,1175.329
650,1.0813,1170.933
651,1.082983,1170.933
652,1.084633,1173.615
653,1.086317,1171.976
654,1.087967,1170.933
655,1.089633,1170.933
656,1.0913,1173.615
657,1.092967,1172.945
658,1.094633,1174.51
659,1.096283,1174.51
660,1.09795,1176.521
661,1.099617,1177.266
662,1.101283,1179.799
663,1.10295,1179.799
664,1.104617,1180.172
665,1.106283,1178.086
666,1.108017,1178.086
667,1.109617,1177.49
668,1.111283,1173.243
669,1.11295,1171.306
670,1.114617,1171.306
671,1.116283,1169.22
672,1.11795,1166.984
673,1.119617,1168.475
674,1.121283,1168.475
675,1.12295,1167.953
676,1.124617,1168.177
677,1.126283,1169.965
678,1.12795,1169.965
679,1.129617,1170.784
680,1.131283,1172.423
681,1.13295,1172.423
682,1.134617,1172.125
683,1.136283,1169.443
684,1.13795,1168.251
685,1.139617,1168.251
686,1.141283,1169.965
687,1.14295,1172.796
688,1.144617,1174.435
689,1.146283,1174.435
690,1.14795,1176.745
691,1.149617,1177.043
692,1.151283,1176
693,1.15295,1176
694,1.1546,1177.862
695,1.156267,1174.659
696,1.157933,1175.106
697,1.1596,1175.106
698,1.161283,1175.255
699,1.162983,1175.627
700,1.1646,1175.627
701,1.166267,1177.117
702,1.167933,1177.117
703,1.1696,1178.011
704,1.171317,1178.011
705,1.172933,1174.584
706,1.1746,1172.796
707,1.176267,1171.38
708,1.177933,1171.38
709,1.1796,1170.784
710,1.181267,1173.466
711,1.182933,1177.117
712,1.1846,1177.117
713,1.186267,1177.117
714,1.187933,1173.988
715,1.1896,1173.988
716,1.191267,1172.945
717,1.192983,1171.306
718,1.1946,1169.518
719,1.196267,1169.518
720,1.197933,1174.36
721,1.1996,1173.765
722,1.201267,1174.584
723,1.202933,1174.584
724,1.2046,1174.957
725,1.206267,1174.286
726,1.207933,1178.011
727,1.209617,1178.011
728,1.211267,1176
729,1.212933,1177.564
730,1.2146,1178.905
731,1.21625,1178.905
732,1.217917,1178.011
733,1.219583,1179.352
734,1.22125,1179.352
735,1.222917,1179.874
736,1.224583,1175.031
737,1.226383,1170.71
738,1.227917,1170.71
739,1.229583,1167.953
740,1.23125,1165.792
741,1.232917,1167.357
742,1.234583,1167.357
743,1.23625,1170.337
744,1.23795,1171.008
745,1.239583,1173.988
746,1.24125,1173.988
747,1.242917,1173.615
748,1.244583,1174.807
749,1.24625,1174.807
750,1.247917,1175.925
751,1.249583,1175.478
752,1.25125,1179.65
753,1.252917,1179.65
754,1.254583,1178.98
755,1.25625,1180.246
756,1.257917,1179.874
757,1.259583,1179.874
758,1.261283,1178.086
759,1.262917,1176.074
760,1.264583,1174.212
761,1.26625,1174.212
762,1.267917,1170.486
763,1.269583,1167.655
764,1.27125,1166.388
765,1.272917,1166.388
766,1.274583,1167.282
767,1.27625,1170.784
768,1.2779,1170.784
769,1.279567,1172.349
770,1.281217,1173.168
771,1.282883,1174.286
772,1.28455,1174.286
773,1.286217,1174.36
774,1.287883,1174.063
775,1.28955,1175.851
776,1.291217,1175.851
777,1.292883,1172.721
778,1.29455,1172.349
779,1.296217,1172.945
780,1.297883,1172.945
781,1.299567,1171.306
782,1.301217,1174.584
783,1.302883,1174.584
784,1.30455,1174.51
785,1.306217,1173.765
786,1.307883,1173.466
787,1.30955,1173.466
788,1.311233,1172.647
789,1.312883,1173.094
790,1.31455,1175.627
791,1.316217,1175.627
792,1.317883,1180.023
793,1.31955,1179.725
794,1.321217,1177.192
795,1.322883,1177.192
796,1.32455,1173.466
797,1.326217,1172.423
798,1.327883,1172.423
799,1.32955,1172.423
800,1.331217,1174.435
801,1.332883,1175.553
802,1.33455,1175.553
803,1.3362,1175.255
804,1.337867,1176.074
805,1.339533,1176.223
806,1.3412,1176.223
807,1.342867,1175.329
808,1.344667,1173.466
809,1.3462,1173.541
810,1.347867,1173.541
811,1.349533,1174.659
812,1.3512,1179.278
813,1.352867,1181.364
814,1.35455,1181.364
815,1.3562,1179.948
816,1.357867,1179.576
817,1.359533,1179.576
818,1.3612,1176.745
819,1.362867,1175.627
820,1.364533,1176.521
821,1.3662,1176.521
822,1.367867,1175.851
823,1.369533,1173.913
824,1.3712,1169.741
825,1.372867,1169.741
826,1.374533,1167.357
827,1.3762,1164.973
828,1.377883,1165.196
829,1.379533,1165.196
830,1.3812,1166.761
831,1.382867,1167.58
832,1.384533,1167.58
833,1.3862,1170.859
834,1.387867,1170.784
835,1.389533,1172.274
836,1.3912,1172.274
837,1.392867,1174.733
838,1.394533,1172.349
839,1.396183,1172.349
840,1.39785,1172.349
841,1.399517,1171.008
842,1.401183,1171.306
843,1.40285,1173.392
844,1.404517,1173.392
845,1.406183,1175.851
846,1.40785,1177.788
847,1.409517,1178.905
848,1.411183,1178.905
849,1.41285,1175.553
850,1.414517,1175.106
851,1.416183,1175.106
852,1.41785,1176.447
853,1.419517,1173.988
854,1.421183,1175.18
855,1.42285,1175.18
856,1.424517,1173.392
857,1.426183,1172.721
858,1.42785,1171.38
859,1.429567,1171.38
860,1.431183,1168.922
861,1.43285,1167.953
862,1.434533,1168.698
863,1.436183,1168.698
864,1.43785,1170.114
865,1.439517,1172.721
866,1.441183,1172.721
867,1.44285,1173.466
868,1.444517,1169.741
869,1.446233,1170.412
870,1.44785,1170.412
871,1.449517,1169.741
872,1.451217,1170.337
873,1.45285,1171.902
874,1.454517,1171.902
875,1.456167,1170.337
876,1.457833,1171.306
877,1.4595,1172.498
878,1.461167,1172.498
879,1.462933,1173.913
880,1.4645,1172.2
881,1.466167,1172.796
882,1.467833,1172.796
883,1.4695,1170.486
884,1.471167,1168.326
885,1.47285,1168.326
886,1.4745,1171.157
887,1.476167,1167.953
888,1.477833,1168.177
889,1.4796,1168.177
890,1.481167,1169.369
891,1.482833,1168.624
892,1.4845,1169.816
893,1.486167,1169.816
894,1.487833,1170.114
895,1.4895,1169.518
896,1.491167,1168.549
897,1.492833,1168.549
898,1.4945,1168.624
899,1.496167,1169.667
900,1.497833,1169.667
901,1.4995,1172.721
902,1.501167,1177.639
903,1.502833,1182.184
904,1.5045,1182.184
905,1.506167,1182.258
906,1.507833,1178.607
907,1.5095,1171.902
908,1.511167,1171.902
909,1.512833,1167.432
910,1.5145,1166.686
911,1.516167,1166.388
912,1.517817,1166.388
913,1.519483,1170.114
914,1.521167,1172.796
915,1.52285,1174.286
916,1.52455,1174.286
917,1.52615,1176.894
918,1.527817,1175.925
