"ID","sea_time","fid_signal"
1,0,29.026
2,0.001667,29.025
3,0.003333,29.026
4,0.005,29.029
5,0.006667,29.029
6,0.008333,29.02
7,0.01,28.968
8,0.011667,28.887
9,0.013333,28.887
10,0.015,28.813
11,0.016667,28.766
12,0.018333,28.766
13,0.02,28.775
14,0.021667,28.826
15,0.023317,28.881
16,0.025,28.881
17,0.02665,28.925
18,0.028317,28.963
19,0.029983,28.981
20,0.031683,28.981
21,0.033317,28.995
22,0.034983,28.996
23,0.036633,28.994
24,0.0383,28.994
25,0.039967,28.998
26,0.041633,28.993
27,0.0433,28.995
28,0.044967,28.995
29,0.046633,28.996
30,0.0483,28.998
31,0.049967,28.998
32,0.051633,29.002
33,0.0533,29.004
34,0.054967,29.009
35,0.056633,29.009
36,0.0583,29.009
37,0.059967,29.012
38,0.06175,29.013
39,0.0633,29.013
40,0.064967,29.01
41,0.066633,29.007
42,0.0683,29.001
43,0.069967,29.001
44,0.071633,29.003
45,0.0733,28.999
46,0.07496700000000001,28.999
47,0.07663300000000001,28.997
48,0.07829999999999999,28.996
49,0.079967,28.989
50,0.081633,28.989
51,0.0833,28.99
52,0.084967,29.001
53,0.086633,29.005
54,0.0883,29.005
55,0.08996700000000001,29.01
56,0.09163300000000001,29.008
57,0.09329999999999999,29.005
58,0.094967,29.005
59,0.09661699999999999,29.002
60,0.098283,29
61,0.09995,29.009
62,0.101617,29.009
63,0.103283,29.01
64,0.10495,29.016
65,0.106633,29.016
66,0.1083,29.022
67,0.10995,29.022
68,0.111617,29.022
69,0.113283,29.022
70,0.11495,29.025
71,0.116633,29.03
72,0.118283,29.031
73,0.11995,29.031
74,0.121617,29.034
75,0.123283,29.036
76,0.12495,29.035
77,0.126617,29.035
78,0.128283,29.03
79,0.12995,29.028
80,0.131617,29.028
81,0.133283,29.025
82,0.13495,29.028
83,0.136617,29.03
84,0.138283,29.03
85,0.13995,29.031
86,0.141617,29.029
87,0.143283,29.022
88,0.14495,29.022
89,0.14665,29.015
90,0.148283,29.012
91,0.14995,29.014
92,0.151617,29.014
93,0.153283,29.013
94,0.15495,29.012
95,0.156617,29.012
96,0.158267,29.007
97,0.159933,29.004
98,0.1616,29
99,0.163267,29
100,0.164933,29.006
101,0.1666,29.011
102,0.168267,29.01
103,0.169933,29.01
104,0.1716,29.017
105,0.173267,29.019
106,0.174933,29.021
107,0.1766,29.021
108,0.178267,29.02
109,0.180033,29.019
110,0.1816,29.019
111,0.183267,29.019
112,0.184933,29.019
113,0.1866,29.021
114,0.188267,29.021
115,0.189933,29.02
116,0.1916,29.018
117,0.193267,29.019
118,0.194933,29.019
119,0.1966,29.014
120,0.198267,29.013
121,0.199933,29.008
122,0.2016,29.008
123,0.203267,29.005
124,0.204933,29.01
125,0.2066,29.014
126,0.208267,29.014
127,0.209933,29.023
128,0.2116,29.028
129,0.213267,29.028
130,0.214933,29.034
131,0.216583,29.036
132,0.21825,29.031
133,0.219917,29.031
134,0.221583,29.028
135,0.22325,29.024
136,0.224917,29.019
137,0.226583,29.019
138,0.22825,29.023
139,0.229917,29.024
140,0.231583,29.027
141,0.23325,29.027
142,0.234917,29.035
143,0.236583,29.039
144,0.23825,29.046
145,0.239917,29.046
146,0.241583,29.055
147,0.24325,29.056
148,0.244917,29.056
149,0.246583,29.062
150,0.248267,29.063
151,0.249917,29.056
152,0.251583,29.056
153,0.25325,29.058
154,0.254917,29.052
155,0.2566,29.049
156,0.25825,29.049
157,0.259917,29.05
158,0.261583,29.047
159,0.26325,29.045
160,0.264917,29.045
161,0.266583,29.047
162,0.26825,29.049
163,0.269917,29.049
164,0.271583,29.054
165,0.27325,29.062
166,0.274917,29.066
167,0.276583,29.066
168,0.278233,29.073
169,0.2799,29.077
170,0.28165,29.083
171,0.283233,29.083
172,0.2849,29.096
173,0.286567,29.104
174,0.288233,29.11
175,0.2899,29.11
176,0.291567,29.114
177,0.293233,29.111
178,0.2949,29.11
179,0.296567,29.11
180,0.298333,29.118
181,0.2999,29.122
182,0.301567,29.122
183,0.303233,29.128
184,0.3049,29.137
185,0.306567,29.148
186,0.308233,29.148
187,0.3099,29.166
188,0.311567,29.184
189,0.313233,29.205
190,0.314883,29.205
191,0.31655,29.228
192,0.318217,29.256
193,0.319883,29.295
194,0.32155,29.295
195,0.323217,29.338
196,0.324883,29.388
197,0.326567,29.388
198,0.328217,29.441
199,0.329883,29.498
200,0.33155,29.563
201,0.333217,29.563
202,0.334883,29.639
203,0.336533,29.728
204,0.3382,29.828
205,0.339867,29.828
206,0.341533,29.935
207,0.3432,30.054
208,0.344867,30.182
209,0.346533,30.182
210,0.3482,30.318
211,0.349867,30.462
212,0.35155,30.62
213,0.3532,30.62
214,0.354867,30.788
215,0.356533,30.974
216,0.3582,30.974
217,0.359867,31.188
218,0.361533,31.421
219,0.3632,31.679
220,0.364867,31.679
221,0.366533,31.966
222,0.3682,32.279
223,0.369867,32.634
224,0.371533,32.634
225,0.3732,33.039
226,0.374867,33.486
227,0.376533,33.985
228,0.3782,33.985
229,0.379867,34.525
230,0.381533,35.115
231,0.383217,35.115
232,0.384867,35.768
233,0.386533,36.49
234,0.3882,37.284
235,0.389867,37.284
236,0.391533,38.153
237,0.3932,39.095
238,0.394867,40.116
239,0.396533,40.116
240,0.398183,41.22
241,0.399933,42.416
242,0.401517,43.717
243,0.403183,43.717
244,0.40485,45.133
245,0.406517,46.667
246,0.408183,46.667
247,0.40985,48.333
248,0.411517,50.13
249,0.413183,52.066
250,0.41485,52.066
251,0.416617,54.152
252,0.418183,56.396
253,0.41985,58.801
254,0.421517,58.801
255,0.423183,61.374
256,0.42485,64.116
257,0.426517,67.023
258,0.428183,67.023
259,0.42985,70.102
260,0.431517,73.34699999999999
261,0.433267,76.74299999999999
262,0.43485,76.74299999999999
263,0.436517,80.28400000000001
264,0.438183,83.952
265,0.43985,83.952
266,0.44155,87.73099999999999
267,0.443183,91.605
268,0.44485,95.557
269,0.446517,95.557
270,0.448183,99.55800000000001
271,0.44985,103.586
272,0.451517,107.63
273,0.453183,107.63
274,0.454833,111.655
275,0.4565,115.644
276,0.458167,119.58
277,0.459833,119.58
278,0.4615,123.434
279,0.463167,127.193
280,0.464833,127.193
281,0.4665,130.845
282,0.468167,134.372
283,0.469833,137.768
284,0.4715,137.768
285,0.4732,141.027
286,0.474833,144.138
287,0.4765,147.091
288,0.478167,147.091
289,0.479833,149.888
290,0.4815,152.523
291,0.483167,154.998
292,0.484833,154.998
293,0.4865,157.325
294,0.488167,159.494
295,0.489833,161.507
296,0.4915,161.507
297,0.493167,163.373
298,0.494833,165.086
299,0.4965,165.086
300,0.498167,166.658
301,0.499833,168.101
302,0.5014999999999999,169.41
303,0.503167,169.41
304,0.504833,170.588
305,0.5065,171.643
306,0.508167,172.587
307,0.509833,172.587
308,0.5115,173.417
309,0.513167,174.141
310,0.514817,174.764
311,0.5165,174.764
312,0.518217,175.284
313,0.519833,175.721
314,0.521483,175.721
315,0.52315,176.084
316,0.524817,176.368
317,0.526517,176.581
318,0.52815,176.581
319,0.529817,176.72
320,0.531483,176.786
321,0.53315,176.796
322,0.534867,176.796
323,0.536483,176.745
324,0.53815,176.637
325,0.539817,176.485
326,0.541483,176.485
327,0.54315,176.282
328,0.544817,176.042
329,0.5464830000000001,175.762
330,0.54815,175.762
331,0.549817,175.445
332,0.551583,175.092
333,0.55315,175.092
334,0.554817,174.701
335,0.5564829999999999,174.285
336,0.55815,173.836
337,0.559817,173.836
338,0.561483,173.365
339,0.56315,172.868
340,0.564817,172.347
341,0.566483,172.347
342,0.56815,171.809
343,0.569817,171.249
344,0.571483,170.676
345,0.57315,170.676
346,0.574817,170.092
347,0.576467,169.494
348,0.578133,169.494
349,0.5798,168.883
350,0.581467,168.258
351,0.583133,167.617
352,0.5848,167.617
353,0.586467,166.966
354,0.588133,166.302
355,0.5898,165.627
356,0.591467,165.627
357,0.593133,164.947
358,0.5948,164.258
359,0.596467,163.567
360,0.598133,163.567
361,0.5998,162.869
362,0.601467,162.171
363,0.603133,162.171
364,0.6048,161.464
365,0.606467,160.753
366,0.608117,160.04
367,0.609783,160.04
368,0.61145,159.314
369,0.613117,158.592
370,0.614783,157.867
371,0.616467,157.867
372,0.618117,157.139
373,0.619783,156.415
374,0.6214499999999999,155.681
375,0.623117,155.681
376,0.624783,154.949
377,0.62645,154.229
378,0.628117,153.508
379,0.629783,153.508
380,0.63145,152.8
381,0.633117,152.092
382,0.634783,152.092
383,0.636467,151.379
384,0.6381,150.664
385,0.639767,149.938
386,0.641433,149.938
387,0.6431,149.212
388,0.644767,148.483
389,0.646433,147.766
390,0.6481,147.766
391,0.649767,147.056
392,0.651433,146.348
393,0.6531169999999999,145.644
394,0.654767,145.644
395,0.656433,144.932
396,0.6581,144.219
397,0.659767,144.219
398,0.661433,143.503
399,0.6631,142.792
400,0.664767,142.086
401,0.6664330000000001,142.086
402,0.6681,141.391
403,0.669817,140.709
404,0.6714329999999999,140.024
405,0.6731,140.024
406,0.674767,139.333
407,0.676433,138.64
408,0.6781,137.937
409,0.679767,137.937
410,0.681433,137.237
411,0.6831,136.557
412,0.684767,135.878
413,0.686433,135.878
414,0.6881,135.217
415,0.689767,134.563
416,0.691433,134.563
417,0.6931,133.909
418,0.694767,133.255
419,0.696433,132.594
420,0.698083,132.594
421,0.69975,131.94
422,0.701417,131.285
423,0.703083,130.633
424,0.70475,130.633
425,0.706417,129.982
426,0.708083,129.334
427,0.70975,128.686
428,0.711417,128.686
429,0.713083,128.044
430,0.71475,127.41
431,0.716417,127.41
432,0.718083,126.772
433,0.71975,126.136
434,0.721417,125.505
435,0.723083,125.505
436,0.72475,124.878
437,0.726417,124.251
438,0.728083,123.634
439,0.72975,123.634
440,0.731417,123.018
441,0.733083,122.412
442,0.73475,121.805
443,0.736417,121.805
444,0.738083,121.196
445,0.73975,120.588
446,0.741417,119.98
447,0.743083,119.98
448,0.74475,119.387
449,0.746417,118.79
450,0.7480830000000001,118.79
451,0.74975,118.205
452,0.751417,117.617
453,0.7530829999999999,117.025
454,0.754817,117.025
455,0.756483,116.443
456,0.758067,115.862
457,0.759733,115.283
458,0.7614,115.283
459,0.7630670000000001,114.713
460,0.764733,114.139
461,0.7664,113.568
462,0.7680670000000001,113.568
463,0.769733,113.009
464,0.7714,112.447
465,0.7730669999999999,112.447
466,0.774733,111.898
467,0.7764,111.349
468,0.778067,110.796
469,0.779733,110.796
470,0.7814,110.244
471,0.783067,109.696
472,0.784733,109.151
473,0.7864,109.151
474,0.788183,108.615
475,0.789733,108.086
476,0.7914,107.558
477,0.793067,107.558
478,0.794733,107.041
479,0.7964,106.523
480,0.798067,106.523
481,0.799733,106.007
482,0.8014,105.49
483,0.803067,104.966
484,0.804733,104.966
485,0.8064,104.447
486,0.808067,103.933
487,0.809733,103.428
488,0.8114,103.428
489,0.813067,102.927
490,0.814733,102.431
491,0.816383,101.937
492,0.8180500000000001,101.937
493,0.819717,101.443
494,0.821383,100.953
495,0.8230499999999999,100.463
496,0.824717,100.463
497,0.826383,99.97499999999999
498,0.828067,99.48999999999999
499,0.82975,99.48999999999999
500,0.831383,99.01000000000001
501,0.83305,98.527
502,0.834717,98.051
503,0.836383,98.051
504,0.83805,97.583
505,0.839717,97.11499999999999
506,0.841383,96.65000000000001
507,0.84305,96.65000000000001
508,0.8447170000000001,96.188
509,0.846383,95.726
510,0.84805,95.26900000000001
511,0.8497169999999999,95.26900000000001
512,0.851383,94.821
513,0.85305,94.371
514,0.8547169999999999,94.371
515,0.856383,93.93000000000001
516,0.85805,93.48699999999999
517,0.859717,93.041
518,0.861383,93.041
519,0.86305,92.605
520,0.864717,92.16500000000001
521,0.866383,91.732
522,0.86805,91.732
523,0.869717,91.304
524,0.871383,90.874
525,0.8731,90.449
526,0.874717,90.449
527,0.876383,90.02500000000001
528,0.878033,89.604
529,0.8797,89.18600000000001
530,0.881367,89.18600000000001
531,0.883033,88.767
532,0.8847,88.351
533,0.886367,88.351
534,0.888033,87.946
535,0.889733,87.542
536,0.891367,87.139
537,0.893033,87.139
538,0.8947000000000001,86.735
539,0.89635,86.333
540,0.8980669999999999,85.93899999999999
541,0.899683,85.93899999999999
542,0.90135,85.548
543,0.903033,85.16
544,0.904683,84.771
545,0.906467,84.771
546,0.908017,84.381
547,0.909683,83.991
548,0.91135,83.991
549,0.913017,83.61
550,0.914683,83.229
551,0.91635,82.849
552,0.918017,82.849
553,0.919683,82.48099999999999
554,0.92135,82.11
555,0.923033,81.73999999999999
556,0.924683,81.73999999999999
557,0.92635,81.378
558,0.928017,81.01900000000001
559,0.929683,80.66200000000001
560,0.93135,80.66200000000001
561,0.933017,80.30800000000001
562,0.934683,79.94799999999999
563,0.936333,79.94799999999999
564,0.9379999999999999,79.59399999999999
565,0.939667,79.244
566,0.941333,78.89700000000001
567,0.9429999999999999,78.89700000000001
568,0.944667,78.56
569,0.946333,78.223
570,0.948,77.89
571,0.949667,77.89
572,0.951333,77.55800000000001
573,0.953,77.226
574,0.954667,76.898
575,0.956333,76.898
576,0.958,76.56999999999999
577,0.959667,76.236
578,0.961333,75.907
579,0.963,75.907
580,0.9646670000000001,75.56999999999999
581,0.96635,75.23999999999999
582,0.968,75.23999999999999
583,0.9696669999999999,74.91500000000001
584,0.971333,74.592
585,0.973,74.27800000000001
586,0.974667,74.27800000000001
587,0.976333,73.96599999999999
588,0.978,73.657
589,0.979683,73.351
590,0.981333,73.351
591,0.983,73.047
592,0.984667,72.742
593,0.986333,72.44
594,0.988,72.44
595,0.989667,72.13800000000001
596,0.9913999999999999,71.84099999999999
597,0.993,71.84099999999999
598,0.994667,71.54600000000001
599,0.996317,71.26000000000001
600,0.997983,70.982
601,0.99965,70.982
602,1.001317,70.699
603,1.002983,70.41500000000001
604,1.00465,70.127
605,1.006317,70.127
606,1.007983,69.836
607,1.00965,69.54900000000001
608,1.011317,69.268
609,1.012983,69.268
610,1.01465,68.988
611,1.016317,68.709
612,1.017983,68.42700000000001
613,1.01965,68.42700000000001
614,1.021317,68.15000000000001
615,1.022983,67.883
616,1.0247,67.883
617,1.026317,67.61499999999999
618,1.027983,67.34999999999999
619,1.02965,67.089
620,1.031317,67.089
621,1.032983,66.82299999999999
622,1.03465,66.56699999999999
623,1.036317,66.31399999999999
624,1.037983,66.31399999999999
625,1.03965,66.05200000000001
626,1.041317,65.801
627,1.042983,65.544
628,1.04465,65.544
629,1.046333,65.295
630,1.047983,65.05200000000001
631,1.04965,65.05200000000001
632,1.051317,64.803
633,1.052983,64.55200000000001
634,1.05465,64.309
635,1.0563,64.309
636,1.057967,64.071
637,1.059633,63.833
638,1.0613,63.602
639,1.062967,63.602
640,1.064633,63.364
641,1.0663,63.132
642,1.067967,62.899
643,1.069633,62.899
644,1.0713,62.665
645,1.073,62.434
646,1.074633,62.199
647,1.0763,62.199
648,1.077967,61.975
649,1.079633,61.753
650,1.0813,61.753
651,1.082967,61.529
652,1.084633,61.308
653,1.0863,61.082
654,1.087967,61.082
655,1.089633,60.861
656,1.0913,60.645
657,1.092967,60.434
658,1.094633,60.434
659,1.0963,60.224
660,1.097967,60.016
661,1.099633,59.81
662,1.1013,59.81
663,1.102967,59.598
664,1.104633,59.391
665,1.1063,59.391
666,1.107967,59.182
667,1.109717,58.977
668,1.1113,58.777
669,1.112967,58.777
670,1.114667,58.575
671,1.116283,58.379
672,1.11795,58.18
673,1.119617,58.18
674,1.121283,57.979
675,1.12295,57.793
676,1.124617,57.599
677,1.126367,57.599
678,1.12795,57.406
679,1.129617,57.223
680,1.131283,57.028
681,1.13295,57.028
682,1.134617,56.836
683,1.136283,56.653
684,1.13795,56.653
685,1.139617,56.457
686,1.141283,56.271
687,1.143033,56.089
688,1.144617,56.089
689,1.146283,55.902
690,1.14795,55.727
691,1.149617,55.547
692,1.1513,55.547
693,1.15295,55.372
694,1.154617,55.193
695,1.156283,55.02
696,1.15795,55.02
697,1.159717,54.844
698,1.161283,54.672
699,1.162967,54.672
700,1.164617,54.502
701,1.166283,54.32
702,1.16795,54.154
703,1.169617,54.154
704,1.171283,53.981
705,1.17295,53.816
706,1.174617,53.662
707,1.176283,53.662
708,1.177933,53.504
709,1.1796,53.346
710,1.181267,53.188
711,1.182933,53.188
712,1.1846,53.03
713,1.186267,52.869
714,1.187917,52.869
715,1.1896,52.711
716,1.19125,52.553
717,1.192917,52.392
718,1.194583,52.392
719,1.19625,52.232
720,1.197917,52.078
721,1.199583,51.917
722,1.20125,51.917
723,1.202917,51.756
724,1.204583,51.603
725,1.20625,51.452
726,1.207917,51.452
727,1.209583,51.311
728,1.21125,51.17
729,1.212917,51.03
730,1.214583,51.03
731,1.21625,50.882
732,1.217917,50.743
733,1.219583,50.743
734,1.22125,50.603
735,1.222917,50.461
736,1.224583,50.321
737,1.22625,50.321
738,1.227933,50.175
739,1.229583,50.035
740,1.23125,49.903
741,1.232917,49.903
742,1.234583,49.769
743,1.236283,49.638
744,1.2379,49.504
745,1.239567,49.504
746,1.241233,49.366
747,1.2429,49.229
748,1.24465,49.091
749,1.246233,49.091
750,1.2479,48.953
751,1.249567,48.827
752,1.251233,48.827
753,1.2529,48.703
754,1.254567,48.573
755,1.256233,48.454
756,1.2579,48.454
757,1.259567,48.326
758,1.261267,48.203
759,1.2629,48.078
760,1.264567,48.078
761,1.266233,47.948
762,1.2679,47.823
763,1.269567,47.698
764,1.271233,47.698
765,1.2729,47.581
766,1.274567,47.467
767,1.276233,47.467
768,1.278017,47.354
769,1.279567,47.242
770,1.281233,47.126
771,1.2829,47.126
772,1.284567,47.008
773,1.286233,46.883
774,1.2879,46.761
775,1.289567,46.761
776,1.291233,46.65
777,1.2929,46.541
778,1.294567,46.429
779,1.296217,46.429
780,1.297883,46.316
781,1.29955,46.197
782,1.301217,46.197
783,1.302883,46.079
784,1.30455,45.968
785,1.306217,45.856
786,1.307883,45.856
787,1.30955,45.744
788,1.311217,45.633
789,1.312883,45.526
790,1.31455,45.526
791,1.316217,45.429
792,1.317883,45.331
793,1.31955,45.241
794,1.321217,45.241
795,1.322883,45.147
796,1.324567,45.04
797,1.326283,44.938
798,1.327883,44.938
799,1.32955,44.834
800,1.331217,44.73
801,1.332883,44.73
802,1.3346,44.629
803,1.336217,44.525
804,1.337883,44.422
805,1.33955,44.422
806,1.341217,44.325
807,1.342883,44.238
808,1.34455,44.143
809,1.346217,44.143
810,1.347883,44.045
811,1.34955,43.949
812,1.351217,43.849
813,1.352883,43.849
814,1.35455,43.762
815,1.3562,43.678
816,1.357867,43.678
817,1.359533,43.591
818,1.3612,43.499
819,1.362933,43.411
820,1.364533,43.411
821,1.3662,43.317
822,1.367867,43.223
823,1.369533,43.14
824,1.3712,43.14
825,1.372867,43.052
826,1.374533,42.964
827,1.3762,42.88
828,1.377867,42.88
829,1.3796,42.792
830,1.3812,42.703
831,1.382867,42.703
832,1.384533,42.618
833,1.3862,42.529
834,1.387867,42.442
835,1.389533,42.442
836,1.3912,42.355
837,1.392867,42.271
838,1.394533,42.194
839,1.396317,42.194
840,1.397867,42.116
841,1.399533,42.037
842,1.4012,41.955
843,1.402867,41.955
844,1.404533,41.871
845,1.4062,41.791
846,1.407867,41.713
847,1.409533,41.713
848,1.4112,41.641
849,1.412867,41.567
850,1.414533,41.567
851,1.4162,41.487
852,1.41785,41.405
853,1.419517,41.32
854,1.421183,41.32
855,1.42285,41.239
856,1.424517,41.166
857,1.426183,41.093
858,1.42785,41.093
859,1.429517,41.024
860,1.431183,40.957
861,1.43285,40.885
862,1.434517,40.885
863,1.436183,40.816
864,1.43785,40.744
865,1.439517,40.744
866,1.441183,40.668
867,1.44285,40.592
868,1.444517,40.524
869,1.446183,40.524
870,1.44785,40.462
871,1.449517,40.395
872,1.451183,40.333
873,1.45285,40.333
874,1.454517,40.263
875,1.456183,40.183
876,1.45785,40.112
877,1.459517,40.112
878,1.461183,40.039
879,1.46285,39.973
880,1.464517,39.915
881,1.466183,39.915
882,1.46785,39.851
883,1.469517,39.786
884,1.471183,39.786
885,1.47285,39.715
886,1.474517,39.644
887,1.476183,39.577
888,1.477833,39.577
889,1.4795,39.513
890,1.48125,39.458
891,1.482817,39.396
892,1.484483,39.396
893,1.48615,39.333
894,1.487817,39.273
895,1.489483,39.205
896,1.49115,39.205
897,1.492817,39.149
898,1.494483,39.095
899,1.49615,39.095
900,1.49785,39.046
901,1.499483,38.995
902,1.501167,38.938
903,1.502817,38.938
904,1.504483,38.881
905,1.50615,38.822
906,1.507817,38.762
907,1.509483,38.762
908,1.51115,38.701
909,1.512817,38.641
910,1.514567,38.579
911,1.51615,38.579
912,1.517817,38.516
913,1.519483,38.463
914,1.52115,38.408
915,1.522817,38.408
916,1.524483,38.355
917,1.52615,38.297
918,1.527817,38.297
919,1.529483,38.237
920,1.53115,38.186
921,1.532817,38.132
922,1.534483,38.132
923,1.536133,38.085
924,1.5378,38.036
925,1.539467,37.982
926,1.541133,37.982
927,1.5428,37.931
928,1.544467,37.885
929,1.546133,37.839
930,1.5478,37.839
931,1.549467,37.788
932,1.551183,37.736
933,1.5528,37.736
934,1.554467,37.685
935,1.556133,37.63
936,1.5578,37.578
937,1.559467,37.578
938,1.561133,37.526
939,1.5628,37.474
940,1.564467,37.434
941,1.566133,37.434
942,1.5678,37.393
943,1.5695,37.344
944,1.571133,37.299
945,1.5728,37.299
946,1.574467,37.241
947,1.576133,37.182
948,1.5778,37.182
949,1.579467,37.132
950,1.581133,37.086
951,1.5828,37.039
952,1.584467,37.039
953,1.586133,36.996
954,1.5878,36.954
955,1.589467,36.906
956,1.591133,36.906
957,1.5928,36.868
958,1.594467,36.827
959,1.596117,36.786
960,1.597783,36.786
961,1.599467,36.745
962,1.601117,36.698
963,1.602783,36.65
964,1.60445,36.65
965,1.606117,36.606
966,1.607783,36.559
967,1.60945,36.559
968,1.611117,36.514
969,1.612783,36.473
970,1.61445,36.427
