"ID","sea_time","fid_signal"
1,0,139.982
2,0.001667,139.982
3,0.003333,139.892
4,0.005,140.205
5,0.006667,140.056
6,0.008399999999999999,140.056
7,0.009983000000000001,139.81
8,0.01165,139.683
9,0.013317,139.683
10,0.014983,139.311
11,0.01665,139.259
12,0.018317,139.318
13,0.019983,139.318
14,0.02165,139.438
15,0.023317,139.765
16,0.025017,139.676
17,0.02665,139.676
18,0.028317,139.877
19,0.029983,140.026
20,0.03165,139.9
21,0.033317,139.9
22,0.034983,139.847
23,0.03665,139.967
24,0.038317,139.967
25,0.039983,139.907
26,0.041767,140.019
27,0.043317,140.153
28,0.044983,140.153
29,0.04665,139.751
30,0.048317,139.78
31,0.049983,139.631
32,0.05165,139.631
33,0.053317,139.885
34,0.054983,139.974
35,0.05665,140.049
36,0.05835,140.049
37,0.059983,139.944
38,0.06165,139.698
39,0.063317,139.996
40,0.064983,139.996
41,0.06665,140.123
42,0.0683,140.227
43,0.069967,140.227
44,0.071633,140.153
45,0.0733,139.676
46,0.07496700000000001,139.43
47,0.07663300000000001,139.43
48,0.07829999999999999,139.289
49,0.079967,139.266
50,0.081633,139.333
51,0.0833,139.333
52,0.084967,139.304
53,0.086633,139.438
54,0.0883,139.795
55,0.08996700000000001,139.795
56,0.09163300000000001,140.056
57,0.09329999999999999,140.205
58,0.094967,140.205
59,0.096633,140.317
60,0.0983,140.332
61,0.099967,140.414
62,0.101633,140.414
63,0.1033,140.294
64,0.104967,140.063
65,0.106633,139.937
66,0.1083,139.937
67,0.109967,139.706
68,0.111633,139.624
69,0.1133,139.631
70,0.114967,139.631
71,0.116633,139.445
72,0.1183,139.378
73,0.119967,139.445
74,0.121633,139.445
75,0.1233,139.654
76,0.124967,139.579
77,0.1267,139.579
78,0.128283,139.855
79,0.12995,139.84
80,0.131617,139.676
81,0.133283,139.676
82,0.13495,139.87
83,0.136633,139.669
84,0.138317,139.773
85,0.13995,139.773
86,0.141617,140.056
87,0.143283,140.049
88,0.14495,140.212
89,0.146617,140.212
90,0.148283,140.518
91,0.14995,140.212
92,0.151617,140.212
93,0.153283,140.324
94,0.15495,140.347
95,0.156617,140.16
96,0.158283,140.16
97,0.16005,140.369
98,0.161617,140.354
99,0.163283,140.138
100,0.16495,140.138
101,0.166617,140.123
102,0.168283,139.907
103,0.16995,139.587
104,0.171617,139.587
105,0.173283,139.654
106,0.17495,139.371
107,0.176617,139.348
108,0.178283,139.348
109,0.17995,139.594
110,0.181617,139.49
111,0.183283,139.49
112,0.18495,139.862
113,0.186617,139.862
114,0.188267,139.825
115,0.189933,139.825
116,0.1916,140.145
117,0.193267,140.093
118,0.194933,140.272
119,0.1966,140.272
120,0.198267,140.503
121,0.199933,140.488
122,0.2016,140.54
123,0.2033,140.54
124,0.204933,140.354
125,0.206583,140.049
126,0.20825,140.049
127,0.209917,139.773
128,0.211583,139.728
129,0.21325,139.616
130,0.214917,139.616
131,0.216583,139.527
132,0.21825,139.602
133,0.219933,139.318
134,0.221583,139.318
135,0.22325,139.49
136,0.224917,139.698
137,0.226583,139.855
138,0.22825,139.855
139,0.229917,140.198
140,0.231583,140.28
141,0.23325,140.28
142,0.234917,140.466
143,0.236583,140.399
144,0.23825,140.153
145,0.239917,140.153
146,0.241583,140.361
147,0.24325,140.145
148,0.244967,140.332
149,0.246583,140.332
150,0.24825,140.54
151,0.2499,140.332
152,0.251567,140.466
153,0.253233,140.466
154,0.2549,140.399
155,0.256567,140.361
156,0.258233,140.332
157,0.2599,140.332
158,0.261567,139.974
159,0.263233,139.683
160,0.2649,139.683
161,0.266567,139.587
162,0.268233,139.728
163,0.2699,140.019
164,0.271567,140.019
165,0.273233,140.138
166,0.2749,140.16
167,0.276567,140.183
168,0.278333,140.183
169,0.2799,140.16
170,0.281567,140.183
171,0.283233,140.332
172,0.2849,140.332
173,0.286567,140.302
174,0.288233,140.287
175,0.2899,140.287
176,0.291567,140.198
177,0.293233,139.922
178,0.2949,139.624
179,0.296567,139.624
180,0.298233,139.46
181,0.2999,139.751
182,0.301567,140.287
183,0.303233,140.287
184,0.3049,140.749
185,0.306567,140.965
186,0.308267,141.069
187,0.309883,141.069
188,0.31155,140.823
189,0.313217,140.905
190,0.314883,141.3
191,0.31655,141.3
192,0.318217,141.568
193,0.319883,141.926
194,0.32155,141.926
195,0.323217,142.701
196,0.324883,143.521
197,0.32655,144.556
198,0.328217,144.556
199,0.329883,145.756
200,0.33155,146.851
201,0.333217,148.11
202,0.334883,148.11
203,0.33655,149.168
204,0.338217,150.234
205,0.339883,150.934
206,0.34155,150.934
207,0.343217,151.731
208,0.344883,152.603
209,0.34655,152.603
210,0.348217,153.326
211,0.349933,153.75
212,0.35155,153.832
213,0.353217,153.832
214,0.354883,153.758
215,0.35655,153.34
216,0.358217,152.96
217,0.359883,152.96
218,0.36155,152.513
219,0.363283,151.657
220,0.364883,151.001
221,0.366533,151.001
222,0.368217,150.703
223,0.369867,150.137
224,0.371533,149.682
225,0.3732,149.682
226,0.374867,149.213
227,0.376533,148.386
228,0.3782,148.386
229,0.379867,147.656
230,0.381533,147.104
231,0.3832,146.471
232,0.384883,146.471
233,0.386533,145.905
234,0.3882,145.368
235,0.389867,144.929
236,0.391533,144.929
237,0.3932,144.742
238,0.394867,144.556
239,0.396633,144.258
240,0.398217,144.258
241,0.399867,143.953
242,0.401533,143.565
243,0.4032,143.565
244,0.404867,143.126
245,0.406533,143.118
246,0.4082,142.924
247,0.409867,142.924
248,0.411533,142.746
249,0.4132,142.805
250,0.414867,142.53
251,0.416533,142.53
252,0.4182,142.403
253,0.419867,142.485
254,0.421533,142.276
255,0.4232,142.276
256,0.424867,142.224
257,0.426533,142.075
258,0.428217,141.628
259,0.42985,141.628
260,0.431517,141.68
261,0.433183,141.799
262,0.43485,141.799
263,0.436517,141.755
264,0.438183,141.777
265,0.43985,141.77
266,0.441517,141.77
267,0.443183,141.762
268,0.44485,142.023
269,0.446517,142.246
270,0.448183,142.246
271,0.44985,142.09
272,0.451517,141.688
273,0.453183,141.323
274,0.45485,141.323
275,0.456517,141.189
276,0.458183,141.412
277,0.45985,141.412
278,0.461517,141.591
279,0.463183,141.554
280,0.46485,141.546
281,0.466517,141.546
282,0.468183,140.89
283,0.469883,140.488
284,0.471517,140.816
285,0.473183,140.816
286,0.47485,140.943
287,0.476517,141.218
288,0.478183,141.166
289,0.47985,141.166
290,0.481517,141.144
291,0.483183,140.965
292,0.48485,140.965
293,0.486517,141.196
294,0.488167,141.829
295,0.489833,141.867
296,0.4915,141.867
297,0.493167,141.941
298,0.494833,142.045
299,0.4965,141.747
300,0.498267,141.747
301,0.499817,141.442
302,0.501483,141.837
303,0.50315,142.083
304,0.504817,142.083
305,0.506483,142.388
306,0.50815,143.088
307,0.509817,143.491
308,0.511483,143.491
309,0.51315,143.871
310,0.514933,144.37
311,0.516483,144.37
312,0.51815,144.802
313,0.519817,145.197
314,0.521483,146.195
315,0.52315,146.195
316,0.524817,147.656
317,0.526483,149.161
318,0.52815,151.195
319,0.529817,151.195
320,0.531483,153.236
321,0.53315,155.412
322,0.534817,158.206
323,0.536483,158.206
324,0.53815,161.067
325,0.539817,164.554
326,0.541483,164.554
327,0.54315,168.689
328,0.544817,173.129
329,0.5464830000000001,178.032
330,0.54815,178.032
331,0.5498,183.418
332,0.551467,189.185
333,0.553133,195.913
334,0.5548,195.913
335,0.556467,203.371
336,0.558133,211.097
337,0.5598,219.807
338,0.561467,219.807
339,0.56315,228.74
340,0.5648,238.419
341,0.5665,248.827
342,0.568133,248.827
343,0.5698,259.802
344,0.5714669999999999,271.44
345,0.57315,271.44
346,0.5748,283.442
347,0.576467,296.123
348,0.578133,309.229
349,0.5798,309.229
350,0.581467,322.647
351,0.583133,336.789
352,0.5848,351.317
353,0.586467,351.317
354,0.588133,366.01
355,0.5898,380.859
356,0.591467,395.842
357,0.593133,395.842
358,0.5948,411.071
359,0.596467,425.868
360,0.598133,425.868
361,0.5998,440.814
362,0.601467,455.752
363,0.603133,470.348
364,0.6048,470.348
365,0.606467,485.398
366,0.608117,500.202
367,0.609783,514.6559999999999
368,0.61145,514.6559999999999
369,0.613117,528.5
370,0.614783,541.605
371,0.616467,554.74
372,0.618117,554.74
373,0.619783,567.287
374,0.6214499999999999,579.6180000000001
375,0.623117,579.6180000000001
376,0.624783,591.688
377,0.62645,603.0650000000001
378,0.628117,613.846
379,0.629783,613.846
380,0.63145,623.897
381,0.6332,633.769
382,0.6348,642.948
383,0.636467,642.948
384,0.638117,651.6950000000001
385,0.639783,660.278
386,0.64145,667.87
387,0.643117,667.87
388,0.644783,674.926
389,0.64645,681.788
390,0.6481170000000001,687.838
391,0.6499,687.838
392,0.65145,693.3579999999999
393,0.6531169999999999,698.35
394,0.654783,698.35
395,0.65645,702.925
396,0.658117,707.053
397,0.659783,711.247
398,0.66145,711.247
399,0.663117,715.0839999999999
400,0.664783,718.258
401,0.66645,721.015
402,0.6681,721.015
403,0.669767,722.87
404,0.6714329999999999,724.725
405,0.6731,725.932
406,0.674767,725.932
407,0.676433,726.648
408,0.6781,727.691
409,0.679767,727.691
410,0.681433,728.1900000000001
411,0.6831,728.615
412,0.684767,729.278
413,0.686433,729.278
414,0.6881,729.375
415,0.689767,729.308
416,0.691433,729.27
417,0.6931,729.27
418,0.694767,728.98
419,0.696433,728.6369999999999
420,0.6981000000000001,727.884
421,0.699767,727.884
422,0.701433,726.849
423,0.7030999999999999,725.746
424,0.7048,724.174
425,0.706433,724.174
426,0.7081,722.691
427,0.709767,721.194
428,0.711433,721.194
429,0.7131,719.495
430,0.714767,717.67
431,0.71645,715.8
432,0.7181,715.8
433,0.719767,714.071
434,0.721433,712.082
435,0.7231,710.256
436,0.7247670000000001,710.256
437,0.726433,708.669
438,0.728083,706.598
439,0.72975,704.534
440,0.731417,704.534
441,0.733083,703.141
442,0.7348,701.301
443,0.736417,701.301
444,0.738083,698.79
445,0.73975,696.242
446,0.741417,693.284
447,0.743083,693.284
448,0.74475,690.505
449,0.746417,688.307
450,0.7480830000000001,686.288
451,0.74975,686.288
452,0.75145,684.246
453,0.7530829999999999,681.788
454,0.75475,679.545
455,0.756417,679.545
456,0.758083,676.99
457,0.75975,674.248
458,0.761417,672.02
459,0.763083,672.02
460,0.76475,669.792
461,0.766417,667.535
462,0.7681829999999999,667.535
463,0.76975,665.2329999999999
464,0.771417,662.588
465,0.773083,659.883
466,0.77475,659.883
467,0.776417,657.588
468,0.778083,655.271
469,0.7797500000000001,652.79
470,0.781417,652.79
471,0.783083,650.1
472,0.784783,647.627
473,0.786417,644.982
474,0.788067,644.982
475,0.789717,642.628
476,0.7913829999999999,640.497
477,0.79305,640.497
478,0.794717,638.03
479,0.796383,635.773
480,0.79805,633.627
481,0.799717,633.627
482,0.801383,631.206
483,0.80305,628.628
484,0.804717,626.355
485,0.806383,626.355
486,0.80805,623.785
487,0.809733,621.349
488,0.811383,619.27
489,0.8130500000000001,619.27
490,0.814717,617.1319999999999
491,0.816383,614.807
492,0.8180500000000001,614.807
493,0.819717,612.9
494,0.821383,610.828
495,0.8230499999999999,608.273
496,0.824717,608.273
497,0.826383,606.343
498,0.82805,604.175
499,0.829717,601.932
500,0.831383,601.932
501,0.83305,599.578
502,0.834717,597.164
503,0.836383,594.728
504,0.83805,594.728
505,0.839717,592.314
506,0.841383,590.4059999999999
507,0.84305,588.2380000000001
508,0.8447170000000001,588.2380000000001
509,0.846383,586.383
510,0.848033,584.431
511,0.8497,584.431
512,0.851367,582.427
513,0.853133,580.4299999999999
514,0.8547,578.351
515,0.856367,578.351
516,0.858033,576.22
517,0.8597,574.343
518,0.861367,572.562
519,0.8630330000000001,572.562
520,0.8647,570.491
521,0.866367,568.7619999999999
522,0.8680330000000001,566.788
523,0.869717,566.788
524,0.871367,564.836
525,0.8730329999999999,562.675
526,0.8747,562.675
527,0.876367,560.8200000000001
528,0.878033,558.816
529,0.8797,556.633
530,0.881367,556.633
531,0.883033,554.837
532,0.8847,552.885
533,0.886483,551.09
534,0.888033,551.09
535,0.8897,549.413
536,0.891367,547.6849999999999
537,0.893033,545.651
538,0.8947000000000001,545.651
539,0.896367,543.542
540,0.8980669999999999,541.5599999999999
541,0.8997000000000001,539.787
542,0.901367,539.787
543,0.903033,537.813
544,0.9046999999999999,536.151
545,0.906367,536.151
546,0.908017,534.527
547,0.909683,532.977
548,0.91135,531.852
549,0.913017,531.852
550,0.914683,530.235
551,0.91635,528.2910000000001
552,0.918017,526.13
553,0.919683,526.13
554,0.92135,523.7910000000001
555,0.923017,522.0700000000001
556,0.924717,520.788
557,0.92635,520.788
558,0.928017,519.365
559,0.929683,517.957
560,0.93135,517.957
561,0.933017,516.2430000000001
562,0.934683,514.343
563,0.93635,512.689
564,0.938017,512.689
565,0.939683,511.058
566,0.94135,509.478
567,0.943017,507.936
568,0.9446830000000001,507.936
569,0.94635,506.401
570,0.948017,504.71
571,0.9496830000000001,503.048
572,0.95135,503.048
573,0.953017,501.633
574,0.9546829999999999,499.591
575,0.95635,497.796
576,0.958017,497.796
577,0.959683,495.955
578,0.96135,493.802
579,0.963017,493.802
580,0.964683,492.632
581,0.96635,491.5
582,0.968,490.002
583,0.9696669999999999,490.002
584,0.971333,488.788
585,0.973,487.193
586,0.974667,485.666
587,0.9763500000000001,485.666
588,0.978,484.534
589,0.979667,483.088
590,0.981333,481.568
591,0.983017,481.568
592,0.984667,480.302
593,0.986333,478.812
594,0.9880330000000001,478.812
595,0.989667,477.545
596,0.991333,475.988
597,0.993,474.252
598,0.994667,474.252
599,0.996333,472.799
600,0.9980329999999999,471.45
601,0.999667,470.05
602,1.001333,470.05
603,1.003,468.53
604,1.004783,466.712
605,1.006333,465.103
606,1.008,465.103
607,1.009667,464.089
608,1.011333,462.994
609,1.013,461.757
610,1.014667,461.757
611,1.016333,460.312
612,1.018,458.583
613,1.019667,458.583
614,1.021333,457.101
615,1.023,455.901
616,1.024667,454.649
617,1.026333,454.649
618,1.027983,453.256
619,1.02965,451.803
620,1.031317,450.529
621,1.032983,450.529
622,1.03465,449.091
623,1.036317,447.787
624,1.037983,446.528
625,1.03965,446.528
626,1.041317,445.142
627,1.042983,443.697
628,1.04465,443.697
629,1.046317,442.483
630,1.047983,441.38
631,1.04965,440.218
632,1.051317,440.218
633,1.052983,439.204
634,1.05465,437.9
635,1.056317,436.395
636,1.057983,436.395
637,1.05965,435.114
638,1.061317,433.929
639,1.063017,432.685
640,1.06465,432.685
641,1.066317,431.702
642,1.067983,430.457
643,1.06965,430.457
644,1.071317,429.064
645,1.072983,428.215
646,1.07465,426.851
647,1.076317,426.851
648,1.077983,425.421
649,1.079633,424.452
650,1.0813,423.253
651,1.082967,423.253
652,1.084633,422.135
653,1.0863,421.077
654,1.08795,419.714
655,1.0897,419.714
656,1.091283,418.231
657,1.09295,416.793
658,1.094617,415.78
659,1.096283,415.78
660,1.09795,414.528
661,1.099617,413.522
662,1.101283,413.522
663,1.10295,412.598
664,1.104617,411.451
665,1.106283,410.415
666,1.10795,410.415
667,1.109617,409.149
668,1.111283,408.031
669,1.11295,406.809
670,1.114617,406.809
671,1.116283,405.848
672,1.11795,405.11
673,1.119617,404.321
674,1.121283,404.321
675,1.123067,403.255
676,1.124617,401.884
677,1.126283,401.884
678,1.12795,400.066
679,1.129617,398.71
680,1.131283,397.608
681,1.13295,397.608
682,1.134617,396.922
683,1.136283,396.386
684,1.137967,395.268
685,1.139617,395.268
686,1.141283,394.426
687,1.14295,393.175
688,1.144617,392.064
689,1.146283,392.064
690,1.147933,390.939
691,1.1496,389.628
692,1.151283,388.667
693,1.152933,388.667
694,1.1546,387.572
695,1.156267,386.707
696,1.157933,386.707
697,1.1596,386
698,1.161267,385.18
699,1.162933,384.137
700,1.1646,384.137
701,1.166267,382.975
702,1.167933,381.76
703,1.1696,380.613
704,1.171267,380.613
705,1.172933,379.719
706,1.1746,378.743
707,1.176267,377.923
708,1.177933,377.923
709,1.1796,376.843
710,1.181267,375.785
711,1.182933,375.785
712,1.1846,374.846
713,1.186267,374.034
714,1.187933,373.2
715,1.1896,373.2
716,1.191267,372.477
717,1.192933,371.523
718,1.1946,370.152
719,1.196267,370.152
720,1.197933,369.243
721,1.1996,368.237
722,1.201267,367.217
723,1.202933,367.217
724,1.2046,366.203
725,1.20625,365.049
726,1.207933,364.251
727,1.209617,364.251
728,1.211317,363.566
729,1.212917,362.851
730,1.214583,362.851
731,1.21625,362.031
732,1.217917,361.167
733,1.219583,360.31
734,1.22125,360.31
735,1.222917,359.394
736,1.224583,358.44
737,1.22625,357.196
738,1.227917,357.196
739,1.229583,356.205
740,1.23125,355.668
741,1.232917,354.834
742,1.234583,354.834
743,1.23625,354.223
744,1.237917,353.657
745,1.239583,353.657
746,1.241367,352.681
747,1.242917,351.958
748,1.244583,351.056
749,1.24625,351.056
750,1.247917,349.805
751,1.249583,348.978
752,1.25125,348.188
753,1.252917,348.188
754,1.254583,347.331
755,1.25625,346.556
756,1.257917,345.737
757,1.259583,345.737
758,1.26125,344.671
759,1.262917,343.807
760,1.264583,343.807
761,1.26625,342.891
762,1.2679,341.736
763,1.269567,340.819
764,1.271233,340.819
765,1.2729,339.888
766,1.274567,339.329
767,1.276233,338.882
768,1.2779,338.882
769,1.279567,338.525
770,1.281233,337.891
771,1.2829,336.908
772,1.284567,336.908
773,1.286267,336.125
774,1.2879,335.515
775,1.289567,334.896
776,1.291233,334.896
777,1.2929,334.583
778,1.294567,333.905
779,1.296233,333.905
780,1.2979,332.862
781,1.299567,331.827
782,1.301233,330.999
783,1.3029,330.999
784,1.304567,330.031
785,1.306233,329.278
786,1.3079,328.504
787,1.309567,328.504
788,1.311233,327.52
789,1.3129,326.835
790,1.314567,326.022
791,1.316233,326.022
792,1.3179,325.404
793,1.319567,324.756
794,1.321233,324.756
795,1.3229,323.936
796,1.324567,323.087
797,1.326283,322.372
798,1.327883,322.372
799,1.32955,321.642
800,1.331217,321.172
801,1.332883,320.934
802,1.33455,320.934
803,1.336217,320.338
804,1.337883,319.816
805,1.33955,318.982
806,1.341217,318.982
807,1.342883,318.125
808,1.34455,317.618
809,1.346217,316.866
810,1.347883,316.866
811,1.34955,316.106
812,1.351217,315.517
813,1.3529,315.517
814,1.354567,314.951
815,1.356267,314.392
816,1.357883,313.863
817,1.35965,313.863
818,1.361217,313.163
819,1.362883,312.366
820,1.36455,311.419
821,1.366217,311.419
822,1.367883,310.89
823,1.36955,310.309
824,1.3712,309.788
825,1.372867,309.788
826,1.374533,309.289
827,1.3762,308.573
828,1.377867,308.573
829,1.379533,307.672
830,1.3812,306.755
831,1.382867,306.197
832,1.384533,306.197
833,1.3862,305.578
834,1.38785,305.012
835,1.389517,304.9
836,1.391183,304.9
837,1.39285,304.2
838,1.394517,303.514
839,1.396183,303.067
840,1.39785,303.067
841,1.399517,302.277
842,1.401183,301.547
843,1.40285,301.547
844,1.404517,300.735
845,1.406183,299.871
846,1.40785,299.342
847,1.409517,299.342
848,1.411183,299.23
849,1.41285,299.133
850,1.414517,298.813
851,1.416183,298.813
852,1.41785,297.904
853,1.419517,297.435
854,1.421217,296.727
855,1.42285,296.727
856,1.424517,296.265
857,1.426183,295.766
858,1.42785,294.7
859,1.429533,294.7
860,1.431183,293.985
861,1.43285,293.195
862,1.434517,293.195
863,1.436183,292.622
864,1.43785,292.1
865,1.439517,291.757
866,1.441183,291.757
867,1.44285,291.415
868,1.444517,290.819
869,1.446183,290.237
870,1.447833,290.237
871,1.4495,289.343
872,1.451167,288.732
873,1.452833,288.129
874,1.4545,288.129
875,1.456167,287.995
876,1.457833,287.853
877,1.4595,287.853
878,1.461217,287.436
879,1.462833,287.019
880,1.4645,286.065
881,1.466167,286.065
882,1.467833,285.447
883,1.4695,284.649
884,1.471167,284.031
885,1.472833,284.031
886,1.4745,283.726
887,1.476167,282.943
888,1.477917,282.243
889,1.4795,282.243
890,1.481167,281.773
891,1.482833,280.984
892,1.4845,280.462
893,1.486167,280.462
894,1.487833,280.172
895,1.4895,279.769
896,1.491167,279.769
897,1.492833,279.352
898,1.4946,278.89
899,1.496167,278.279
900,1.497833,278.279
901,1.4995,277.691
902,1.501183,277.437
903,1.502833,276.931
904,1.5045,276.931
905,1.506167,276.528
906,1.507817,276.193
907,1.509483,275.657
908,1.51115,275.657
909,1.512817,275.396
910,1.514483,274.926
911,1.51615,274.926
912,1.517817,274.293
913,1.519483,273.637
914,1.52115,273.056
915,1.522817,273.056
916,1.524483,272.818
917,1.526183,272.386
918,1.527817,271.969
919,1.529483,271.969
920,1.53115,271.536
921,1.532817,270.97
922,1.534483,270.821
923,1.53615,270.821
924,1.537817,270.382
925,1.539483,270.121
926,1.54115,269.823
927,1.542817,269.823
928,1.544483,269.108
929,1.54615,268.668
930,1.547817,268.668
931,1.549483,268.318
932,1.55115,267.67
933,1.552817,267.267
934,1.554483,267.267
935,1.55615,266.984
936,1.557817,266.507
937,1.559483,266.038
938,1.56115,266.038
939,1.562833,265.375
940,1.564483,264.846
941,1.56615,264.25
942,1.5678,264.25
943,1.5695,263.9
944,1.571133,263.877
945,1.5728,263.877
946,1.574467,263.557
947,1.576133,263.147
948,1.5778,262.7
949,1.579517,262.7
950,1.581133,262.164
951,1.5828,261.702
952,1.584467,261.411
953,1.586133,261.411
