"ID","sea_time","fid_signal"
1,0,1171.604
2,0.001667,1171.604
3,0.00335,1169.89
4,0.00505,1168.102
5,0.006667,1168.177
6,0.008333,1168.177
7,0.01,1167.953
8,0.011667,1164.898
9,0.013333,1164.377
10,0.015033,1164.377
11,0.016667,1162.812
12,0.01835,1160.13
13,0.02,1160.949
14,0.021667,1160.949
15,0.023333,1162.663
16,0.025,1163.483
17,0.02665,1163.483
18,0.028317,1165.941
19,0.029983,1167.357
20,0.03165,1165.792
21,0.033317,1165.792
22,0.034983,1166.612
23,0.03665,1167.208
24,0.038317,1165.345
25,0.039983,1165.345
26,0.04165,1162.812
27,0.043317,1160.726
28,0.044983,1159.608
29,0.04665,1159.608
30,0.048317,1159.459
31,0.049983,1163.706
32,0.05165,1163.706
33,0.053317,1165.792
34,0.054983,1165.941
35,0.056633,1166.463
36,0.0583,1166.463
37,0.059967,1167.506
38,0.061633,1170.635
39,0.0633,1172.498
40,0.064967,1172.498
41,0.066633,1176.298
42,0.0683,1175.329
43,0.069967,1170.71
44,0.071633,1170.71
45,0.0733,1166.612
46,0.07496700000000001,1165.345
47,0.07663300000000001,1163.259
48,0.07838299999999999,1163.259
49,0.079967,1163.483
50,0.081667,1165.569
51,0.0833,1165.569
52,0.084967,1163.855
53,0.086633,1164.004
54,0.0883,1161.546
55,0.08996700000000001,1161.546
56,0.09163300000000001,1162.142
57,0.09329999999999999,1162.142
58,0.094967,1161.993
59,0.096633,1161.993
60,0.0983,1165.42
61,0.099967,1166.016
62,0.101633,1168.027
63,0.1033,1168.027
64,0.104967,1168.475
65,0.106633,1167.357
66,0.1083,1167.357
67,0.109967,1165.867
68,0.1117,1164.004
69,0.1133,1165.271
70,0.114967,1165.271
71,0.116617,1165.196
72,0.118283,1165.345
73,0.11995,1166.314
74,0.121617,1166.314
75,0.123283,1163.632
76,0.12495,1164.153
77,0.126617,1164.749
78,0.128283,1164.749
79,0.12995,1161.844
80,0.131617,1163.259
81,0.133283,1162.514
82,0.13495,1162.514
83,0.136617,1164.973
84,0.138283,1166.09
85,0.13995,1166.09
86,0.141617,1163.781
87,0.143283,1165.867
88,0.14495,1164.6
89,0.146617,1164.6
90,0.148283,1164.749
91,0.14995,1166.686
92,0.151617,1165.047
93,0.1533,1165.047
94,0.15495,1165.718
95,0.156667,1166.016
96,0.158283,1167.655
97,0.15995,1167.655
98,0.161617,1169.443
99,0.163283,1170.337
100,0.16495,1170.337
101,0.166617,1169.741
102,0.168283,1168.177
103,0.16995,1166.314
104,0.171617,1166.314
105,0.173283,1163.483
106,0.174933,1164.675
107,0.1766,1165.122
108,0.178267,1165.122
109,0.179933,1163.706
110,0.1816,1162.142
111,0.183267,1160.428
112,0.184933,1160.428
113,0.1866,1162.216
114,0.188267,1166.537
115,0.189933,1166.91
116,0.1916,1166.91
117,0.193283,1167.58
118,0.194933,1168.922
119,0.196633,1168.922
120,0.198267,1166.463
121,0.199933,1170.486
122,0.2016,1173.019
123,0.203267,1173.019
124,0.204933,1168.102
125,0.2066,1168.847
126,0.208267,1166.388
127,0.209933,1166.388
128,0.2116,1164.824
129,0.213267,1167.506
130,0.214933,1165.792
131,0.2166,1165.792
132,0.218267,1165.047
133,0.219933,1162.887
134,0.2216,1162.887
135,0.223283,1163.93
136,0.224983,1165.643
137,0.2266,1168.996
138,0.228267,1168.996
139,0.230033,1170.486
140,0.2316,1169.667
141,0.233267,1169.592
142,0.234933,1169.592
143,0.236583,1165.792
144,0.23825,1163.483
145,0.239917,1161.322
146,0.241583,1161.322
147,0.24325,1162.142
148,0.244917,1166.537
149,0.246717,1168.698
150,0.24825,1168.698
151,0.249917,1171.082
152,0.251583,1172.87
153,0.25325,1172.87
154,0.254917,1171.008
155,0.256583,1173.168
156,0.25825,1171.455
157,0.259917,1171.455
158,0.261583,1167.729
159,0.26325,1168.4
160,0.264917,1166.165
161,0.266583,1166.165
162,0.26825,1165.122
163,0.269917,1164.675
164,0.271583,1163.334
165,0.27325,1163.334
166,0.274917,1162.812
167,0.276583,1164.749
168,0.27825,1164.749
169,0.279917,1164.377
170,0.281583,1165.345
171,0.28325,1166.463
172,0.284917,1166.463
173,0.286583,1166.388
174,0.28825,1168.251
175,0.289917,1164.451
176,0.291583,1164.451
177,0.29325,1164.302
178,0.2949,1163.259
179,0.2966,1162.887
180,0.298233,1162.887
181,0.2999,1164.451
182,0.301567,1163.036
183,0.303233,1163.036
184,0.3049,1165.792
185,0.306567,1164.973
186,0.308233,1164.377
187,0.3099,1164.377
188,0.311567,1168.326
189,0.313233,1168.922
190,0.31495,1172.945
191,0.316567,1172.945
192,0.318217,1176.074
193,0.319883,1173.243
194,0.32155,1171.231
195,0.323217,1171.231
196,0.324883,1170.337
197,0.32655,1170.561
198,0.328217,1173.69
199,0.329883,1173.69
200,0.331633,1174.435
201,0.333217,1172.721
202,0.334883,1172.721
203,0.33655,1174.584
204,0.338217,1175.776
205,0.339883,1178.086
206,0.34155,1178.086
207,0.343217,1183.003
208,0.344883,1185.387
209,0.34655,1189.411
210,0.3483,1189.411
211,0.349883,1193.434
212,0.35155,1193.062
213,0.353217,1190.752
214,0.354883,1190.752
215,0.356533,1190.826
216,0.3582,1189.858
217,0.359867,1189.858
218,0.361533,1190.379
219,0.3632,1191.646
220,0.364983,1190.305
221,0.366533,1190.305
222,0.368217,1187.995
223,0.369867,1187.697
224,0.371533,1189.411
225,0.373233,1189.411
226,0.374867,1187.474
227,0.376533,1186.579
228,0.3782,1185.313
229,0.379867,1185.313
230,0.381533,1180.023
231,0.3832,1177.266
232,0.384867,1179.352
233,0.386533,1179.352
234,0.3882,1178.384
235,0.389867,1181.513
236,0.391533,1181.513
237,0.3932,1183.003
238,0.394867,1178.235
239,0.396533,1177.192
240,0.3982,1177.192
241,0.399867,1172.87
242,0.40155,1172.796
243,0.4032,1173.541
244,0.404867,1173.541
245,0.406533,1172.349
246,0.4082,1172.87
247,0.409867,1172.2
248,0.411533,1172.2
249,0.4132,1169.518
250,0.414867,1167.432
251,0.416517,1167.432
252,0.418183,1165.941
253,0.41985,1162.142
254,0.421517,1162.589
255,0.423183,1162.589
256,0.42485,1162.589
257,0.426517,1163.259
258,0.428183,1164.228
259,0.42985,1164.228
260,0.431517,1164.675
261,0.433183,1168.624
262,0.43485,1171.231
263,0.436517,1171.231
264,0.438183,1174.212
265,0.439867,1176.223
266,0.441517,1176.223
267,0.443183,1176.596
268,0.44485,1173.392
269,0.446517,1173.168
270,0.448183,1173.168
271,0.4499,1171.529
272,0.451517,1170.039
273,0.453183,1171.529
274,0.45485,1171.529
275,0.456517,1168.996
276,0.458183,1173.317
277,0.45985,1174.584
278,0.461517,1174.584
279,0.463183,1175.478
280,0.46485,1174.957
281,0.4666,1173.541
282,0.468183,1173.541
283,0.46985,1172.796
284,0.471517,1172.274
285,0.473183,1172.274
286,0.474833,1172.945
287,0.476517,1170.337
288,0.478167,1166.91
289,0.479833,1166.91
290,0.4815,1166.761
291,0.483283,1166.016
292,0.484833,1165.271
293,0.4865,1165.271
294,0.488167,1165.792
295,0.489833,1164.004
296,0.4915,1164.079
297,0.493167,1164.079
298,0.49485,1164.973
299,0.4965,1167.282
300,0.498167,1167.282
301,0.499833,1169.294
302,0.5014999999999999,1171.306
303,0.503167,1174.137
304,0.504833,1174.137
305,0.5065,1176.67
306,0.508167,1178.16
307,0.509833,1181.364
308,0.5115,1181.364
309,0.513167,1183.003
310,0.514833,1187.921
311,0.5165,1196.489
312,0.5181829999999999,1196.489
313,0.519833,1207.143
314,0.5215,1220.48
315,0.523167,1229.569
316,0.524833,1229.569
317,0.5265,1240.894
318,0.5281670000000001,1252.666
319,0.529833,1252.666
320,0.5315,1265.258
321,0.5331669999999999,1284.331
322,0.534833,1306.459
323,0.536483,1306.459
324,0.53815,1329.482
325,0.539817,1356.155
326,0.541483,1384.094
327,0.54315,1384.094
328,0.544817,1411.289
329,0.5464830000000001,1443.475
330,0.54815,1479.685
331,0.549817,1479.685
332,0.5514829999999999,1518.503
333,0.55315,1562.312
334,0.554817,1562.312
335,0.5564829999999999,1608.655
336,0.55815,1653.06
337,0.559817,1701.489
338,0.561483,1701.489
339,0.56315,1754.761
340,0.564817,1807.362
341,0.566483,1867.712
342,0.568183,1867.712
343,0.569817,1928.508
344,0.571483,1988.411
345,0.57315,2051.666
346,0.574867,2051.666
347,0.576483,2114.177
348,0.5781500000000001,2180.412
349,0.579817,2245.232
350,0.581483,2245.232
351,0.5831499999999999,2311.766
352,0.584867,2377.406
353,0.586483,2377.406
354,0.58815,2442.151
355,0.589817,2510.697
356,0.591483,2573.803
357,0.593167,2573.803
358,0.594817,2637.506
359,0.596483,2697.036
360,0.598133,2752.617
361,0.5998,2752.617
362,0.6016,2807.677
363,0.603133,2859.905
364,0.6048,2909.079
365,0.606467,2909.079
366,0.608133,2956.614
367,0.609783,3004.968
368,0.61145,3004.968
369,0.613117,3049.746
370,0.614783,3094.226
371,0.6164500000000001,3134.161
372,0.618117,3134.161
373,0.619783,3171.712
374,0.6214499999999999,3206.134
375,0.623117,3241.375
376,0.624783,3241.375
377,0.62645,3272.667
378,0.628117,3299.788
379,0.629783,3324.822
380,0.63145,3324.822
381,0.633117,3345.534
382,0.634783,3362.969
383,0.63645,3362.969
384,0.638117,3375.336
385,0.639783,3384.426
386,0.64145,3388.599
387,0.643117,3388.599
388,0.644783,3392.771
389,0.64645,3397.837
390,0.6481170000000001,3400.221
391,0.649783,3400.221
392,0.65145,3401.488
393,0.6531169999999999,3399.178
394,0.654767,3393.963
395,0.656433,3393.963
396,0.658117,3389.12
397,0.659817,3380.925
398,0.661483,3371.462
399,0.66315,3371.462
400,0.664767,3364.012
401,0.6664330000000001,3353.432
402,0.6681,3353.432
403,0.669767,3339.35
404,0.6714329999999999,3326.312
405,0.6731,3309.548
406,0.674767,3309.548
407,0.676433,3294.572
408,0.6781,3279.224
409,0.679767,3261.119
410,0.681433,3261.119
411,0.6831,3242.493
412,0.684767,3222.823
413,0.6865,3204.42
414,0.6881,3204.42
415,0.689767,3186.613
416,0.691433,3167.391
417,0.6931,3167.391
418,0.694767,3146.902
419,0.696433,3128.797
420,0.6981000000000001,3111.958
421,0.699767,3111.958
422,0.701433,3094.003
423,0.7030999999999999,3075.674
424,0.704767,3058.836
425,0.706433,3058.836
426,0.7081,3040.955
427,0.709767,3024.042
428,0.711433,3005.117
429,0.7131,3005.117
430,0.714767,2983.212
431,0.716417,2960.041
432,0.718083,2941.042
433,0.71985,2941.042
434,0.721417,2925.098
435,0.723083,2906.471
436,0.72475,2906.471
437,0.726417,2892.614
438,0.728083,2876.446
439,0.72975,2860.576
440,0.731417,2860.576
441,0.733083,2846.271
442,0.734783,2827.57
443,0.736483,2807.975
444,0.738083,2807.975
445,0.73975,2789.646
446,0.741417,2773.106
447,0.743083,2758.652
448,0.74475,2758.652
449,0.746417,2742.931
450,0.7480830000000001,2725.944
451,0.74975,2725.944
452,0.751417,2707.392
453,0.7530829999999999,2689.734
454,0.75475,2671.927
455,0.756417,2671.927
456,0.758083,2656.952
457,0.75975,2644.286
458,0.761417,2629.832
459,0.763083,2629.832
460,0.76475,2616.793
461,0.766417,2602.264
462,0.768083,2587.065
463,0.76975,2587.065
464,0.771417,2574.027
465,0.773083,2562.925
466,0.77475,2551.526
467,0.7764,2551.526
468,0.778067,2539.754
469,0.779733,2527.088
470,0.7814,2527.088
471,0.783067,2512.857
472,0.784733,2498.552
473,0.7864,2487.302
474,0.788067,2487.302
475,0.789733,2477.467
476,0.7914,2468.228
477,0.793067,2454.668
478,0.794733,2454.668
479,0.7964,2440.065
480,0.798083,2423.376
481,0.799767,2407.282
482,0.8014,2407.282
483,0.803067,2395.809
484,0.8048,2385.601
485,0.8064,2385.601
486,0.808067,2375.245
487,0.809733,2364.889
488,0.8114,2352.893
489,0.813067,2352.893
490,0.814733,2339.482
491,0.8164,2325.922
492,0.818067,2312.437
493,0.819733,2312.437
494,0.8214,2302.006
495,0.823067,2293.289
496,0.82475,2284.199
497,0.8264,2284.199
498,0.828067,2277.94
499,0.8297330000000001,2268.18
500,0.8314,2268.18
501,0.83305,2255.812
502,0.8347329999999999,2248.66
503,0.836383,2237.931
504,0.838183,2237.931
505,0.839717,2227.947
506,0.841383,2216.399
507,0.84305,2203.956
508,0.8447170000000001,2203.956
509,0.846383,2193.004
510,0.84805,2183.765
511,0.8497169999999999,2175.942
512,0.851383,2175.942
513,0.85305,2166.629
514,0.8547169999999999,2159.178
515,0.856383,2149.492
516,0.85805,2149.492
517,0.859717,2143.905
518,0.861383,2135.485
519,0.86305,2135.485
520,0.864717,2124.384
521,0.866383,2114.549
522,0.86805,2105.832
523,0.869717,2105.832
524,0.871383,2099.276
525,0.87305,2091.527
526,0.874733,2085.492
527,0.876383,2085.492
528,0.87805,2073.571
529,0.879717,2065.897
530,0.881383,2059.937
531,0.88305,2059.937
532,0.884717,2053.156
533,0.886383,2050.176
534,0.88805,2050.176
535,0.889717,2043.247
536,0.891383,2033.263
537,0.893083,2024.323
538,0.894717,2024.323
539,0.896367,2014.339
540,0.898033,2005.994
541,0.8997000000000001,2003.983
542,0.90135,2003.983
543,0.903017,1998.32
544,0.904683,1990.87
545,0.90635,1983.717
546,0.908017,1983.717
547,0.909683,1975.819
548,0.91135,1969.635
549,0.913017,1963.899
550,0.914683,1963.899
551,0.91635,1957.938
552,0.918017,1949.593
553,0.919683,1949.593
554,0.92135,1942.217
555,0.923067,1938.194
556,0.924683,1929.104
557,0.92635,1929.104
558,0.928017,1924.038
559,0.929683,1918.45
560,0.93135,1910.776
561,0.933017,1910.776
562,0.934683,1907.796
563,0.93635,1901.09
564,0.938017,1896.322
565,0.939683,1896.322
566,0.94135,1890.957
567,0.943017,1881.868
568,0.9446830000000001,1881.868
569,0.946383,1872.629
570,0.948017,1863.614
571,0.9496830000000001,1856.834
572,0.95135,1856.834
573,0.953017,1853.555
574,0.9546829999999999,1849.681
575,0.956467,1846.85
576,0.958,1846.85
577,0.959667,1842.678
578,0.961333,1837.015
579,0.963,1835.152
580,0.9646670000000001,1835.152
581,0.966333,1828.074
582,0.968,1820.996
583,0.9696669999999999,1816.824
584,0.971333,1816.824
585,0.973,1809.821
586,0.974667,1807.287
587,0.976333,1807.287
588,0.978,1803.264
589,0.979667,1797.304
590,0.981333,1793.206
591,0.983017,1793.206
592,0.984667,1788.512
593,0.986333,1784.861
594,0.988,1780.242
595,0.989667,1780.242
596,0.991333,1773.387
597,0.993,1769.885
598,0.994667,1766.011
599,0.996333,1766.011
600,0.998,1762.584
601,0.999683,1758.859
602,1.001333,1758.859
603,1.003,1752.749
604,1.004667,1749.396
605,1.006333,1746.267
606,1.008,1746.267
607,1.009667,1744.851
608,1.011333,1741.722
609,1.013,1738.295
610,1.01465,1738.295
611,1.016317,1736.134
612,1.017983,1734.272
613,1.01965,1732.185
614,1.021317,1732.185
615,1.023033,1728.088
616,1.02465,1719.668
617,1.026317,1719.668
618,1.027983,1712.218
619,1.02965,1704.916
620,1.031317,1701.34
621,1.032983,1701.34
622,1.03465,1699.999
623,1.036317,1699.328
624,1.037983,1696.05
625,1.03965,1696.05
626,1.041383,1689.643
627,1.042983,1683.906
628,1.04465,1676.977
629,1.046317,1676.977
630,1.047983,1673.326
631,1.04965,1669.824
632,1.051317,1667.813
633,1.052983,1667.813
634,1.05465,1664.758
635,1.056317,1661.703
636,1.058033,1661.703
637,1.05965,1657.978
638,1.061317,1652.688
639,1.063,1650.825
640,1.06465,1650.825
641,1.066317,1647.472
642,1.067983,1645.982
643,1.06965,1644.343
644,1.071317,1644.343
645,1.072983,1639.649
646,1.074733,1637.638
647,1.0763,1633.54
648,1.077967,1633.54
649,1.079633,1629.591
650,1.0813,1626.462
651,1.082967,1626.462
652,1.084633,1621.991
653,1.0863,1621.395
654,1.087967,1619.682
655,1.089633,1619.682
656,1.0913,1618.192
657,1.092967,1617.67
658,1.094633,1612.827
659,1.0963,1612.827
660,1.097983,1611.188
661,1.099633,1607.761
662,1.1013,1603.141
663,1.102967,1603.141
664,1.104633,1598.969
665,1.1063,1594.201
666,1.107967,1590.401
667,1.109633,1590.401
668,1.1113,1587.421
669,1.112967,1584.664
670,1.114633,1584.664
671,1.1163,1582.056
672,1.117967,1581.237
673,1.119633,1580.417
674,1.1213,1580.417
675,1.122967,1581.609
676,1.124633,1579.523
677,1.1263,1575.351
678,1.127967,1575.351
679,1.129633,1569.316
680,1.1313,1564.398
681,1.132967,1563.877
682,1.134633,1563.877
683,1.136283,1562.983
684,1.13795,1563.281
685,1.139617,1563.281
686,1.141283,1562.461
687,1.14295,1559.928
688,1.144617,1559.556
689,1.146283,1559.556
690,1.14795,1558.587
691,1.149617,1557.469
692,1.151283,1555.011
693,1.152983,1555.011
694,1.154617,1551.062
695,1.156283,1548.454
696,1.15795,1544.356
697,1.15965,1544.356
698,1.161283,1541.153
699,1.16295,1536.31
700,1.164617,1534.224
701,1.166317,1534.224
702,1.16795,1531.169
703,1.169617,1528.561
704,1.171283,1528.561
705,1.17295,1528.636
706,1.174617,1527.593
707,1.17635,1526.624
708,1.17795,1526.624
709,1.179617,1523.569
710,1.181283,1520.142
711,1.18295,1514.479
712,1.184617,1514.479
713,1.186283,1511.574
714,1.18795,1512.617
715,1.189617,1512.021
716,1.191283,1512.021
717,1.193033,1513.809
718,1.1946,1515.001
719,1.19625,1515.001
720,1.197917,1512.468
721,1.199583,1510.68
722,1.20125,1507.178
723,1.202917,1507.178
724,1.204583,1501.813
725,1.20625,1501.813
726,1.207917,1500.1
727,1.209667,1500.1
728,1.21125,1499.727
729,1.212917,1500.994
730,1.214583,1498.386
731,1.21625,1498.386
732,1.217917,1495.257
733,1.219583,1491.457
734,1.22125,1491.457
735,1.222917,1487.061
736,1.224583,1485.124
737,1.22625,1485.869
738,1.227917,1485.869
739,1.229583,1485.795
740,1.23125,1484.305
741,1.232917,1484.528
742,1.234583,1484.528
743,1.23625,1481.324
744,1.237917,1477.525
745,1.2396,1477.003
746,1.24125,1477.003
747,1.24295,1472.235
748,1.244583,1469.478
749,1.24625,1468.956
750,1.247917,1468.956
751,1.249583,1467.392
752,1.25125,1465.231
753,1.252917,1465.231
754,1.254583,1466.647
755,1.256233,1465.678
756,1.2579,1464.561
757,1.259567,1464.561
758,1.261233,1465.157
759,1.2629,1464.486
760,1.264567,1460.91
761,1.266233,1460.91
762,1.2679,1458.526
763,1.269567,1453.906
764,1.271233,1449.585
765,1.2729,1449.585
766,1.274567,1449.585
767,1.276233,1446.158
768,1.2779,1446.158
769,1.279567,1447.201
770,1.281233,1447.275
771,1.2829,1444.146
772,1.284567,1444.146
773,1.286233,1445.636
774,1.2879,1444.742
775,1.289567,1441.24
776,1.291233,1441.24
777,1.2929,1439.005
778,1.29465,1437.962
779,1.296233,1434.237
780,1.2979,1434.237
781,1.299567,1434.237
782,1.301233,1434.088
783,1.3029,1432.151
784,1.304567,1432.151
785,1.306233,1432.002
786,1.3079,1429.245
787,1.309567,1429.245
788,1.311283,1429.245
789,1.3129,1427.904
790,1.314583,1425.818
791,1.316217,1425.818
792,1.317883,1424.178
793,1.31955,1422.018
794,1.321217,1419.634
795,1.322883,1419.634
796,1.32455,1420.006
797,1.326217,1420.602
798,1.327983,1419.857
799,1.32955,1419.857
800,1.331217,1419.187
801,1.332883,1418.963
802,1.33455,1418.963
803,1.336217,1418.665
804,1.337883,1416.802
805,1.33955,1415.312
806,1.341217,1415.312
807,1.342883,1412.407
808,1.34455,1409.65
809,1.346217,1410.097
810,1.347883,1410.097
811,1.34955,1412.705
812,1.351217,1413.524
813,1.352883,1413.524
814,1.35455,1413.524
815,1.356217,1412.258
816,1.357883,1409.277
817,1.35955,1405.179
818,1.361217,1405.179
819,1.362883,1406.744
820,1.36455,1404.509
821,1.366217,1404.509
822,1.367883,1401.38
823,1.36955,1404.136
824,1.371217,1401.231
825,1.372883,1401.231
826,1.37455,1400.039
827,1.3762,1395.419
828,1.377867,1391.619
829,1.379533,1391.619
830,1.3812,1388.788
831,1.382867,1388.043
832,1.38455,1388.043
833,1.386267,1388.043
834,1.387867,1386.553
835,1.389533,1383.2
836,1.3912,1383.2
837,1.392867,1383.126
838,1.394567,1386.33
839,1.3962,1384.02
840,1.397867,1384.02
841,1.399533,1384.02
842,1.4012,1383.498
843,1.402883,1380.742
844,1.404533,1380.742
845,1.4062,1381.71
846,1.407867,1381.263
847,1.409533,1380.965
848,1.4112,1380.965
849,1.412883,1379.624
850,1.414533,1377.836
851,1.4162,1377.389
852,1.417867,1377.389
853,1.419533,1374.558
854,1.4212,1375.228
855,1.422867,1375.228
856,1.424533,1374.632
857,1.4262,1375.675
858,1.427867,1374.856
859,1.42955,1374.856
860,1.4312,1373.738
861,1.432867,1373.217
862,1.434517,1372.173
863,1.436183,1372.173
864,1.43785,1374.632
865,1.439517,1373.365
866,1.441183,1370.013
867,1.44285,1370.013
868,1.444517,1366.511
869,1.4463,1362.711
870,1.44785,1362.711
871,1.449517,1361.966
872,1.451183,1364.648
873,1.45285,1364.201
874,1.454517,1364.201
875,1.456183,1361.594
876,1.45785,1362.041
877,1.459517,1359.805
878,1.4612,1359.805
879,1.462883,1359.06
880,1.464517,1361.445
881,1.466183,1359.433
882,1.46785,1359.433
883,1.469517,1361.296
884,1.471183,1364.425
885,1.47285,1364.425
886,1.474517,1364.35
887,1.476183,1364.052
888,1.47785,1360.774
889,1.479517,1360.774
890,1.481183,1356.676
891,1.482867,1351.61
892,1.4845,1350.492
893,1.486167,1350.492
894,1.487833,1351.163
895,1.4895,1351.61
896,1.491167,1352.802
897,1.492833,1352.802
898,1.4945,1349.747
899,1.49615,1347.438
900,1.497817,1343.712
901,1.499483,1343.712
902,1.50115,1342.893
903,1.502817,1342.744
904,1.504483,1342.744
905,1.50615,1342.669
906,1.507817,1345.351
907,1.509483,1342.818
908,1.51115,1342.818
909,1.512817,1342.893
910,1.514483,1340.807
911,1.51615,1340.21
912,1.517817,1340.21
913,1.519483,1340.955
914,1.52115,1339.912
915,1.522817,1339.987
916,1.524483,1339.987
917,1.52615,1338.795
918,1.527817,1338.571
919,1.529483,1338.571
920,1.5312,1338.497
