"ID","sea_time","fid_signal"
1,0,38.055
2,0.001667,38.055
3,0.003333,38.059
4,0.005,38.069
5,0.006667,37.978
6,0.008333,37.978
7,0.01,37.82
8,0.011667,37.687
9,0.013333,37.687
10,0.015,37.611
11,0.016667,37.654
12,0.018333,37.806
13,0.02,37.806
14,0.021667,37.948
15,0.02335,38.034
16,0.025,38.023
17,0.02665,38.023
18,0.028317,38.019
19,0.029983,38.004
20,0.03165,38.003
21,0.033317,38.003
22,0.034983,38.033
23,0.03665,38.054
24,0.038317,38.091
25,0.040033,38.091
26,0.04165,38.1
27,0.04335,38.104
28,0.044983,38.104
29,0.04665,38.11
30,0.048317,38.087
31,0.049967,38.066
32,0.051633,38.066
33,0.0533,38.07
34,0.054967,38.067
35,0.056767,38.049
36,0.0583,38.049
37,0.059967,38.048
38,0.061633,38.031
39,0.0633,38.042
40,0.064983,38.042
41,0.06668300000000001,38.058
42,0.0683,38.067
43,0.069967,38.067
44,0.071633,38.075
45,0.0733,38.058
46,0.07496700000000001,38.058
47,0.07663300000000001,38.058
48,0.078317,38.061
49,0.079967,38.084
50,0.081633,38.072
51,0.0833,38.072
52,0.084967,38.052
53,0.086633,38.041
54,0.0883,38.012
55,0.08996700000000001,38.012
56,0.09163300000000001,38.032
57,0.09329999999999999,38.029
58,0.094967,38.034
59,0.096633,38.034
60,0.0983,38.04
61,0.099967,38.008
62,0.101633,38.008
63,0.1033,38.018
64,0.104967,38.037
65,0.106617,38.07
66,0.108283,38.07
67,0.10995,38.11
68,0.111617,38.112
69,0.113283,38.102
70,0.11495,38.102
71,0.116617,38.06
72,0.118283,38.013
73,0.11995,37.985
74,0.121617,37.985
75,0.123283,37.952
76,0.12495,37.948
77,0.126617,37.948
78,0.128283,37.964
79,0.12995,37.991
80,0.131617,38.015
81,0.133283,38.015
82,0.13495,38.017
83,0.136617,38.012
84,0.138283,38.009
85,0.13995,38.009
86,0.141683,38.011
87,0.143283,38.045
88,0.14495,38.084
89,0.146617,38.084
90,0.148283,38.106
91,0.14995,38.099
92,0.151617,38.099
93,0.153283,38.065
94,0.15495,38.031
95,0.156617,38.009
96,0.158283,38.009
97,0.15995,38.032
98,0.161617,38.029
99,0.163283,38.034
100,0.16495,38.034
101,0.166617,38.037
102,0.168267,38.01
103,0.169933,38.049
104,0.1716,38.049
105,0.173267,38.032
106,0.175033,38.058
107,0.1766,38.046
108,0.178267,38.046
109,0.179933,38.02
110,0.1816,38.026
111,0.183267,38.026
112,0.184933,37.999
113,0.1866,38.035
114,0.188267,38.024
115,0.189933,38.024
116,0.1916,38.004
117,0.193267,37.992
118,0.194933,37.978
119,0.1966,37.978
120,0.198267,37.973
121,0.199933,37.992
122,0.2016,37.992
123,0.203267,37.992
124,0.20495,37.955
125,0.2066,37.968
126,0.208317,37.975
127,0.209933,37.975
128,0.2116,37.992
129,0.213267,38.018
130,0.214933,38.018
131,0.2166,37.998
132,0.218267,37.993
133,0.219933,37.97
134,0.2216,37.97
135,0.223267,37.991
136,0.224933,38.029
137,0.226583,38.057
138,0.22825,38.057
139,0.229917,38.109
140,0.231583,38.105
141,0.23325,38.113
142,0.234917,38.113
143,0.236583,38.105
144,0.23825,38.064
145,0.239917,38.064
146,0.241583,38.059
147,0.24325,38.046
148,0.244917,38.052
149,0.246583,38.052
150,0.24825,38.081
151,0.249917,38.122
152,0.251583,38.188
153,0.25325,38.188
154,0.254917,38.341
155,0.256583,38.551
156,0.25825,38.847
157,0.259983,38.847
158,0.261583,39.262
159,0.26325,39.791
160,0.264917,39.791
161,0.266583,40.53
162,0.26825,41.552
163,0.269917,42.857
164,0.271583,42.857
165,0.27325,44.502
166,0.274917,46.479
167,0.276583,48.856
168,0.278283,48.856
169,0.279917,51.729
170,0.281583,55.047
171,0.28325,58.968
172,0.284917,58.968
173,0.286567,63.358
174,0.28825,68.279
175,0.2899,73.83199999999999
176,0.291567,73.83199999999999
177,0.29335,79.931
178,0.2949,86.694
179,0.296567,86.694
180,0.298233,94.10899999999999
181,0.2999,102.12
182,0.301567,110.801
183,0.303233,110.801
184,0.3049,120.216
185,0.306583,130.314
186,0.308233,141.197
187,0.3099,141.197
188,0.311567,152.852
189,0.313233,165.27
190,0.3149,178.514
191,0.316567,178.514
192,0.318217,192.645
193,0.319883,207.7
194,0.32155,207.7
195,0.323217,223.694
196,0.324883,240.677
197,0.32655,258.701
198,0.328217,258.701
199,0.329883,277.862
200,0.33155,298.184
201,0.333217,319.792
202,0.334883,319.792
203,0.33655,342.745
204,0.338217,367.084
205,0.339883,392.976
206,0.34155,392.976
207,0.343217,420.495
208,0.344883,449.785
209,0.34655,449.785
210,0.348217,481
211,0.349867,514.343
212,0.351533,550.085
213,0.3532,550.085
214,0.354867,588.487
215,0.356533,629.86
216,0.3582,674.522
217,0.359867,674.522
218,0.361533,722.582
219,0.3632,774.144
220,0.364867,829.11
221,0.366533,829.11
222,0.3682,887.061
223,0.369867,947.457
224,0.371533,1009.391
225,0.3732,1009.391
226,0.374867,1071.79
227,0.376533,1133.394
228,0.378233,1133.394
229,0.379867,1192.866
230,0.381533,1248.973
231,0.3832,1300.521
232,0.384867,1300.521
233,0.386533,1346.564
234,0.3882,1386.306
235,0.389867,1419.287
236,0.391533,1419.287
237,0.3932,1445.24
238,0.394933,1464.188
239,0.396533,1476.336
240,0.3982,1476.336
241,0.399867,1481.985
242,0.401533,1481.65
243,0.4032,1481.65
244,0.404867,1475.799
245,0.406533,1465.113
246,0.408183,1450.139
247,0.40985,1450.139
248,0.41165,1431.454
249,0.413183,1409.61
250,0.41485,1385.119
251,0.416517,1385.119
252,0.418183,1358.431
253,0.41985,1329.994
254,0.421517,1300.237
255,0.4232,1300.237
256,0.424933,1269.451
257,0.426517,1237.968
258,0.428183,1206.003
259,0.42985,1206.003
260,0.431517,1173.736
261,0.433183,1141.386
262,0.43485,1141.386
263,0.436517,1109.111
264,0.438183,1077.031
265,0.43985,1045.342
266,0.441517,1045.342
267,0.443183,1014.043
268,0.44485,983.211
269,0.446517,953.011
270,0.448183,953.011
271,0.44985,923.443
272,0.451517,894.582
273,0.453183,866.4690000000001
274,0.45485,866.4690000000001
275,0.456517,839.059
276,0.458183,812.369
277,0.45985,812.369
278,0.461517,786.4
279,0.463183,761.174
280,0.46485,736.712
281,0.466517,736.712
282,0.468167,713.024
283,0.469833,690.116
284,0.4715,668
285,0.473167,668
286,0.474833,646.593
287,0.4765,625.905
288,0.478167,605.9059999999999
289,0.479833,605.9059999999999
290,0.481517,586.576
291,0.483167,567.905
292,0.484833,549.842
293,0.486533,549.842
294,0.488167,532.461
295,0.489833,515.683
296,0.4915,515.683
297,0.493167,499.526
298,0.494867,483.979
299,0.4965,468.956
300,0.498167,468.956
301,0.499833,454.426
302,0.5014999999999999,440.437
303,0.503167,426.959
304,0.504833,426.959
305,0.5065,413.997
306,0.508167,401.525
307,0.509833,389.501
308,0.5115,389.501
309,0.5132330000000001,377.9
310,0.514833,366.671
311,0.5165,366.671
312,0.518167,355.905
313,0.519833,345.518
314,0.5215,335.488
315,0.523167,335.488
316,0.524833,325.864
317,0.5265,316.57
318,0.52815,307.569
319,0.529883,307.569
320,0.531483,298.891
321,0.53315,290.544
322,0.534817,282.499
323,0.536483,282.499
324,0.53815,274.762
325,0.539817,267.337
326,0.541483,267.337
327,0.54315,260.095
328,0.544817,253.101
329,0.546583,246.397
330,0.54815,246.397
331,0.549817,239.872
332,0.5514829999999999,233.629
333,0.55315,227.584
334,0.554817,227.584
335,0.5564829999999999,221.765
336,0.55815,216.135
337,0.559817,210.678
338,0.561517,210.678
339,0.56315,205.446
340,0.564817,200.335
341,0.566483,195.448
342,0.56815,195.448
343,0.569817,190.745
344,0.571483,186.188
345,0.57315,186.188
346,0.574817,181.801
347,0.576483,177.546
348,0.5781500000000001,173.442
349,0.579817,173.442
350,0.581483,169.469
351,0.5831499999999999,165.636
352,0.584833,161.926
353,0.586483,161.926
354,0.58815,158.349
355,0.5898,154.85
356,0.591467,151.462
357,0.593133,151.462
358,0.5948,148.217
359,0.596467,145.061
360,0.598133,145.061
361,0.5998,142.024
362,0.601467,139.085
363,0.603133,136.238
364,0.6048,136.238
365,0.606467,133.482
366,0.608133,130.828
367,0.609783,128.265
368,0.61145,128.265
369,0.613117,125.768
370,0.614783,123.379
371,0.6164500000000001,121.056
372,0.618117,121.056
373,0.619783,118.765
374,0.6214499999999999,116.602
375,0.623117,114.466
376,0.624783,114.466
377,0.62645,112.416
378,0.628117,110.457
379,0.629783,110.457
380,0.631533,108.504
381,0.633117,106.607
382,0.634783,104.777
383,0.63645,104.777
384,0.638117,102.98
385,0.639783,101.272
386,0.64145,99.666
387,0.643117,99.666
388,0.644783,98.086
389,0.646433,96.595
390,0.648183,95.09099999999999
391,0.649767,95.09099999999999
392,0.651433,93.587
393,0.6531,92.148
394,0.654767,92.148
395,0.65645,90.736
396,0.6581,89.41800000000001
397,0.659767,88.131
398,0.661433,88.131
399,0.6631,86.83799999999999
400,0.664867,85.583
401,0.6664330000000001,84.375
402,0.6681,84.375
403,0.669767,83.239
404,0.6714329999999999,82.146
405,0.6731,81.104
406,0.674767,81.104
407,0.67645,80.027
408,0.678133,78.94499999999999
409,0.679767,77.937
410,0.681433,77.937
411,0.6831,76.968
412,0.684767,76.06399999999999
413,0.686433,76.06399999999999
414,0.6881,75.188
415,0.689767,74.31
416,0.691433,73.45
417,0.6931,73.45
418,0.694767,72.607
419,0.696433,71.813
420,0.6981000000000001,71.063
421,0.699767,71.063
422,0.701433,70.304
423,0.7030999999999999,69.532
424,0.704783,68.78
425,0.706433,68.78
426,0.708083,68.057
427,0.70975,67.375
428,0.711417,67.375
429,0.713083,66.733
430,0.71475,66.116
431,0.716417,65.482
432,0.718083,65.482
433,0.71975,64.85299999999999
434,0.721417,64.242
435,0.723083,63.664
436,0.72475,63.664
437,0.726417,63.094
438,0.728083,62.52
439,0.72975,62.007
440,0.731417,62.007
441,0.733083,61.501
442,0.73475,61.011
443,0.736417,61.011
444,0.738083,60.515
445,0.73975,60.011
446,0.741417,59.503
447,0.743083,59.503
448,0.74475,59.032
449,0.746417,58.655
450,0.7480830000000001,58.249
451,0.7498,58.249
452,0.751417,57.84
453,0.7530829999999999,57.461
454,0.75475,57.053
455,0.756417,57.053
456,0.758083,56.674
457,0.75975,56.289
458,0.761417,55.901
459,0.763083,55.901
460,0.76475,55.552
461,0.7664,55.204
462,0.7680670000000001,55.204
463,0.769733,54.923
464,0.7714,54.602
465,0.7730669999999999,54.273
466,0.774733,54.273
467,0.7764,53.95
468,0.778067,53.626
469,0.779733,53.316
470,0.7814,53.316
471,0.7831669999999999,53.024
472,0.784733,52.732
473,0.7864,52.444
474,0.788067,52.444
475,0.789733,52.191
476,0.7914,51.906
477,0.793067,51.906
478,0.794733,51.633
479,0.7964,51.359
480,0.798067,51.096
481,0.799733,51.096
482,0.8014,50.846
483,0.803067,50.655
484,0.804733,50.428
485,0.8064,50.428
486,0.808067,50.202
487,0.809733,49.973
488,0.8114,49.727
489,0.813067,49.727
490,0.814733,49.523
491,0.8164,49.34
492,0.818067,49.149
493,0.819733,49.149
494,0.8214,48.967
495,0.823067,48.804
496,0.824733,48.804
497,0.8264,48.584
498,0.828067,48.397
499,0.829717,48.21
500,0.831383,48.21
501,0.83305,47.985
502,0.834717,47.83
503,0.836383,47.668
504,0.83805,47.668
505,0.83975,47.523
506,0.841383,47.377
507,0.84305,47.226
508,0.8447170000000001,47.226
509,0.846383,47.094
510,0.84805,46.914
511,0.8497169999999999,46.914
512,0.851383,46.788
513,0.85305,46.626
514,0.85475,46.454
515,0.856383,46.454
516,0.85805,46.321
517,0.859717,46.184
518,0.861383,46.077
519,0.86305,46.077
520,0.864717,45.985
521,0.866383,45.881
522,0.868133,45.773
523,0.869717,45.773
524,0.871383,45.668
525,0.87305,45.594
526,0.874717,45.511
527,0.876383,45.511
528,0.87805,45.402
529,0.879717,45.281
530,0.881383,45.281
531,0.88305,45.118
532,0.884717,44.981
533,0.886367,44.864
534,0.888033,44.864
535,0.8897,44.752
536,0.891367,44.677
537,0.893033,44.625
538,0.8947000000000001,44.625
539,0.896367,44.537
540,0.898033,44.458
541,0.8997000000000001,44.362
542,0.901467,44.362
543,0.903017,44.198
544,0.904683,44.128
545,0.90635,44.128
546,0.908017,44.028
547,0.909683,43.936
548,0.91135,43.903
549,0.913017,43.903
550,0.914683,43.805
551,0.91635,43.748
552,0.918017,43.672
553,0.919683,43.672
554,0.92135,43.6
555,0.923017,43.515
556,0.924683,43.441
557,0.92635,43.441
558,0.928033,43.341
559,0.929683,43.247
560,0.93135,43.247
561,0.93305,43.195
562,0.934683,43.137
563,0.93635,43.102
564,0.938017,43.102
565,0.939683,43.026
566,0.94135,42.974
567,0.943017,42.884
568,0.9446830000000001,42.884
569,0.94635,42.83
570,0.948,42.796
571,0.949667,42.725
572,0.951333,42.725
573,0.953,42.688
574,0.954667,42.646
575,0.956333,42.619
576,0.958,42.619
577,0.959667,42.559
578,0.961333,42.506
579,0.963,42.506
580,0.9646670000000001,42.447
581,0.966333,42.353
582,0.968,42.298
583,0.9696669999999999,42.298
584,0.971333,42.234
585,0.973,42.196
586,0.974667,42.167
587,0.976333,42.167
588,0.978,42.146
589,0.979667,42.11
590,0.981333,42.057
591,0.983,42.057
592,0.984667,41.997
593,0.986333,41.935
594,0.988,41.935
595,0.989667,41.892
596,0.991333,41.848
597,0.993,41.839
598,0.994667,41.839
599,0.996333,41.793
600,0.998,41.729
601,0.999667,41.683
602,1.001333,41.683
603,1.003033,41.615
604,1.004667,41.586
605,1.006333,41.568
606,1.007983,41.568
607,1.00965,41.532
608,1.011317,41.516
609,1.012983,41.509
610,1.01465,41.509
611,1.016317,41.486
612,1.017983,41.44
613,1.01975,41.44
614,1.021317,41.406
615,1.022983,41.341
616,1.02465,41.282
617,1.026317,41.282
618,1.027983,41.265
619,1.02965,41.225
620,1.031317,41.212
621,1.032983,41.212
622,1.03465,41.194
623,1.036317,41.156
624,1.037983,41.127
625,1.03965,41.127
626,1.041317,41.071
627,1.042983,41.065
628,1.04465,41.065
629,1.046317,41.015
630,1.047983,40.963
631,1.04965,40.936
632,1.051317,40.936
633,1.052983,40.898
634,1.05465,40.9
635,1.056317,40.89
636,1.057983,40.89
637,1.05965,40.882
638,1.061317,40.849
639,1.062983,40.837
640,1.06465,40.837
641,1.066317,40.808
642,1.067967,40.8
643,1.069633,40.768
644,1.0713,40.768
645,1.072967,40.705
646,1.074633,40.692
647,1.076317,40.692
648,1.077983,40.656
649,1.079633,40.633
650,1.0813,40.644
651,1.082967,40.644
652,1.084633,40.599
653,1.0863,40.562
654,1.087967,40.54
655,1.089633,40.54
656,1.0913,40.511
657,1.092967,40.533
658,1.094633,40.527
659,1.0963,40.527
660,1.097967,40.524
661,1.099633,40.509
662,1.1013,40.509
663,1.102967,40.452
664,1.1047,40.426
665,1.1063,40.41
666,1.107967,40.41
667,1.109633,40.386
668,1.1113,40.348
669,1.112983,40.314
670,1.114633,40.314
671,1.1163,40.3
672,1.117967,40.272
673,1.119633,40.258
674,1.1213,40.258
675,1.122967,40.229
676,1.124633,40.201
677,1.1263,40.201
678,1.127967,40.175
679,1.129617,40.188
680,1.131283,40.191
681,1.13295,40.191
682,1.134617,40.162
683,1.136283,40.182
684,1.138083,40.141
685,1.139617,40.141
686,1.141283,40.12
687,1.14295,40.118
688,1.144617,40.06
689,1.146283,40.06
690,1.14795,40.05
691,1.149617,40.031
692,1.151283,39.991
693,1.15295,39.991
694,1.154617,39.977
695,1.156283,39.962
696,1.15795,39.962
697,1.159617,39.954
698,1.161283,39.981
699,1.16295,39.994
700,1.164617,39.994
701,1.166283,40.015
702,1.16795,39.999
703,1.169617,39.972
704,1.171283,39.972
705,1.17295,39.95
706,1.174617,39.916
707,1.176283,39.915
708,1.17795,39.915
709,1.179617,39.899
710,1.181283,39.875
711,1.18295,39.875
712,1.184617,39.843
713,1.186267,39.832
714,1.187933,39.826
715,1.1896,39.826
716,1.191267,39.823
717,1.192917,39.823
718,1.194583,39.81
719,1.19625,39.81
720,1.197917,39.809
721,1.199583,39.785
722,1.20125,39.791
723,1.202917,39.791
724,1.204583,39.772
725,1.20625,39.728
726,1.207917,39.711
727,1.209583,39.711
728,1.211267,39.683
729,1.212917,39.686
730,1.214583,39.686
731,1.21625,39.692
732,1.217917,39.723
733,1.219583,39.73
734,1.22125,39.73
735,1.22295,39.719
736,1.224583,39.7
737,1.22625,39.669
738,1.227917,39.669
739,1.229583,39.665
740,1.23125,39.636
741,1.232917,39.619
742,1.234583,39.619
743,1.23625,39.602
744,1.237917,39.537
745,1.239583,39.537
746,1.24125,39.533
747,1.242917,39.535
748,1.244583,39.551
749,1.24625,39.551
750,1.2479,39.597
751,1.249567,39.6
752,1.251233,39.592
753,1.2529,39.592
754,1.254567,39.564
755,1.256317,39.513
756,1.2579,39.476
757,1.259567,39.476
758,1.261233,39.464
759,1.2629,39.475
760,1.264567,39.49
761,1.266233,39.49
762,1.2679,39.513
763,1.269567,39.506
764,1.271233,39.506
765,1.2729,39.469
766,1.274567,39.475
767,1.276233,39.449
768,1.2779,39.449
769,1.279567,39.426
770,1.281233,39.425
771,1.2829,39.418
772,1.284567,39.418
773,1.286233,39.4
774,1.28795,39.398
775,1.289583,39.394
776,1.291233,39.394
777,1.2929,39.343
778,1.294567,39.322
779,1.296233,39.322
780,1.2979,39.307
781,1.299567,39.288
782,1.301233,39.311
783,1.3029,39.311
784,1.304567,39.335
785,1.306233,39.367
786,1.3079,39.37
787,1.30955,39.37
788,1.311217,39.338
789,1.312883,39.322
790,1.31455,39.294
791,1.316217,39.294
792,1.317883,39.308
793,1.31955,39.338
794,1.321217,39.338
795,1.322883,39.356
796,1.32455,39.361
797,1.326217,39.344
798,1.327883,39.344
799,1.32955,39.333
800,1.331217,39.296
801,1.332883,39.254
802,1.33455,39.254
803,1.336217,39.231
804,1.337883,39.227
805,1.33955,39.239
806,1.34125,39.239
807,1.342883,39.233
808,1.34455,39.227
809,1.346217,39.192
810,1.347883,39.192
811,1.34955,39.177
812,1.351217,39.16
813,1.352883,39.16
814,1.35455,39.156
815,1.356217,39.157
816,1.357933,39.146
817,1.35955,39.146
818,1.361217,39.169
819,1.362917,39.166
820,1.36455,39.162
821,1.366217,39.162
822,1.367883,39.162
823,1.369533,39.168
824,1.3712,39.167
825,1.372867,39.167
826,1.374633,39.172
827,1.3762,39.168
828,1.377867,39.168
829,1.379533,39.153
830,1.3812,39.148
831,1.382867,39.16
832,1.384533,39.16
833,1.3862,39.156
834,1.387867,39.118
835,1.389533,39.12
836,1.391317,39.12
837,1.392867,39.095
838,1.394533,39.081
839,1.3962,39.081
840,1.397867,39.081
841,1.399533,39.053
842,1.4012,39.039
843,1.402867,39.03
844,1.404533,39.03
845,1.4062,39.033
846,1.407867,39.057
847,1.409533,39.057
848,1.4112,39.041
849,1.412867,39.057
850,1.414533,39.091
851,1.4162,39.091
852,1.417867,39.049
853,1.419533,39.046
854,1.4212,39.022
855,1.422867,39.022
856,1.424533,39.005
857,1.426183,39.006
858,1.42785,39.016
859,1.429517,39.016
860,1.431183,39.019
861,1.43285,39.007
862,1.434517,39.007
863,1.436183,39.046
864,1.437883,39.043
865,1.439583,39.048
866,1.441183,39.048
867,1.44285,39.01
868,1.444517,38.955
869,1.446183,38.913
870,1.44785,38.913
871,1.449517,38.876
872,1.451183,38.864
873,1.45285,38.846
874,1.454517,38.846
875,1.456183,38.858
876,1.45785,38.856
877,1.459517,38.892
878,1.461183,38.892
879,1.46285,38.921
880,1.464517,38.937
881,1.466183,38.937
882,1.46785,38.961
883,1.469517,38.934
884,1.471183,38.94
885,1.47285,38.94
886,1.474517,38.935
887,1.4762,38.926
888,1.47785,38.93
889,1.479517,38.93
890,1.481183,38.908
891,1.482833,38.908
892,1.4845,38.907
893,1.486167,38.907
894,1.487817,38.929
895,1.489483,38.932
896,1.49115,38.932
897,1.492883,38.929
898,1.494483,38.936
899,1.49615,38.94
900,1.497817,38.94
901,1.499483,38.967
902,1.50115,38.951
903,1.502817,38.943
904,1.504483,38.943
905,1.50615,38.909
906,1.507817,38.859
907,1.509583,38.857
908,1.51115,38.857
909,1.512833,38.84
910,1.51455,38.855
911,1.51615,38.855
912,1.517817,38.86
913,1.519483,38.846
914,1.52115,38.834
915,1.522817,38.834
916,1.524483,38.812
917,1.52615,38.836
918,1.527817,38.857
919,1.529483,38.857
920,1.53115,38.859
921,1.532817,38.852
922,1.534483,38.825
923,1.53615,38.825
924,1.537817,38.811
925,1.539483,38.793
926,1.54115,38.792
927,1.542817,38.792
928,1.544483,38.804
929,1.54615,38.783
930,1.5478,38.783
931,1.549467,38.788
932,1.551133,38.817
933,1.5528,38.788
934,1.554467,38.788
935,1.556133,38.788
936,1.5578,38.776
937,1.559467,38.752
938,1.561133,38.752
939,1.5628,38.76
940,1.564467,38.766
941,1.566133,38.807
942,1.5678,38.807
943,1.569467,38.812
944,1.571133,38.853
945,1.5728,38.853
946,1.574467,38.87
947,1.576133,38.855
948,1.577817,38.847
949,1.579467,38.847
950,1.581133,38.803
951,1.5828,38.795
952,1.584467,38.762
953,1.586133,38.762
954,1.5878,38.763
955,1.589483,38.744
956,1.591133,38.722
957,1.5928,38.722
958,1.594467,38.767
959,1.596133,38.763
960,1.5978,38.759
961,1.599467,38.759
962,1.601133,38.747
963,1.6028,38.706
964,1.604467,38.706
965,1.606133,38.66
966,1.607783,38.664
967,1.60945,38.671
968,1.611133,38.671
969,1.612783,38.666
970,1.61445,38.686
971,1.616117,38.706
972,1.617783,38.706
973,1.61945,38.715
974,1.621117,38.721
975,1.622783,38.739
976,1.62445,38.739
977,1.626117,38.733
978,1.6279,38.73
979,1.62945,38.73
980,1.631117,38.729
981,1.632783,38.708
982,1.63445,38.712
983,1.636117,38.712
984,1.637783,38.715
985,1.63945,38.723
986,1.641117,38.742
987,1.642783,38.742
988,1.64445,38.714
989,1.646117,38.692
990,1.647783,38.672
991,1.64945,38.672
992,1.651117,38.639
993,1.652783,38.666
994,1.65445,38.666
995,1.656117,38.666
996,1.657817,38.661
997,1.65945,38.666
998,1.661117,38.666
