"ID","sea_time","fid_signal"
1,0,1165.42
2,0.001667,1167.655
3,0.003333,1167.58
4,0.005,1169.89
5,0.006667,1169.89
6,0.008333,1169.145
7,0.01,1165.941
8,0.011667,1167.58
9,0.013333,1167.58
10,0.015,1167.804
11,0.01665,1170.859
12,0.018317,1174.882
13,0.019983,1174.882
14,0.0217,1172.796
15,0.023317,1169.145
16,0.024983,1169.145
17,0.02665,1166.984
18,0.028317,1163.781
19,0.029983,1163.185
20,0.03165,1163.185
21,0.033317,1165.867
22,0.034983,1165.345
23,0.03665,1165.047
24,0.038317,1165.047
25,0.039983,1163.259
26,0.04165,1160.502
27,0.043317,1160.577
28,0.044983,1160.577
29,0.04665,1160.204
30,0.048317,1162.365
31,0.049983,1162.365
32,0.051683,1163.259
33,0.053317,1162.44
34,0.054983,1165.718
35,0.05665,1165.718
36,0.058317,1168.624
37,0.059983,1169.667
38,0.06165,1169.071
39,0.063317,1169.071
40,0.064983,1166.91
41,0.06665,1165.345
42,0.068317,1166.09
43,0.069983,1166.09
44,0.07165000000000001,1167.953
45,0.07331699999999999,1167.953
46,0.07498299999999999,1169.89
47,0.07671699999999999,1169.89
48,0.078317,1170.337
49,0.079967,1169.294
50,0.081633,1169.294
51,0.0833,1170.933
52,0.084967,1170.412
53,0.086633,1167.133
54,0.0883,1167.133
55,0.08996700000000001,1168.027
56,0.09163300000000001,1167.953
57,0.093333,1165.941
58,0.094967,1165.941
59,0.096633,1165.345
60,0.0983,1165.569
61,0.099967,1164.526
62,0.101633,1164.526
63,0.1033,1164.824
64,0.104967,1166.984
65,0.106633,1166.984
66,0.1083,1165.718
67,0.110067,1164.824
68,0.111633,1164.824
69,0.1133,1164.824
70,0.114967,1166.537
71,0.116633,1167.282
72,0.1183,1170.114
73,0.119967,1170.114
74,0.121633,1172.051
75,0.1233,1168.996
76,0.124967,1171.976
77,0.126633,1171.976
78,0.1283,1170.486
79,0.129967,1168.549
80,0.131633,1168.549
81,0.1333,1171.604
82,0.134967,1168.624
83,0.136617,1171.082
84,0.138283,1171.082
85,0.13995,1172.051
86,0.141633,1169.22
87,0.143333,1171.902
88,0.14495,1171.902
89,0.146617,1170.635
90,0.148283,1168.773
91,0.14995,1167.432
92,0.151617,1167.432
93,0.153283,1163.557
94,0.15495,1162.514
95,0.156617,1164.153
96,0.158283,1164.153
97,0.15995,1166.239
98,0.161617,1166.537
99,0.163283,1166.537
100,0.164967,1165.271
101,0.166617,1165.494
102,0.168283,1164.6
103,0.16995,1164.6
104,0.171617,1165.494
105,0.173283,1166.239
106,0.17495,1164.377
107,0.176617,1164.377
108,0.178283,1164.302
109,0.17995,1166.91
110,0.181617,1165.792
111,0.183283,1165.792
112,0.18495,1166.09
113,0.186617,1165.122
114,0.188283,1165.122
115,0.18995,1162.887
116,0.191617,1165.047
117,0.193283,1165.42
118,0.195,1165.42
119,0.1966,1168.4
120,0.198267,1168.549
121,0.199933,1169.741
122,0.2016,1169.741
123,0.203267,1171.306
124,0.204933,1169.294
125,0.2066,1168.475
126,0.208267,1168.475
127,0.209933,1168.996
128,0.211633,1169.22
129,0.213267,1169.667
130,0.214917,1169.667
131,0.216583,1169.145
132,0.21825,1165.643
133,0.219917,1165.643
134,0.221583,1164.004
135,0.22325,1163.855
136,0.224917,1164.973
137,0.226583,1164.973
138,0.228367,1166.016
139,0.229917,1167.208
140,0.231583,1172.572
141,0.23325,1172.572
142,0.234933,1180.843
143,0.236583,1191.124
144,0.23825,1206.026
145,0.239917,1206.026
146,0.241583,1226.738
147,0.243283,1253.709
148,0.244917,1253.709
149,0.246583,1285.97
150,0.24825,1328.662
151,0.249917,1381.189
152,0.251583,1381.189
153,0.25325,1440.495
154,0.254917,1511.723
155,0.256583,1589.432
156,0.258233,1589.432
157,0.2599,1672.357
158,0.261567,1765.788
159,0.263233,1867.041
160,0.2649,1867.041
161,0.266567,1975.894
162,0.268233,2090.708
163,0.2699,2211.109
164,0.271567,2211.109
165,0.273233,2336.726
166,0.2749,2467.707
167,0.276567,2467.707
168,0.278233,2604.574
169,0.2799,2745.688
170,0.281567,2892.986
171,0.283233,2892.986
172,0.2849,3047.362
173,0.286567,3204.867
174,0.288233,3366.768
175,0.2899,3366.768
176,0.291567,3536.046
177,0.293233,3709.346
178,0.2949,3891.662
179,0.296567,3891.662
180,0.298233,4088.655
181,0.2999,4291.981
182,0.301567,4291.981
183,0.303233,4503.28
184,0.3049,4728.213
185,0.306583,4955.232
186,0.308233,4955.232
187,0.3099,5195.439
188,0.311567,5452.26
189,0.313267,5717.948
190,0.3149,5717.948
191,0.316567,6002.486
192,0.318217,6302.744
193,0.319883,6622.076
194,0.32155,6622.076
195,0.323217,6964.877
196,0.324883,7333.16
197,0.32655,7333.16
198,0.328217,7731.84
199,0.3299,8167.327
200,0.33155,8655.116
201,0.333217,8655.116
202,0.334883,9215.772000000001
203,0.33655,9869.411
204,0.338217,10638.461
205,0.339883,10638.461
206,0.34155,11538.118
207,0.343217,12569.204
208,0.344883,13724.863
209,0.34665,13724.863
210,0.348217,14969.781
211,0.349883,16250.908
212,0.35155,17493.367
213,0.353217,17493.367
214,0.354883,18615.275
215,0.35655,19534.305
216,0.358217,19534.305
217,0.359883,20185.783
218,0.36155,20529.703
219,0.363217,20553.395
220,0.364883,20553.395
221,0.36655,20268.41
222,0.368217,19708.053
223,0.369883,18922.611
224,0.37155,18922.611
225,0.373217,17963.498
226,0.374883,16894.639
227,0.37655,15764.907
228,0.3782,15764.907
229,0.379867,14614.687
230,0.381533,13483.018
231,0.3832,13483.018
232,0.384867,12385.845
233,0.38655,11350.14
234,0.388217,10381.415
235,0.389867,10381.415
236,0.391533,9484.365
237,0.3932,8664.652
238,0.394867,7911.995
239,0.396533,7911.995
240,0.3982,7231.31
241,0.399867,6613.731
242,0.401533,6060.75
243,0.4032,6060.75
244,0.404867,5568.117
245,0.406533,5127.266
246,0.4082,4730.448
247,0.409867,4730.448
248,0.411533,4373.044
249,0.4132,4052.743
250,0.414867,4052.743
251,0.416533,3767.982
252,0.4182,3517.494
253,0.419867,3296.509
254,0.421533,3296.509
255,0.4232,3098.697
256,0.424867,2919.212
257,0.426533,2761.93
258,0.4282,2761.93
259,0.429867,2618.879
260,0.431633,2488.121
261,0.4332,2372.339
262,0.434867,2372.339
263,0.436517,2265.349
264,0.438183,2168.193
265,0.43985,2168.193
266,0.441517,2080.873
267,0.443183,2003.089
268,0.44485,1933.053
269,0.446517,1933.053
270,0.448217,1870.543
271,0.44985,1818.091
272,0.451517,1771.674
273,0.453183,1771.674
274,0.45485,1729.503
275,0.456517,1688.823
276,0.458183,1649.484
277,0.459867,1649.484
278,0.461533,1612.753
279,0.463183,1579.076
280,0.46495,1551.434
281,0.466517,1551.434
282,0.468183,1524.538
283,0.46985,1499.28
284,0.471517,1499.28
285,0.473183,1477.599
286,0.47485,1457.781
287,0.476517,1437.962
288,0.478183,1437.962
289,0.47985,1420.453
290,0.481517,1403.242
291,0.483183,1385.659
292,0.48485,1385.659
293,0.486517,1370.46
294,0.488183,1356.453
295,0.48985,1343.414
296,0.491517,1343.414
297,0.493183,1332.089
298,0.49485,1322.627
299,0.4965,1322.627
300,0.498167,1315.102
301,0.499833,1309.067
302,0.5014999999999999,1302.51
303,0.503167,1302.51
304,0.504833,1297.668
305,0.506483,1288.652
306,0.50815,1281.947
307,0.509817,1281.947
308,0.511483,1275.614
309,0.51315,1270.175
310,0.514817,1267.865
311,0.516483,1267.865
312,0.51815,1262.873
313,0.519817,1259.297
314,0.521483,1259.297
315,0.52315,1254.082
316,0.524817,1249.537
317,0.526483,1241.118
318,0.528183,1241.118
319,0.529817,1236.424
320,0.531483,1231.357
321,0.53315,1226.217
322,0.534817,1226.217
323,0.536483,1224.13
324,0.53815,1219.586
325,0.5398500000000001,1217.276
326,0.541483,1217.276
327,0.54315,1216.233
328,0.544817,1213.104
329,0.5464830000000001,1212.433
330,0.54815,1212.433
331,0.549867,1212.88
332,0.5514829999999999,1212.359
333,0.55315,1212.359
334,0.554817,1214.37
335,0.5564829999999999,1212.954
336,0.558133,1210.719
337,0.5598,1210.719
338,0.561467,1206.1
339,0.563133,1203.716
340,0.5648,1201.853
341,0.5664670000000001,1201.853
342,0.568133,1199.245
343,0.5698,1198.575
344,0.5714669999999999,1196.861
345,0.573133,1196.861
346,0.5748,1195.669
347,0.576467,1195.297
348,0.578133,1195.297
349,0.5798,1195.669
350,0.581467,1196.563
351,0.58325,1198.426
352,0.5848,1198.426
353,0.586467,1194.85
354,0.588133,1194.924
355,0.5898,1194.179
356,0.591467,1194.179
357,0.593133,1191.944
358,0.5948,1192.391
359,0.596467,1188.591
360,0.598133,1188.591
361,0.5998,1185.089
362,0.601467,1183.227
363,0.603133,1186.654
364,0.6048,1186.654
365,0.606483,1190.528
366,0.608133,1190.007
367,0.6098,1190.007
368,0.611467,1188.219
369,0.613133,1182.705
370,0.6148,1179.576
371,0.6164500000000001,1179.576
372,0.618117,1181.439
373,0.619783,1183.674
374,0.6214499999999999,1188.07
375,0.623117,1188.07
376,0.624783,1190.454
377,0.62645,1191.124
378,0.628117,1188.591
379,0.629783,1188.591
380,0.63145,1185.536
381,0.63315,1181.364
382,0.634783,1181.364
383,0.63645,1177.788
384,0.638117,1179.278
385,0.639783,1178.682
386,0.64145,1178.682
387,0.643117,1182.631
388,0.644783,1184.493
389,0.64645,1184.791
390,0.6481170000000001,1184.791
391,0.649783,1185.536
392,0.65145,1185.313
393,0.6531169999999999,1186.207
394,0.654783,1186.207
395,0.65645,1185.015
396,0.658117,1186.952
397,0.659783,1184.493
398,0.66145,1184.493
399,0.663117,1183.674
400,0.664783,1183.078
401,0.66645,1183.078
402,0.668183,1179.948
403,0.669783,1178.011
404,0.6714830000000001,1177.564
405,0.673117,1177.564
406,0.674783,1178.235
407,0.67645,1179.054
408,0.6781,1176.819
409,0.679767,1176.819
410,0.681433,1174.212
411,0.6831,1172.423
412,0.684767,1172.349
413,0.686433,1172.349
414,0.6881,1176.968
415,0.689767,1181.588
416,0.691433,1181.588
417,0.6931,1183.972
418,0.694767,1179.874
419,0.696433,1177.862
420,0.6981000000000001,1177.862
421,0.699767,1174.435
422,0.70155,1176.298
423,0.7030999999999999,1179.799
424,0.704767,1179.799
425,0.706433,1180.47
426,0.7081,1180.768
427,0.7097830000000001,1178.086
428,0.711433,1178.086
429,0.7131,1175.031
430,0.714767,1176.149
431,0.716433,1173.765
432,0.7181,1173.765
433,0.719767,1172.2
434,0.721467,1174.063
435,0.7231,1174.063
436,0.7247670000000001,1173.019
437,0.726433,1175.478
438,0.7281,1175.553
439,0.7297670000000001,1175.553
440,0.731433,1175.702
441,0.7331,1171.976
442,0.7347669999999999,1170.859
443,0.736417,1170.859
444,0.738083,1169.071
445,0.73975,1168.624
446,0.741417,1173.019
447,0.743083,1173.019
448,0.74475,1174.882
449,0.746417,1175.702
450,0.7480830000000001,1175.702
451,0.749817,1175.851
452,0.751417,1172.87
453,0.7530829999999999,1171.082
454,0.75475,1171.082
455,0.756417,1172.87
456,0.758083,1171.753
457,0.75975,1172.051
458,0.761417,1172.051
459,0.763083,1172.945
460,0.76475,1173.765
461,0.766417,1176.298
462,0.768083,1176.298
463,0.76975,1177.043
464,0.771417,1178.682
465,0.773083,1178.682
466,0.77475,1178.682
467,0.776417,1178.682
468,0.778083,1179.501
469,0.7797500000000001,1179.501
470,0.781417,1178.98
471,0.783083,1176.149
472,0.7847499999999999,1173.541
473,0.786467,1173.541
474,0.788083,1172.721
475,0.78975,1171.753
476,0.791417,1171.753
477,0.793083,1171.753
478,0.794767,1172.349
479,0.796383,1171.008
480,0.79805,1170.263
481,0.799717,1170.263
482,0.801383,1170.635
483,0.803133,1168.624
484,0.804717,1168.624
485,0.806383,1171.753
486,0.80805,1169.294
487,0.809717,1169.965
488,0.811383,1169.965
489,0.8130500000000001,1170.859
490,0.814717,1167.58
491,0.816383,1170.039
492,0.8180500000000001,1170.039
493,0.819783,1167.953
494,0.821383,1170.263
495,0.8230499999999999,1172.721
496,0.824717,1172.721
497,0.826383,1173.168
498,0.82805,1174.882
499,0.829717,1174.882
500,0.831383,1173.615
501,0.83305,1174.137
502,0.834717,1174.36
503,0.836383,1174.36
504,0.83805,1176
505,0.839717,1177.564
506,0.841383,1174.659
507,0.84305,1174.659
508,0.8447170000000001,1175.329
509,0.846383,1173.019
510,0.84805,1171.902
511,0.8497169999999999,1171.902
512,0.851383,1174.584
513,0.85305,1173.317
514,0.8547,1173.243
515,0.856367,1173.243
516,0.858033,1172.721
517,0.8597,1171.306
518,0.861367,1171.306
519,0.8630330000000001,1169.294
520,0.8647,1170.561
521,0.866367,1171.529
522,0.8680330000000001,1171.529
523,0.8697,1172.274
524,0.871367,1174.584
525,0.8730329999999999,1174.137
526,0.8747,1174.137
527,0.876367,1174.807
528,0.878033,1172.572
529,0.8797,1172.2
530,0.881367,1172.2
531,0.883067,1172.498
532,0.884717,1172.125
533,0.886367,1172.125
534,0.888033,1171.827
535,0.889717,1170.486
536,0.891367,1171.157
537,0.893033,1171.157
538,0.8947000000000001,1169.443
539,0.896367,1169.741
540,0.898033,1169.294
541,0.8997000000000001,1169.294
542,0.901367,1166.612
543,0.903033,1166.388
544,0.9046999999999999,1166.165
545,0.906367,1166.165
546,0.908033,1167.58
547,0.9097,1170.635
548,0.911367,1170.635
549,0.913033,1173.69
550,0.914683,1176
551,0.916367,1174.286
552,0.918017,1174.286
553,0.919683,1173.094
554,0.92145,1173.466
555,0.923017,1172.796
556,0.924683,1172.796
557,0.92635,1176.149
558,0.928017,1176.968
559,0.929683,1176.521
560,0.93135,1176.521
561,0.933017,1177.564
562,0.934683,1176.819
563,0.93635,1176.968
564,0.938117,1176.968
565,0.939683,1175.627
566,0.94135,1175.702
567,0.943017,1175.702
568,0.9446830000000001,1174.957
569,0.94635,1171.827
570,0.948017,1173.019
571,0.9496830000000001,1173.019
572,0.95135,1174.286
573,0.953017,1172.2
574,0.954783,1172.647
575,0.95635,1172.647
576,0.958017,1172.051
577,0.959683,1169.145
578,0.96135,1169.816
579,0.963017,1169.816
580,0.964683,1171.976
581,0.96635,1172.125
582,0.968017,1172.125
583,0.969683,1170.188
584,0.97135,1169.145
585,0.973017,1168.847
586,0.974667,1168.847
587,0.976333,1167.357
588,0.978,1168.177
589,0.979667,1169.294
590,0.981333,1169.294
591,0.983,1169.965
592,0.984667,1167.58
593,0.986333,1167.208
594,0.988,1167.208
595,0.989667,1167.133
596,0.991333,1165.494
597,0.993,1167.357
598,0.994667,1167.357
599,0.996333,1170.635
600,0.998,1171.529
601,0.999667,1171.529
602,1.001333,1171.306
603,1.003,1170.412
604,1.004667,1169.518
605,1.006333,1169.518
606,1.008,1168.177
607,1.009667,1170.561
608,1.011333,1170.561
609,1.013,1170.561
610,1.014667,1168.624
611,1.016333,1171.38
612,1.018,1167.953
613,1.019667,1167.953
614,1.021333,1170.933
615,1.023033,1172.423
616,1.024667,1172.423
617,1.026333,1169.89
618,1.028,1172.274
619,1.029667,1171.753
620,1.031333,1171.753
621,1.033017,1173.094
622,1.034667,1173.094
623,1.03635,1173.765
624,1.037983,1173.765
625,1.039683,1171.976
626,1.041317,1168.027
627,1.042983,1167.133
628,1.04465,1167.133
629,1.046317,1164.004
630,1.047983,1164.675
631,1.04965,1168.177
632,1.051317,1168.177
633,1.052983,1170.337
634,1.05465,1175.106
635,1.05635,1175.106
636,1.057983,1174.882
637,1.05965,1174.584
638,1.061317,1174.286
639,1.062983,1174.286
640,1.06465,1169.518
641,1.066317,1168.102
642,1.067983,1166.835
643,1.06965,1166.835
644,1.071317,1167.432
645,1.0731,1170.784
646,1.07465,1169.89
647,1.076317,1169.89
648,1.077983,1169.369
649,1.07965,1170.188
650,1.081317,1170.188
651,1.082983,1168.251
652,1.08465,1168.251
653,1.086317,1168.027
654,1.087967,1168.027
655,1.089633,1168.326
656,1.0913,1166.686
657,1.09295,1168.624
658,1.094633,1168.624
659,1.0963,1171.157
660,1.09795,1172.274
661,1.099617,1174.51
662,1.101283,1174.51
663,1.10295,1174.435
664,1.104617,1175.329
665,1.1063,1173.243
666,1.108,1173.243
667,1.109617,1171.008
668,1.111283,1172.945
669,1.11295,1172.945
670,1.114617,1169.369
671,1.116283,1167.506
672,1.11795,1167.953
673,1.119617,1167.953
674,1.121283,1165.494
675,1.122983,1166.016
676,1.124617,1163.781
677,1.126283,1163.781
678,1.12795,1164.079
679,1.129617,1166.09
680,1.131283,1166.612
681,1.13295,1166.612
682,1.134617,1172.274
683,1.136283,1175.106
684,1.13795,1175.106
685,1.139617,1173.541
686,1.141283,1172.274
687,1.14295,1167.729
688,1.144617,1167.729
689,1.146283,1165.345
690,1.14795,1165.792
691,1.149617,1166.016
692,1.151283,1166.016
693,1.15295,1167.879
694,1.154617,1164.973
695,1.156283,1162.812
696,1.157967,1162.812
697,1.1596,1163.185
698,1.161267,1161.844
699,1.162933,1161.844
700,1.1646,1164.302
701,1.166267,1165.345
702,1.167933,1163.93
703,1.1696,1163.93
704,1.171267,1164.079
705,1.172933,1165.047
706,1.17465,1166.388
707,1.176283,1166.388
708,1.177933,1167.729
709,1.1796,1171.231
710,1.181267,1170.188
711,1.182933,1170.188
712,1.1846,1168.251
713,1.186267,1169.369
714,1.187933,1166.612
715,1.1896,1166.612
716,1.191367,1165.941
717,1.192933,1169.294
718,1.1946,1169.294
719,1.196267,1170.114
720,1.197933,1172.125
721,1.1996,1175.478
722,1.201267,1175.478
723,1.202933,1172.2
724,1.2046,1170.412
725,1.206267,1168.549
726,1.207933,1168.549
727,1.2096,1166.612
728,1.211267,1167.282
729,1.212967,1168.4
730,1.2146,1168.4
731,1.21625,1167.655
732,1.217917,1165.643
733,1.219583,1165.643
734,1.22125,1164.898
735,1.222917,1163.185
736,1.224583,1163.259
737,1.22625,1163.259
738,1.227917,1167.133
739,1.229583,1166.761
740,1.23125,1166.91
741,1.232917,1166.91
742,1.234583,1166.09
743,1.23625,1165.718
744,1.237917,1166.761
745,1.239583,1166.761
746,1.24125,1165.718
747,1.242917,1168.4
748,1.244583,1165.643
749,1.24625,1165.643
750,1.247917,1166.612
751,1.249583,1166.835
752,1.2513,1166.835
753,1.252917,1164.898
754,1.254583,1167.357
755,1.25625,1165.494
756,1.257917,1165.494
757,1.259583,1169.816
758,1.26125,1169.89
759,1.262917,1168.847
760,1.264583,1168.847
761,1.26625,1170.337
762,1.267917,1169.145
763,1.269583,1170.263
764,1.27125,1170.263
765,1.272917,1168.847
766,1.274583,1167.804
767,1.276317,1164.153
768,1.2779,1164.153
769,1.279567,1165.941
770,1.281233,1170.039
771,1.2829,1170.039
772,1.284567,1173.019
773,1.286233,1173.392
774,1.287917,1173.988
775,1.289567,1173.988
776,1.291233,1171.008
777,1.2929,1172.125
778,1.2946,1172.051
779,1.296233,1172.051
780,1.2979,1168.475
781,1.299567,1167.506
782,1.301233,1165.569
783,1.3029,1165.569
784,1.304567,1166.761
785,1.306233,1166.165
786,1.3079,1166.165
787,1.309667,1165.941
788,1.311233,1164.973
789,1.3129,1164.451
790,1.314567,1164.451
791,1.316233,1165.569
792,1.3179,1169.145
793,1.319567,1169.369
794,1.321233,1169.369
795,1.3229,1170.784
796,1.324567,1170.039
797,1.326233,1167.059
798,1.3279,1167.059
799,1.329583,1166.463
800,1.331233,1166.984
801,1.3329,1166.984
802,1.33455,1169.443
803,1.336217,1170.561
804,1.337883,1171.976
805,1.33955,1171.976
806,1.341217,1172.125
807,1.342883,1173.019
808,1.34455,1172.647
809,1.346217,1172.647
810,1.347883,1170.635
811,1.34955,1169.071
812,1.351217,1166.239
813,1.352883,1166.239
814,1.35455,1164.824
815,1.356217,1165.122
816,1.357883,1165.122
817,1.35955,1163.706
818,1.361217,1166.388
819,1.362883,1169.89
820,1.36455,1169.89
821,1.366217,1170.71
822,1.367883,1172.945
823,1.36955,1171.529
824,1.371217,1171.529
825,1.372883,1169.89
826,1.37455,1168.773
827,1.376267,1169.965
828,1.377883,1169.965
829,1.379533,1169.145
830,1.3812,1170.635
831,1.382867,1175.255
832,1.384533,1175.255
833,1.3862,1174.36
834,1.387867,1173.317
835,1.389533,1173.317
836,1.3912,1172.125
837,1.392867,1167.432
838,1.394617,1164.526
839,1.396233,1164.526
840,1.39785,1165.122
841,1.399517,1166.761
842,1.401183,1170.263
843,1.40285,1170.263
844,1.404517,1174.51
845,1.406183,1176.149
846,1.40785,1173.168
847,1.409517,1173.168
848,1.411183,1168.4
849,1.41285,1164.675
850,1.414517,1164.675
851,1.416183,1161.695
852,1.41785,1161.247
853,1.419517,1163.632
854,1.421183,1163.632
855,1.42285,1166.835
856,1.424517,1170.263
857,1.426183,1170.859
858,1.427967,1170.859
859,1.429517,1171.38
860,1.431183,1168.177
861,1.43285,1165.122
862,1.434517,1165.122
863,1.436183,1167.282
864,1.43785,1166.165
865,1.439517,1167.282
866,1.441183,1167.282
867,1.44285,1167.059
868,1.444517,1162.738
869,1.446183,1162.738
870,1.44785,1161.546
871,1.449517,1161.024
872,1.451183,1162.663
873,1.45285,1162.663
874,1.454517,1164.749
875,1.456167,1164.228
876,1.457833,1164.749
877,1.4595,1164.749
878,1.461167,1165.494
879,1.46285,1165.867
880,1.4645,1168.549
881,1.466167,1168.549
882,1.467833,1169.965
883,1.469533,1166.91
884,1.471183,1166.91
885,1.472883,1166.388
886,1.4745,1165.494
887,1.476167,1165.345
888,1.477833,1165.345
889,1.4795,1169.294
890,1.481167,1169.443
891,1.482833,1169.369
892,1.4845,1169.369
893,1.486167,1170.784
894,1.487833,1171.604
895,1.4895,1170.635
896,1.491167,1170.635
897,1.492833,1170.859
898,1.4945,1171.306
899,1.496167,1167.879
900,1.497833,1167.879
901,1.4995,1167.953
902,1.501167,1167.655
903,1.502833,1167.655
904,1.5045,1165.867
905,1.506167,1169.816
906,1.507833,1173.466
907,1.5095,1173.466
908,1.511167,1172.274
909,1.5129,1171.678
910,1.514483,1167.357
911,1.51615,1167.357
912,1.517817,1166.686
913,1.519483,1170.784
914,1.52115,1172.125
915,1.522817,1172.125
916,1.524483,1172.2
