"ID","sea_time","fid_signal"
1,0,28.3
2,0.001667,28.3
3,0.003333,28.299
4,0.005,28.299
5,0.006667,28.305
6,0.008333,28.274
7,0.01,28.218
8,0.011667,28.218
9,0.013383,28.151
10,0.015,28.096
11,0.016667,28.079
12,0.018333,28.079
13,0.02,28.116
14,0.021667,28.174
15,0.023317,28.212
16,0.024983,28.212
17,0.02665,28.247
18,0.028317,28.265
19,0.030117,28.273
20,0.03165,28.273
21,0.033317,28.288
22,0.034983,28.292
23,0.03665,28.292
24,0.038317,28.3
25,0.039983,28.307
26,0.04165,28.311
27,0.043317,28.311
28,0.044983,28.316
29,0.04665,28.316
30,0.048317,28.317
31,0.049983,28.317
32,0.05165,28.321
33,0.053317,28.329
34,0.054983,28.329
35,0.05665,28.329
36,0.058317,28.33
37,0.059983,28.325
38,0.06165,28.325
39,0.063317,28.315
40,0.064983,28.312
41,0.06665,28.308
42,0.068317,28.308
43,0.069983,28.311
44,0.07165000000000001,28.315
45,0.07331699999999999,28.312
46,0.07498299999999999,28.312
47,0.07665,28.31
48,0.078317,28.311
49,0.079983,28.315
50,0.08165,28.315
51,0.083317,28.323
52,0.084967,28.328
53,0.086633,28.328
54,0.0883,28.331
55,0.08996700000000001,28.331
56,0.09163300000000001,28.331
57,0.09329999999999999,28.331
58,0.094967,28.33
59,0.096633,28.33
60,0.0983,28.327
61,0.099967,28.327
62,0.101633,28.326
63,0.1033,28.328
64,0.104967,28.324
65,0.106633,28.324
66,0.1083,28.323
67,0.109967,28.316
68,0.111633,28.304
69,0.1133,28.304
70,0.115017,28.304
71,0.116633,28.303
72,0.1183,28.303
73,0.12,28.312
74,0.121633,28.318
75,0.1233,28.321
76,0.124967,28.321
77,0.126633,28.319
78,0.1283,28.315
79,0.129967,28.321
80,0.131683,28.321
81,0.1333,28.32
82,0.134967,28.318
83,0.136633,28.314
84,0.1383,28.314
85,0.139967,28.312
86,0.141633,28.311
87,0.143283,28.311
88,0.14495,28.312
89,0.146617,28.322
90,0.148383,28.32
91,0.14995,28.32
92,0.151617,28.321
93,0.153283,28.325
94,0.15495,28.314
95,0.156617,28.314
96,0.1583,28.316
97,0.15995,28.316
98,0.161617,28.32
99,0.163283,28.32
100,0.165067,28.326
101,0.166617,28.325
102,0.168283,28.327
103,0.16995,28.327
104,0.171617,28.323
105,0.173283,28.324
106,0.17495,28.324
107,0.176617,28.324
108,0.178283,28.314
109,0.17995,28.309
110,0.181617,28.309
111,0.183283,28.304
112,0.18495,28.302
113,0.186617,28.303
114,0.188283,28.303
115,0.18995,28.298
116,0.191617,28.294
117,0.193283,28.301
118,0.19495,28.301
119,0.196617,28.309
120,0.1983,28.32
121,0.19995,28.32
122,0.201617,28.326
123,0.203283,28.322
124,0.204933,28.314
125,0.2066,28.314
126,0.208267,28.312
127,0.209933,28.309
128,0.2116,28.311
129,0.213267,28.311
130,0.214933,28.308
131,0.2166,28.303
132,0.218267,28.305
133,0.219933,28.305
134,0.2216,28.303
135,0.223267,28.302
136,0.224933,28.302
137,0.2266,28.301
138,0.228267,28.291
139,0.229933,28.283
140,0.2316,28.283
141,0.233267,28.279
142,0.234933,28.276
143,0.2366,28.282
144,0.238267,28.282
145,0.239933,28.282
146,0.2416,28.287
147,0.243267,28.285
148,0.244933,28.285
149,0.2466,28.287
150,0.248267,28.288
151,0.249983,28.287
152,0.2516,28.287
153,0.253267,28.299
154,0.254933,28.296
155,0.2566,28.296
156,0.258267,28.299
157,0.259933,28.31
158,0.2616,28.311
159,0.26325,28.311
160,0.264917,28.32
161,0.266667,28.325
162,0.26825,28.331
163,0.269933,28.331
164,0.271633,28.327
165,0.273233,28.323
166,0.2749,28.322
167,0.276567,28.322
168,0.278233,28.311
169,0.2799,28.31
170,0.281567,28.31
171,0.283367,28.313
172,0.2849,28.318
173,0.286567,28.324
174,0.288233,28.324
175,0.2899,28.332
176,0.291567,28.336
177,0.293233,28.339
178,0.2949,28.339
179,0.296567,28.339
180,0.298233,28.336
181,0.2999,28.339
182,0.301567,28.339
183,0.303233,28.339
184,0.3049,28.344
185,0.306567,28.346
186,0.308233,28.346
187,0.3099,28.348
188,0.311567,28.356
189,0.313233,28.356
190,0.3149,28.363
191,0.316567,28.377
192,0.318233,28.39
193,0.3199,28.39
194,0.321567,28.398
195,0.323233,28.411
196,0.324883,28.423
197,0.32655,28.423
198,0.328217,28.438
199,0.329883,28.457
200,0.33155,28.473
201,0.333233,28.473
202,0.334883,28.506
203,0.33655,28.545
204,0.338217,28.545
205,0.339883,28.59
206,0.34155,28.652
207,0.343217,28.722
208,0.344883,28.722
209,0.34655,28.805
210,0.348217,28.899
211,0.349883,29.009
212,0.35155,29.009
213,0.353217,29.135
214,0.354883,29.289
215,0.35655,29.479
216,0.358217,29.479
217,0.359883,29.71
218,0.36155,29.982
219,0.363217,30.294
220,0.364883,30.294
221,0.36655,30.66
222,0.36825,31.067
223,0.369883,31.067
224,0.37155,31.524
225,0.373217,32.036
226,0.374883,32.595
227,0.37655,32.595
228,0.378217,33.205
229,0.379883,33.867
230,0.38155,34.57
231,0.3832,34.57
232,0.384917,35.313
233,0.386533,36.092
234,0.3882,36.892
235,0.389867,36.892
236,0.391533,37.706
237,0.3932,38.531
238,0.394867,38.531
239,0.396533,39.367
240,0.3982,40.195
241,0.399867,41.01
242,0.401667,41.01
243,0.4032,41.797
244,0.404867,42.534
245,0.406533,43.23
246,0.4082,43.23
247,0.409867,43.88
248,0.41155,44.468
249,0.4132,44.997
250,0.414867,44.997
251,0.416533,45.454
252,0.4182,45.839
253,0.419867,45.839
254,0.421533,46.151
255,0.4232,46.394
256,0.424867,46.564
257,0.426533,46.564
258,0.4282,46.645
259,0.429867,46.655
260,0.431533,46.588
261,0.433217,46.588
262,0.434867,46.447
263,0.436533,46.257
264,0.4382,46.005
265,0.439867,46.005
266,0.441533,45.703
267,0.443183,45.356
268,0.44485,44.967
269,0.446517,44.967
270,0.448183,44.541
271,0.44985,44.079
272,0.451517,44.079
273,0.453183,43.596
274,0.45485,43.098
275,0.456517,42.585
276,0.458183,42.585
277,0.45985,42.066
278,0.461517,41.54
279,0.463183,41.005
280,0.46485,41.005
281,0.466517,40.473
282,0.468183,39.945
283,0.46985,39.426
284,0.471517,39.426
285,0.473183,38.916
286,0.47485,38.416
287,0.476533,38.416
288,0.478233,37.927
289,0.47985,37.453
290,0.481517,36.991
291,0.483183,36.991
292,0.48485,36.546
293,0.486517,36.124
294,0.488183,35.72
295,0.48985,35.72
296,0.491517,35.339
297,0.493183,34.973
298,0.49485,34.627
299,0.496517,34.627
300,0.498183,34.298
301,0.49985,33.99
302,0.501517,33.694
303,0.503167,33.694
304,0.504833,33.415
305,0.5065,33.155
306,0.508167,33.155
307,0.509833,32.907
308,0.5115,32.684
309,0.513167,32.466
310,0.514833,32.466
311,0.5165,32.254
312,0.518167,32.054
313,0.51995,31.872
314,0.5215,31.872
315,0.523167,31.704
316,0.524833,31.545
317,0.5265,31.399
318,0.5281670000000001,31.399
319,0.529833,31.259
320,0.5315,31.127
321,0.5331669999999999,31.127
322,0.534833,31.014
323,0.5365,30.911
324,0.538167,30.803
325,0.539833,30.803
326,0.5415,30.702
327,0.543167,30.601
328,0.544833,30.504
329,0.5465,30.504
330,0.548167,30.418
331,0.549833,30.334
332,0.5515,30.252
333,0.553167,30.252
334,0.554833,30.183
335,0.5565,30.123
336,0.558167,30.072
337,0.559833,30.072
338,0.5615,30.029
339,0.563133,29.983
340,0.5648,29.983
341,0.5664670000000001,29.936
342,0.568133,29.892
343,0.5698,29.845
344,0.5714669999999999,29.845
345,0.573133,29.796
346,0.5748,29.744
347,0.576467,29.695
348,0.578133,29.695
349,0.5798,29.653
350,0.581467,29.619
351,0.583133,29.597
352,0.5848,29.597
353,0.586467,29.567
354,0.588133,29.539
355,0.5898,29.539
356,0.591467,29.514
357,0.593133,29.486
358,0.5948,29.468
359,0.596467,29.468
360,0.598133,29.448
361,0.5998,29.427
362,0.6015,29.406
363,0.603133,29.406
364,0.6048,29.388
365,0.606467,29.37
366,0.608133,29.356
367,0.6098,29.356
368,0.611467,29.341
369,0.613133,29.328
370,0.6148,29.328
371,0.616467,29.32
372,0.618133,29.306
373,0.6198,29.287
374,0.621483,29.287
375,0.623133,29.268
376,0.624783,29.249
377,0.62645,29.233
378,0.628117,29.233
379,0.629783,29.224
380,0.63145,29.211
381,0.633117,29.197
382,0.634783,29.197
383,0.63645,29.178
384,0.638117,29.16
385,0.639783,29.142
386,0.64145,29.142
387,0.643117,29.129
388,0.644783,29.124
389,0.64645,29.124
390,0.6481170000000001,29.12
391,0.649783,29.121
392,0.65145,29.115
393,0.6531169999999999,29.115
394,0.654783,29.105
395,0.65645,29.095
396,0.658117,29.079
397,0.659783,29.079
398,0.66145,29.073
399,0.663117,29.067
400,0.664783,29.067
401,0.66645,29.067
402,0.668117,29.074
403,0.669783,29.071
404,0.67145,29.071
405,0.673117,29.068
406,0.674783,29.062
407,0.67645,29.047
408,0.678117,29.047
409,0.679783,29.038
410,0.68145,29.028
411,0.683117,29.017
412,0.6848,29.017
413,0.686433,29.017
414,0.6881,29.011
415,0.689767,29.008
416,0.691433,29.008
417,0.693133,29.004
418,0.694767,28.992
419,0.696433,28.985
420,0.6981000000000001,28.985
421,0.699767,28.974
422,0.701433,28.961
423,0.7030999999999999,28.961
424,0.704767,28.962
425,0.706433,28.959
426,0.7081,28.965
427,0.709767,28.965
428,0.711433,28.964
429,0.7131,28.956
430,0.714767,28.948
431,0.716433,28.948
432,0.7181,28.934
433,0.719767,28.932
434,0.721433,28.931
435,0.723167,28.931
436,0.7247670000000001,28.935
437,0.726433,28.938
438,0.7281,28.938
439,0.7297670000000001,28.931
440,0.731433,28.922
441,0.7331,28.915
442,0.7347669999999999,28.915
443,0.736433,28.903
444,0.7381,28.894
445,0.739767,28.889
446,0.741417,28.889
447,0.7431,28.89
448,0.74475,28.893
449,0.746417,28.895
450,0.7480830000000001,28.895
451,0.74975,28.898
452,0.751417,28.894
453,0.7530829999999999,28.891
454,0.75475,28.891
455,0.756467,28.887
456,0.758083,28.889
457,0.75975,28.889
458,0.761417,28.89
459,0.763083,28.888
460,0.76475,28.892
461,0.766417,28.892
462,0.7681,28.887
463,0.76975,28.88
464,0.771417,28.877
465,0.773083,28.877
466,0.77475,28.871
467,0.776417,28.87
468,0.778083,28.861
469,0.7797500000000001,28.861
470,0.781417,28.858
471,0.783083,28.857
472,0.7847499999999999,28.857
473,0.786417,28.849
474,0.788083,28.851
475,0.789767,28.851
476,0.791417,28.851
477,0.793083,28.845
478,0.79475,28.84
479,0.796417,28.835
480,0.798083,28.835
481,0.79975,28.829
482,0.801417,28.833
483,0.803083,28.839
484,0.804733,28.839
485,0.8064,28.839
486,0.808067,28.833
487,0.809733,28.833
488,0.8114,28.821
489,0.813067,28.818
490,0.814733,28.818
491,0.8164,28.818
492,0.818067,28.821
493,0.819733,28.832
494,0.8214,28.833
495,0.823067,28.833
496,0.824733,28.832
497,0.8264,28.824
498,0.828067,28.822
499,0.82975,28.822
500,0.8314,28.82
501,0.833067,28.813
502,0.8347329999999999,28.821
503,0.8364,28.821
504,0.838067,28.813
505,0.839733,28.804
506,0.841467,28.804
507,0.843067,28.81
508,0.844733,28.812
509,0.8464,28.818
510,0.848067,28.818
511,0.849733,28.821
512,0.8514,28.818
513,0.853067,28.813
514,0.8547169999999999,28.813
515,0.856383,28.803
516,0.85805,28.807
517,0.859717,28.804
518,0.861383,28.804
519,0.8630330000000001,28.809
520,0.8647,28.81
521,0.866367,28.81
522,0.8680330000000001,28.806
523,0.8697,28.806
524,0.871367,28.801
525,0.8730329999999999,28.801
526,0.874833,28.8
527,0.876367,28.805
528,0.878033,28.806
529,0.8797,28.806
530,0.881367,28.805
531,0.883033,28.805
532,0.8847,28.796
533,0.886367,28.796
534,0.888033,28.794
535,0.8897,28.794
536,0.891367,28.789
537,0.893033,28.789
538,0.8947000000000001,28.794
539,0.896367,28.793
540,0.898033,28.793
541,0.8997000000000001,28.788
542,0.901367,28.787
543,0.903033,28.777
544,0.9046999999999999,28.777
545,0.906417,28.773
546,0.908033,28.78
547,0.9097,28.783
548,0.911367,28.783
549,0.913033,28.789
550,0.9147,28.791
551,0.916367,28.787
552,0.918033,28.787
553,0.9197,28.79
554,0.921367,28.788
555,0.923017,28.788
556,0.924683,28.794
557,0.926383,28.79
558,0.928017,28.787
559,0.929683,28.787
560,0.93135,28.795
561,0.933017,28.795
562,0.934683,28.796
563,0.93635,28.796
564,0.938017,28.795
565,0.939683,28.79
566,0.94135,28.785
567,0.943017,28.785
568,0.9446830000000001,28.788
569,0.94635,28.792
570,0.948017,28.792
571,0.9496830000000001,28.792
572,0.95135,28.792
573,0.953017,28.789
574,0.9546829999999999,28.789
575,0.95635,28.785
576,0.958017,28.784
577,0.9597,28.786
578,0.96135,28.786
579,0.963017,28.786
580,0.9647,28.789
581,0.96635,28.79
582,0.968017,28.79
583,0.969683,28.785
584,0.97135,28.788
585,0.973017,28.786
586,0.974683,28.786
587,0.976467,28.777
588,0.978017,28.777
589,0.979683,28.777
590,0.9813499999999999,28.773
591,0.983,28.774
592,0.984667,28.787
593,0.986333,28.787
594,0.988,28.79
595,0.989667,28.79
596,0.991333,28.782
597,0.993117,28.782
598,0.994667,28.769
599,0.996333,28.771
600,0.998,28.767
601,0.999667,28.767
602,1.001333,28.771
603,1.003,28.777
604,1.004667,28.777
605,1.006333,28.774
606,1.008,28.78
607,1.009667,28.785
608,1.011333,28.785
609,1.013,28.786
610,1.014667,28.785
611,1.01635,28.782
612,1.018,28.782
613,1.019667,28.778
614,1.021333,28.775
615,1.023,28.772
616,1.024667,28.772
617,1.026333,28.772
618,1.028,28.766
619,1.029667,28.767
620,1.031333,28.767
621,1.033,28.765
622,1.034667,28.76
623,1.036333,28.76
624,1.038,28.76
625,1.039667,28.758
626,1.041333,28.764
627,1.043,28.764
628,1.044667,28.764
629,1.046317,28.765
630,1.047983,28.762
631,1.04965,28.762
632,1.051317,28.762
633,1.052983,28.762
634,1.05465,28.761
635,1.056317,28.761
636,1.057983,28.762
637,1.05965,28.761
638,1.061317,28.761
639,1.062983,28.77
640,1.06465,28.775
641,1.066317,28.777
642,1.067983,28.777
643,1.06965,28.779
644,1.071317,28.773
645,1.072983,28.766
646,1.07465,28.766
647,1.076317,28.767
648,1.078017,28.76
649,1.07965,28.754
650,1.081317,28.754
651,1.082983,28.754
652,1.08465,28.752
653,1.086317,28.753
654,1.087983,28.753
655,1.08965,28.755
656,1.091317,28.752
657,1.093,28.752
658,1.094717,28.756
659,1.096317,28.754
660,1.097983,28.754
661,1.09965,28.754
662,1.101317,28.754
663,1.102983,28.744
664,1.104633,28.742
665,1.1063,28.742
666,1.107967,28.74
667,1.109633,28.742
668,1.111417,28.751
669,1.112967,28.751
670,1.114633,28.759
671,1.116333,28.764
672,1.117967,28.764
673,1.119633,28.765
674,1.1213,28.765
675,1.122967,28.766
676,1.124633,28.766
677,1.1263,28.77
678,1.128083,28.775
679,1.129633,28.772
680,1.1313,28.772
681,1.132967,28.768
682,1.134633,28.767
683,1.1363,28.768
684,1.137967,28.768
685,1.139633,28.77
686,1.1413,28.774
687,1.142967,28.777
688,1.144633,28.777
689,1.146283,28.781
690,1.14795,28.784
691,1.149617,28.784
692,1.151283,28.783
693,1.15295,28.782
694,1.154617,28.783
695,1.156283,28.783
696,1.15795,28.78
697,1.159617,28.778
698,1.161283,28.776
699,1.162933,28.776
700,1.1646,28.774
701,1.166267,28.786
702,1.167933,28.793
703,1.1696,28.793
704,1.171267,28.794
705,1.172933,28.794
706,1.1746,28.794
707,1.176283,28.787
708,1.177933,28.786
709,1.1796,28.785
710,1.181267,28.785
711,1.18295,28.779
712,1.1846,28.772
713,1.186267,28.771
714,1.187933,28.771
715,1.1896,28.78
716,1.191267,28.785
717,1.192933,28.794
718,1.1946,28.794
719,1.196267,28.798
720,1.197933,28.791
721,1.1996,28.791
722,1.201267,28.797
723,1.202933,28.795
724,1.2046,28.793
725,1.206267,28.793
726,1.207933,28.795
727,1.2096,28.794
728,1.211267,28.803
729,1.212983,28.803
730,1.2146,28.814
731,1.216267,28.826
732,1.217933,28.831
733,1.2196,28.831
734,1.221267,28.826
735,1.222933,28.826
736,1.224583,28.827
737,1.22625,28.827
738,1.227917,28.83
739,1.229633,28.838
740,1.23125,28.838
741,1.232917,28.838
742,1.234583,28.839
743,1.23625,28.846
744,1.237917,28.846
745,1.239583,28.852
746,1.24125,28.851
747,1.242917,28.851
748,1.244583,28.851
749,1.246367,28.844
750,1.247917,28.838
751,1.249583,28.843
752,1.25125,28.843
753,1.252917,28.847
754,1.254583,28.857
755,1.25625,28.857
756,1.257917,28.86
757,1.259617,28.854
758,1.26125,28.851
759,1.262917,28.851
760,1.264583,28.844
761,1.26625,28.845
762,1.267917,28.853
763,1.269583,28.853
764,1.27125,28.858
765,1.272917,28.872
766,1.274583,28.88
767,1.27625,28.88
768,1.277917,28.878
769,1.279583,28.878
770,1.28125,28.862
771,1.282917,28.862
772,1.284567,28.856
773,1.286233,28.856
774,1.2879,28.856
775,1.289567,28.867
776,1.291233,28.884
777,1.2929,28.894
778,1.294567,28.894
779,1.296233,28.898
780,1.2979,28.892
781,1.299567,28.888
782,1.301233,28.888
783,1.3029,28.887
784,1.304567,28.885
785,1.306233,28.885
786,1.3079,28.885
787,1.309567,28.888
788,1.311233,28.881
789,1.3129,28.881
790,1.314567,28.882
791,1.316233,28.885
792,1.3179,28.883
793,1.319567,28.883
794,1.321233,28.892
795,1.3229,28.898
796,1.324583,28.903
797,1.326233,28.903
798,1.3279,28.908
799,1.329567,28.91
800,1.331233,28.914
801,1.3329,28.914
802,1.334567,28.917
803,1.336233,28.917
804,1.3379,28.916
805,1.339567,28.916
806,1.341233,28.914
807,1.342883,28.915
808,1.34455,28.915
809,1.346217,28.922
810,1.347917,28.929
811,1.34955,28.931
812,1.351217,28.931
813,1.352883,28.933
814,1.35455,28.931
815,1.356217,28.93
816,1.357883,28.93
817,1.35955,28.944
818,1.361217,28.953
819,1.362883,28.966
820,1.364667,28.966
821,1.366217,28.977
822,1.3679,28.981
823,1.36955,28.981
824,1.371217,28.985
825,1.372883,28.984
826,1.37455,28.981
827,1.376217,28.981
828,1.377883,28.979
829,1.37955,28.982
830,1.381217,28.985
831,1.382883,28.985
832,1.38455,28.993
833,1.386217,28.999
834,1.387883,28.997
835,1.38955,28.997
836,1.391217,29
837,1.392883,29
838,1.39455,29.002
839,1.396217,29.002
840,1.3979,29.008
841,1.39955,29.005
842,1.401217,29.005
843,1.402883,29.004
844,1.404533,29.006
845,1.4062,29.007
846,1.407867,29.007
847,1.409533,29.011
848,1.4112,29.022
849,1.412867,29.022
850,1.414533,29.022
851,1.4162,29.028
852,1.417883,29.037
853,1.419533,29.035
854,1.4212,29.035
855,1.422867,29.041
856,1.424533,29.04
857,1.4262,29.04
858,1.427867,29.036
859,1.429533,29.037
860,1.4312,29.039
861,1.432867,29.039
862,1.434533,29.044
863,1.4362,29.054
864,1.43785,29.06
865,1.439517,29.06
866,1.441183,29.067
867,1.44285,29.07
868,1.444517,29.075
869,1.446183,29.075
870,1.44785,29.079
871,1.449517,29.086
872,1.451183,29.086
873,1.45285,29.094
874,1.454517,29.099
875,1.456183,29.104
876,1.45785,29.104
877,1.459517,29.106
878,1.461183,29.108
879,1.462833,29.109
880,1.4645,29.109
881,1.466217,29.109
882,1.467833,29.114
883,1.4695,29.119
884,1.471167,29.119
885,1.472833,29.126
886,1.4745,29.133
887,1.476167,29.133
888,1.477833,29.133
889,1.4795,29.14
890,1.481167,29.138
891,1.48295,29.141
892,1.4845,29.141
893,1.486167,29.14
894,1.487833,29.136
895,1.4895,29.136
896,1.491167,29.143
897,1.492833,29.148
898,1.4945,29.156
899,1.496167,29.156
900,1.497833,29.16
901,1.4995,29.164
902,1.501167,29.171
903,1.502833,29.171
904,1.504517,29.175
905,1.506167,29.182
906,1.507833,29.182
907,1.5095,29.187
908,1.511167,29.186
909,1.512833,29.187
910,1.5145,29.187
911,1.516167,29.187
912,1.517833,29.187
913,1.5195,29.189
914,1.521167,29.189
915,1.522833,29.204
916,1.524483,29.214
917,1.52615,29.22
918,1.527817,29.22
919,1.529483,29.228
920,1.53115,29.225
921,1.532817,29.231
922,1.534483,29.231
923,1.53615,29.243
924,1.537817,29.252
925,1.539517,29.252
926,1.54115,29.256
927,1.542833,29.258
928,1.544483,29.255
929,1.54615,29.255
930,1.547817,29.258
931,1.549483,29.261
932,1.55115,29.272
933,1.552817,29.272
934,1.554483,29.282
935,1.55615,29.289
936,1.557817,29.304
937,1.559483,29.304
938,1.56115,29.304
939,1.562817,29.307
940,1.564483,29.307
941,1.56615,29.318
942,1.567817,29.32
943,1.569483,29.334
944,1.57115,29.334
945,1.572817,29.343
946,1.574483,29.342
947,1.57615,29.352
948,1.577817,29.352
949,1.579483,29.354
950,1.58115,29.359
951,1.582817,29.365
952,1.584467,29.365
953,1.586133,29.365
954,1.5878,29.369
955,1.589467,29.369
956,1.591133,29.379
957,1.5928,29.384
958,1.594467,29.394
959,1.596133,29.394
960,1.5978,29.402
961,1.599467,29.411
962,1.60125,29.427
963,1.6028,29.427
964,1.604467,29.435
965,1.606133,29.442
966,1.6078,29.445
967,1.609467,29.445
968,1.611133,29.444
969,1.6128,29.447
970,1.614467,29.454
971,1.61615,29.454
972,1.6178,29.465
973,1.619467,29.474
974,1.621133,29.474
975,1.6228,29.489
976,1.624467,29.5
977,1.626133,29.506
978,1.6278,29.506
979,1.629467,29.513
980,1.631133,29.511
981,1.6328,29.51
982,1.634467,29.51
983,1.636133,29.522
984,1.6378,29.526
985,1.639467,29.531
986,1.641133,29.531
987,1.6428,29.543
988,1.64445,29.538
989,1.646117,29.538
990,1.647783,29.542
991,1.64945,29.55
992,1.651117,29.546
993,1.652783,29.546
994,1.65445,29.555
995,1.656117,29.568
996,1.657783,29.58
997,1.65945,29.58
998,1.661117,29.601
999,1.662783,29.618
1000,1.66445,29.627
1001,1.666117,29.627
1002,1.667783,29.639
1003,1.66945,29.647
1004,1.671117,29.657
1005,1.672783,29.657
1006,1.67445,29.666
1007,1.676117,29.673
1008,1.677783,29.673
1009,1.67945,29.68
1010,1.681117,29.679
1011,1.6828,29.688
1012,1.68445,29.688
1013,1.68615,29.693
1014,1.687783,29.691
1015,1.68945,29.705
1016,1.691117,29.705
1017,1.692783,29.71
1018,1.69445,29.719
