"ID","sea_time","fid_signal"
1,0,1175.255
2,0.0018,1173.243
3,0.003333,1172.274
4,0.005,1173.094
5,0.006667,1173.094
6,0.008333,1171.306
7,0.01,1170.784
8,0.011667,1168.549
9,0.013333,1168.549
10,0.015,1168.698
11,0.016667,1167.729
12,0.018333,1169.741
13,0.02,1169.741
14,0.021667,1174.584
15,0.023333,1172.572
16,0.025,1172.572
17,0.026667,1171.827
18,0.028333,1170.412
19,0.030033,1169.22
20,0.031667,1169.22
21,0.033333,1172.274
22,0.035,1175.925
23,0.036667,1176.968
24,0.038333,1176.968
25,0.04,1177.341
26,0.041667,1177.713
27,0.043333,1175.851
28,0.044983,1175.851
29,0.04665,1177.862
30,0.048317,1174.137
31,0.049983,1169.667
32,0.05165,1169.667
33,0.0533,1170.71
34,0.054967,1168.177
35,0.05665,1168.177
36,0.0583,1171.678
37,0.059967,1173.913
38,0.061633,1174.584
39,0.0633,1174.584
40,0.06501700000000001,1177.341
41,0.066633,1179.65
42,0.0683,1181.737
43,0.069967,1181.737
44,0.071633,1181.066
45,0.0733,1180.619
46,0.07496700000000001,1178.309
47,0.07663300000000001,1178.309
48,0.07829999999999999,1177.043
49,0.079967,1177.713
50,0.081633,1177.713
51,0.0833,1174.807
52,0.084967,1175.031
53,0.086683,1172.721
54,0.0883,1172.721
55,0.08996700000000001,1173.019
56,0.09163300000000001,1176.298
57,0.09329999999999999,1172.796
58,0.094967,1172.796
59,0.096633,1175.18
60,0.0983,1173.69
61,0.099967,1173.69
62,0.101633,1173.69
63,0.103367,1176.149
64,0.104967,1176.223
65,0.106633,1176.223
66,0.1083,1176
67,0.109967,1175.478
68,0.111633,1176.745
69,0.1133,1176.745
70,0.11495,1175.031
71,0.116617,1172.2
72,0.118283,1171.082
73,0.120083,1171.082
74,0.121617,1167.506
75,0.123283,1166.239
76,0.12495,1170.337
77,0.126617,1170.337
78,0.128283,1170.635
79,0.12995,1173.019
80,0.131617,1174.137
81,0.133283,1174.137
82,0.13495,1171.976
83,0.136617,1173.094
84,0.138283,1173.094
85,0.13995,1175.553
86,0.141617,1176.149
87,0.143283,1177.788
88,0.14495,1177.788
89,0.146617,1177.49
90,0.148283,1172.572
91,0.14995,1170.486
92,0.151617,1170.486
93,0.153283,1169.741
94,0.15495,1171.455
95,0.156617,1174.733
96,0.158283,1174.733
97,0.15995,1173.541
98,0.161617,1174.137
99,0.163283,1174.137
100,0.16495,1172.349
101,0.166617,1173.615
102,0.168283,1178.16
103,0.16995,1178.16
104,0.171617,1180.768
105,0.173283,1178.533
106,0.17495,1177.341
107,0.1766,1177.341
108,0.178267,1175.18
109,0.179933,1171.306
110,0.1816,1170.635
111,0.183267,1170.635
112,0.184933,1171.306
113,0.1866,1170.486
114,0.188267,1171.902
115,0.189933,1171.902
116,0.191617,1174.957
117,0.193267,1173.541
118,0.194933,1173.541
119,0.1966,1176.819
120,0.198267,1177.341
121,0.199933,1178.458
122,0.2016,1178.458
123,0.203267,1178.98
124,0.204967,1175.553
125,0.2066,1176.447
126,0.208267,1176.447
127,0.209933,1175.851
128,0.2116,1175.851
129,0.213267,1175.553
130,0.214933,1175.553
131,0.2166,1175.478
132,0.218267,1174.882
133,0.219933,1174.882
134,0.221617,1170.933
135,0.223267,1171.231
136,0.224933,1166.165
137,0.2266,1166.165
138,0.228267,1166.314
139,0.229933,1170.337
140,0.2316,1173.094
141,0.233267,1173.094
142,0.234917,1177.49
143,0.236583,1178.831
144,0.238333,1180.396
145,0.239917,1180.396
146,0.241583,1181.96
147,0.24325,1180.843
148,0.244917,1178.682
149,0.246583,1178.682
150,0.24825,1177.49
151,0.249917,1173.69
152,0.251583,1173.69
153,0.25325,1175.18
154,0.254917,1173.69
155,0.256583,1171.231
156,0.25825,1171.231
157,0.259917,1173.317
158,0.261583,1173.019
159,0.26325,1174.137
160,0.264917,1174.137
161,0.266583,1173.615
162,0.26825,1174.807
163,0.269917,1174.882
164,0.271583,1174.882
165,0.27325,1177.117
166,0.274917,1178.16
167,0.276583,1178.16
168,0.27825,1178.086
169,0.279917,1177.788
170,0.281583,1174.51
171,0.28325,1174.51
172,0.284917,1177.117
173,0.286583,1176.521
174,0.28825,1173.541
175,0.289917,1173.541
176,0.291583,1173.094
177,0.29325,1169.592
178,0.2949,1166.165
179,0.296567,1166.165
180,0.298233,1169.22
181,0.2999,1169.667
182,0.301567,1168.922
183,0.303233,1168.922
184,0.3049,1169.592
185,0.306567,1170.561
186,0.308233,1170.561
187,0.3099,1172.647
188,0.311567,1175.776
189,0.313233,1176.074
190,0.3149,1176.074
191,0.316567,1171.082
192,0.318233,1169.22
193,0.3199,1171.678
194,0.321567,1171.678
195,0.32335,1173.094
196,0.3249,1176.968
197,0.326567,1176.745
198,0.328233,1176.745
199,0.3299,1172.647
200,0.331567,1172.721
201,0.333233,1172.721
202,0.3349,1169.369
203,0.33655,1171.306
204,0.338217,1172.274
205,0.339883,1172.274
206,0.34155,1172.125
207,0.343217,1174.063
208,0.344883,1174.435
209,0.34655,1174.435
210,0.348217,1173.541
211,0.349883,1174.51
212,0.35155,1175.776
213,0.3532,1175.776
214,0.354867,1172.945
215,0.35665,1174.51
216,0.3582,1174.51
217,0.359867,1173.317
218,0.361533,1174.435
219,0.3632,1178.682
220,0.364867,1178.682
221,0.366533,1181.513
222,0.3682,1191.348
223,0.369867,1197.755
224,0.371533,1197.755
225,0.3732,1210.123
226,0.374867,1230.091
227,0.376533,1257.136
228,0.3782,1257.136
229,0.379867,1310.259
230,0.381533,1384.541
231,0.3832,1491.681
232,0.384867,1491.681
233,0.386533,1645.386
234,0.3882,1854.673
235,0.389867,1854.673
236,0.391533,2139.062
237,0.3932,2515.391
238,0.394867,2993.196
239,0.396533,2993.196
240,0.3982,3586.411
241,0.399867,4306.584
242,0.401533,5150.735
243,0.4032,5150.735
244,0.404867,6126.017
245,0.406533,7219.836
246,0.4082,8417.964
247,0.409867,8417.964
248,0.411533,9710.118
249,0.4132,11068.583
250,0.41485,11068.583
251,0.416517,12473.315
252,0.418183,13898.686
253,0.41985,15314.222
254,0.421533,15314.222
255,0.423183,16691.164
256,0.42485,18002.242
257,0.426517,19220.859
258,0.4282,19220.859
259,0.42985,20326.078
260,0.431517,21301.955
261,0.433183,22130.311
262,0.43485,22130.311
263,0.436517,22806.973
264,0.438183,23324.34
265,0.43985,23683.98
266,0.441533,23683.98
267,0.443183,23892.67
268,0.44485,23959.279
269,0.446517,23959.279
270,0.448183,23893.416
271,0.44985,23709.088
272,0.451517,23417.697
273,0.453183,23417.697
274,0.45485,23034.066
275,0.456517,22578.389
276,0.458183,22059.158
277,0.45985,22059.158
278,0.461517,21491.795
279,0.463183,20886.66
280,0.46485,20254.701
281,0.466517,20254.701
282,0.468183,19604.936
283,0.46985,18949.955
284,0.471517,18949.955
285,0.473183,18292.963
286,0.47495,17637.014
287,0.4765,16993.881
288,0.478167,16993.881
289,0.479833,16358.196
290,0.4815,15740.618
291,0.483167,15142.188
292,0.484833,15142.188
293,0.4865,14563.277
294,0.488167,14012.009
295,0.489833,13479.591
296,0.4915,13479.591
297,0.493167,12967.587
298,0.494833,12474.135
299,0.496517,11996.701
300,0.498167,11996.701
301,0.499833,11542.29
302,0.5014999999999999,11110.455
303,0.503167,11110.455
304,0.504833,10701.344
305,0.5065,10310.858
306,0.508167,9936.914000000001
307,0.509833,9936.914000000001
308,0.5115,9581.074000000001
309,0.5131829999999999,9241.550999999999
310,0.514833,8922.145
311,0.516517,8922.145
312,0.518167,8616.597
313,0.519833,8326.843999999999
314,0.5215,8052.736
315,0.523167,8052.736
316,0.524833,7787.198
317,0.5265,7536.113
318,0.5281670000000001,7536.113
319,0.529833,7295.832
320,0.5315,7063.299
321,0.5331669999999999,6846.338
322,0.534833,6846.338
323,0.536483,6641.969
324,0.53815,6444.976
325,0.539817,6257.146
326,0.541483,6257.146
327,0.54315,6078.705
328,0.544817,5905.852
329,0.5464830000000001,5741.417
330,0.54815,5741.417
331,0.549817,5585.477
332,0.5514829999999999,5435.646
333,0.55315,5435.646
334,0.554817,5293.116
335,0.5564829999999999,5154.386
336,0.55815,5021.468
337,0.559867,5021.468
338,0.5615,4892.945
339,0.56315,4772.395
340,0.564817,4657.879
341,0.566483,4657.879
342,0.56815,4544.854
343,0.569817,4438.162
344,0.571483,4331.917
345,0.57315,4331.917
346,0.574817,4236.102
347,0.576483,4142.523
348,0.5781500000000001,4051.849
349,0.579817,4051.849
350,0.581483,3965.199
351,0.5831499999999999,3880.337
352,0.584817,3880.337
353,0.586483,3801.286
354,0.58815,3724.396
355,0.589817,3650.934
356,0.591483,3650.934
357,0.5932500000000001,3577.247
358,0.594817,3507.733
359,0.596467,3439.561
360,0.598133,3439.561
361,0.5998,3375.858
362,0.601467,3311.113
363,0.603133,3251.806
364,0.6048,3251.806
365,0.606467,3197.491
366,0.608133,3141.016
367,0.6098,3141.016
368,0.611467,3090.128
369,0.613133,3035.665
370,0.6148,2984.405
371,0.616467,2984.405
372,0.618133,2933.964
373,0.6198,2886.057
374,0.621467,2841.726
375,0.623133,2841.726
376,0.6248,2797.469
377,0.626467,2755.448
378,0.628117,2714.321
379,0.629783,2714.321
380,0.63145,2674.386
381,0.633117,2634.674
382,0.634783,2596.155
383,0.63645,2596.155
384,0.638117,2557.784
385,0.639783,2524.331
386,0.64145,2524.331
387,0.643117,2488.121
388,0.644783,2455.786
389,0.64645,2424.27
390,0.6481170000000001,2424.27
391,0.649783,2390.817
392,0.65145,2361.834
393,0.6531169999999999,2335.012
394,0.654767,2335.012
395,0.656433,2310.649
396,0.6581,2287.924
397,0.659767,2262.592
398,0.661433,2262.592
399,0.6631,2239.868
400,0.664767,2214.387
401,0.6664330000000001,2214.387
402,0.6681,2186
403,0.669767,2162.68
404,0.6714329999999999,2137.125
405,0.6731,2137.125
406,0.674767,2115.369
407,0.676433,2094.656
408,0.678133,2076.849
409,0.679767,2076.849
410,0.681433,2055.764
411,0.6831,2033.263
412,0.684767,2012.998
413,0.686433,2012.998
414,0.688117,1992.434
415,0.689767,1975.969
416,0.691433,1960.918
417,0.6931,1960.918
418,0.694767,1946.166
419,0.696433,1928.732
420,0.6981000000000001,1928.732
421,0.699767,1911.968
422,0.701433,1894.459
423,0.7030999999999999,1878.515
424,0.704767,1878.515
425,0.70645,1863.539
426,0.7081,1850.054
427,0.709767,1839.697
428,0.71155,1839.697
429,0.7131,1826.882
430,0.71475,1814.514
431,0.716417,1797.825
432,0.718083,1797.825
433,0.71975,1786.426
434,0.721417,1773.685
435,0.723083,1773.685
436,0.72475,1760.498
437,0.726417,1750.067
438,0.728083,1736.358
439,0.72975,1736.358
440,0.731417,1727.715
441,0.733083,1718.923
442,0.73475,1712.59
443,0.736417,1712.59
444,0.738083,1701.117
445,0.73975,1690.611
446,0.741417,1681.82
447,0.743083,1681.82
448,0.74475,1669.005
449,0.746417,1659.989
450,0.7480830000000001,1659.989
451,0.74975,1653.358
452,0.751417,1647.025
453,0.7530829999999999,1642.779
454,0.75475,1642.779
455,0.756417,1633.093
456,0.758083,1619.607
457,0.75975,1608.208
458,0.761417,1608.208
459,0.763083,1596.51
460,0.764767,1589.358
461,0.766417,1585.707
462,0.768083,1585.707
463,0.76975,1577.586
464,0.771417,1574.159
465,0.773083,1570.657
466,0.774733,1570.657
467,0.776417,1564.324
468,0.778067,1557.767
469,0.779733,1557.767
470,0.7814,1548.156
471,0.783067,1539.737
472,0.784733,1531.243
473,0.7864,1531.243
474,0.788067,1525.655
475,0.789733,1522.526
476,0.7914,1517.385
477,0.793067,1517.385
478,0.794733,1511.797
479,0.7964,1509.786
480,0.798067,1502.931
481,0.799733,1502.931
482,0.8014,1498.014
483,0.803067,1492.947
484,0.804733,1492.947
485,0.8064,1484.975
486,0.808067,1481.175
487,0.809733,1479.015
488,0.8114,1479.015
489,0.813133,1478.568
490,0.814733,1474.395
491,0.8164,1471.341
492,0.818067,1471.341
493,0.819733,1465.529
494,0.8214,1459.196
495,0.823067,1455.545
496,0.824733,1455.545
497,0.8264,1446.828
498,0.828067,1439.676
499,0.829833,1429.692
500,0.8314,1429.692
501,0.833067,1422.465
502,0.834717,1421.496
503,0.836383,1421.496
504,0.83805,1421.198
505,0.839717,1421.794
506,0.841383,1423.061
507,0.84305,1423.061
508,0.8447170000000001,1418.367
509,0.846517,1413.971
510,0.84805,1414.195
511,0.8497169999999999,1414.195
512,0.851417,1410.32
513,0.853117,1407.489
514,0.8547169999999999,1406.372
515,0.856383,1406.372
516,0.85805,1398.474
517,0.859717,1394.749
518,0.861383,1394.749
519,0.86305,1389.235
520,0.864717,1384.094
521,0.866383,1384.318
522,0.86805,1384.318
523,0.869717,1381.412
524,0.871383,1379.326
525,0.87305,1378.059
526,0.874717,1378.059
527,0.876383,1373.887
528,0.87805,1371.279
529,0.879717,1371.577
530,0.881383,1371.577
531,0.88305,1369.417
532,0.884717,1366.585
533,0.886383,1363.531
534,0.88805,1363.531
535,0.889717,1360.327
536,0.891383,1356.006
537,0.89305,1356.006
538,0.894717,1357.57
539,0.896367,1356.602
540,0.898033,1354.888
541,0.8997000000000001,1354.888
542,0.901367,1354.068
543,0.903033,1350.492
544,0.9046999999999999,1348.63
545,0.906367,1348.63
546,0.908033,1348.63
547,0.9097,1349.375
548,0.911367,1348.779
549,0.913033,1348.779
550,0.914783,1347.14
551,0.9163829999999999,1343.787
552,0.91805,1343.787
553,0.919683,1339.465
554,0.92135,1337.752
555,0.923017,1335.144
556,0.924683,1335.144
557,0.92635,1330.376
558,0.928017,1325.682
559,0.929683,1320.317
560,0.9314170000000001,1320.317
561,0.933017,1318.604
562,0.934683,1315.474
563,0.93635,1311.153
564,0.938017,1311.153
565,0.939683,1310.259
566,0.94135,1307.949
567,0.943017,1307.949
568,0.9446830000000001,1309.812
569,0.94635,1311.6
570,0.948067,1308.844
571,0.9496830000000001,1308.844
572,0.95135,1306.459
573,0.953017,1305.342
574,0.954667,1302.66
575,0.956333,1302.66
576,0.958,1301.169
577,0.959667,1301.989
578,0.961333,1302.808
579,0.963,1302.808
580,0.9647829999999999,1305.044
581,0.966333,1305.118
582,0.968,1302.361
583,0.9696669999999999,1302.361
584,0.971333,1300.424
585,0.973,1298.264
586,0.974667,1298.264
587,0.976333,1299.381
588,0.978,1298.86
589,0.979667,1296.774
590,0.981333,1296.774
591,0.983,1293.644
592,0.984667,1288.28
593,0.986333,1287.237
594,0.988,1287.237
595,0.989667,1286.566
596,0.991333,1288.205
597,0.993017,1288.28
598,0.994667,1288.28
599,0.996333,1285.821
600,0.998,1282.543
601,0.999667,1282.543
602,1.001333,1279.041
603,1.003,1277.849
604,1.004667,1277.775
605,1.006333,1277.775
606,1.008,1275.763
607,1.009667,1274.049
608,1.011333,1273.677
609,1.013,1273.677
610,1.01465,1272.336
611,1.016317,1274.049
612,1.017983,1276.135
613,1.01965,1276.135
614,1.021317,1275.688
615,1.022983,1274.943
616,1.02465,1273.528
617,1.026317,1273.528
618,1.027983,1271.516
619,1.02965,1268.014
620,1.031317,1268.014
621,1.032983,1267.344
622,1.03465,1265.034
623,1.036317,1265.705
624,1.037983,1265.705
625,1.03965,1264.513
626,1.041317,1263.767
627,1.042983,1266.45
628,1.04465,1266.45
629,1.046317,1264.214
630,1.047983,1262.426
631,1.049717,1259.67
632,1.051317,1259.67
633,1.052983,1255.646
634,1.05465,1254.678
635,1.056317,1254.678
636,1.057983,1258.105
637,1.05965,1258.403
638,1.061317,1258.776
639,1.062983,1258.776
640,1.064667,1257.956
641,1.066417,1258.925
642,1.067983,1259.223
643,1.06965,1259.223
644,1.071317,1257.658
645,1.072967,1256.689
646,1.074633,1252.517
647,1.0763,1252.517
648,1.077967,1249.015
649,1.079633,1247.078
650,1.0813,1246.78
651,1.08305,1246.78
652,1.084633,1247.674
653,1.0863,1251.474
654,1.087967,1251.474
655,1.089633,1254.976
656,1.091317,1256.242
657,1.092967,1254.231
658,1.094633,1254.231
659,1.0963,1251.698
660,1.097967,1246.408
661,1.099633,1242.682
662,1.1013,1242.682
663,1.102967,1243.427
664,1.104633,1243.874
665,1.1063,1247.525
666,1.107967,1247.525
667,1.109633,1249.76
668,1.1113,1249.462
669,1.112967,1249.462
670,1.114633,1247.674
671,1.1163,1247.376
672,1.117967,1245.365
673,1.119633,1245.365
674,1.1213,1243.502
675,1.122967,1242.831
676,1.124633,1239.33
677,1.1263,1239.33
678,1.127967,1240.596
679,1.129633,1240.894
680,1.1313,1237.616
681,1.13295,1237.616
682,1.13465,1237.541
683,1.136283,1238.063
684,1.13795,1238.063
685,1.139633,1236.573
686,1.141283,1240.373
687,1.14295,1241.341
688,1.144617,1241.341
689,1.146283,1239.031
690,1.14795,1237.243
691,1.149617,1234.114
692,1.151283,1234.114
693,1.15295,1232.475
694,1.154617,1230.016
695,1.156283,1231.432
696,1.15795,1231.432
697,1.159617,1233.593
698,1.161283,1234.189
699,1.16295,1235.679
700,1.164617,1235.679
701,1.166283,1234.412
702,1.16795,1230.389
703,1.169617,1230.389
704,1.171283,1229.718
705,1.17295,1230.91
706,1.174617,1231.804
707,1.176283,1231.804
708,1.17795,1234.114
709,1.179617,1234.263
710,1.181283,1233.22
711,1.18295,1233.22
712,1.184617,1232.699
713,1.186283,1234.189
714,1.18795,1230.389
715,1.189617,1230.389
716,1.191283,1227.707
717,1.19295,1224.13
718,1.194617,1224.13
719,1.196267,1220.778
720,1.197933,1221.523
721,1.1996,1223.609
722,1.201333,1223.609
723,1.202933,1225.546
724,1.2046,1224.801
725,1.206267,1225.844
726,1.207933,1225.844
727,1.209633,1222.64
728,1.21125,1223.013
729,1.212917,1225.248
730,1.214583,1225.248
731,1.21625,1224.354
732,1.217917,1226.44
733,1.219583,1223.534
734,1.22125,1223.534
735,1.222917,1222.193
736,1.224583,1221.672
737,1.22625,1221.672
738,1.227917,1220.033
739,1.229583,1219.884
740,1.23125,1218.244
741,1.232917,1218.244
742,1.234583,1217.946
743,1.23625,1216.605
744,1.237917,1217.276
745,1.239583,1217.276
746,1.24125,1217.648
747,1.242917,1216.084
748,1.244583,1214.743
749,1.24625,1214.743
750,1.247917,1215.637
751,1.249583,1215.339
752,1.25125,1215.339
753,1.252917,1219.139
754,1.254567,1220.331
755,1.256233,1218.99
756,1.2579,1218.99
757,1.259567,1219.66
758,1.261233,1216.605
759,1.2629,1213.849
760,1.264567,1213.849
761,1.26625,1212.06
762,1.2679,1211.39
763,1.269567,1210.645
764,1.271233,1210.645
765,1.272933,1210.868
766,1.274567,1213.253
767,1.276233,1215.562
768,1.2779,1215.562
769,1.279567,1215.488
770,1.281233,1215.115
771,1.2829,1215.115
772,1.284567,1213.998
773,1.2863,1211.166
774,1.2879,1211.762
775,1.289567,1211.762
776,1.291233,1213.7
777,1.2929,1212.135
778,1.294567,1212.507
779,1.296233,1212.507
780,1.2979,1210.198
781,1.299567,1209.304
782,1.301233,1208.335
783,1.3029,1208.335
784,1.304567,1206.398
785,1.306233,1205.28
786,1.3079,1205.28
787,1.309567,1206.174
788,1.311233,1209.974
789,1.3129,1209.006
790,1.31455,1209.006
791,1.316217,1208.782
792,1.317883,1207.888
793,1.319683,1204.982
794,1.321217,1204.982
795,1.322883,1203.939
796,1.32455,1206.696
797,1.326217,1207.665
798,1.327883,1207.665
799,1.32955,1209.378
800,1.331217,1210.868
801,1.332883,1210.868
802,1.33455,1210.868
803,1.336217,1208.335
804,1.337883,1206.696
805,1.33955,1206.696
806,1.341217,1206.174
807,1.342883,1205.355
808,1.34455,1204.833
809,1.346217,1204.833
810,1.347883,1204.61
811,1.349583,1204.237
812,1.351217,1203.865
813,1.352883,1203.865
814,1.35455,1202.971
815,1.356217,1204.237
816,1.357883,1207.441
817,1.35955,1207.441
818,1.361217,1207.814
819,1.362883,1209.527
820,1.36455,1209.527
821,1.366217,1207.516
822,1.367883,1204.461
823,1.36955,1202.449
824,1.371217,1202.449
825,1.372883,1201.779
826,1.374533,1201.704
827,1.3762,1204.163
828,1.377867,1204.163
829,1.379533,1205.28
830,1.3812,1205.057
831,1.382867,1206.174
832,1.384533,1206.174
833,1.3862,1205.578
834,1.387867,1204.014
835,1.389533,1204.014
836,1.3912,1203.716
837,1.392883,1206.323
838,1.394533,1204.386
839,1.3962,1204.386
840,1.397867,1206.473
841,1.399533,1206.398
842,1.4012,1204.163
843,1.402867,1204.163
844,1.4046,1203.939
845,1.4062,1204.908
846,1.407867,1207.739
847,1.409533,1207.739
848,1.4112,1207.963
849,1.412867,1207.218
850,1.414533,1206.994
851,1.4162,1206.994
852,1.417867,1205.504
853,1.419533,1204.014
854,1.421267,1204.014
855,1.422867,1206.174
856,1.424533,1206.845
857,1.4262,1205.355
858,1.427867,1205.355
859,1.429533,1204.461
860,1.4312,1202.151
861,1.43285,1198.575
862,1.434517,1198.575
863,1.436183,1198.5
864,1.437983,1198.798
865,1.439517,1202.002
866,1.441183,1202.002
867,1.44285,1205.504
868,1.444517,1205.653
869,1.446183,1205.653
870,1.44785,1205.131
871,1.449517,1202.673
872,1.451183,1200.736
873,1.45285,1200.736
874,1.454517,1200.065
875,1.456183,1199.99
876,1.45785,1195.669
877,1.459517,1195.669
878,1.461183,1194.328
879,1.46285,1197.606
880,1.464517,1200.661
881,1.466183,1200.661
882,1.46785,1204.163
883,1.469517,1203.716
884,1.471183,1203.343
885,1.47285,1203.343
886,1.474517,1202.896
887,1.476183,1205.057
888,1.47785,1205.057
889,1.479517,1205.727
890,1.481183,1205.727
891,1.482867,1202.524
892,1.484517,1202.524
893,1.486183,1196.787
894,1.48785,1194.03
895,1.489517,1192.018
896,1.491183,1192.018
897,1.49285,1192.465
898,1.494517,1195.967
899,1.496167,1196.563
900,1.497833,1196.563
901,1.4995,1193.583
902,1.50115,1193.807
903,1.502817,1193.807
904,1.504483,1192.242
905,1.50615,1193.359
906,1.507817,1196.861
907,1.509483,1196.861
908,1.51115,1197.085
909,1.512817,1197.904
910,1.514483,1198.426
911,1.51615,1198.426
912,1.517817,1197.308
913,1.519483,1196.936
914,1.52115,1197.234
915,1.522817,1197.234
916,1.524483,1197.085
