"ID","sea_time","fid_signal"
1,0,142.984
2,0.001667,142.984
3,0.003333,142.753
4,0.005,142.805
5,0.006667,142.626
6,0.008333,142.626
7,0.01,142.202
8,0.011667,141.583
9,0.013333,141.151
10,0.015017,141.151
11,0.016667,141.054
12,0.018333,141.643
13,0.02,141.956
14,0.021667,141.956
15,0.023333,142.232
16,0.025,142.492
17,0.02665,142.492
18,0.028317,141.911
19,0.029983,142.023
20,0.03165,141.822
21,0.033433,141.822
22,0.034983,141.703
23,0.03665,141.852
24,0.038317,141.926
25,0.039983,141.926
26,0.04165,142.03
27,0.043317,142.291
28,0.044983,142.783
29,0.04665,142.783
30,0.048317,142.954
31,0.049983,143.17
32,0.05165,143.17
33,0.053317,142.954
34,0.054983,142.805
35,0.056667,142.843
36,0.058317,142.843
37,0.059983,142.895
38,0.06165,142.582
39,0.063317,142.381
40,0.064983,142.381
41,0.06665,142.545
42,0.068333,142.343
43,0.069983,142.679
44,0.07165000000000001,142.679
45,0.07331699999999999,142.999
46,0.07498299999999999,143.059
47,0.07665,143.513
48,0.078317,143.513
49,0.079983,143.692
50,0.081633,143.319
51,0.0833,143.319
52,0.084967,142.977
53,0.086617,142.775
54,0.088283,142.545
55,0.08995,142.545
56,0.091617,142.798
57,0.093283,143.133
58,0.094967,142.969
59,0.09661699999999999,142.969
60,0.098283,143.059
61,0.09995,142.992
62,0.101617,142.738
63,0.103283,142.738
64,0.10495,142.753
65,0.106617,142.641
66,0.108283,142.641
67,0.10995,142.336
68,0.111617,142.306
69,0.113283,142.016
70,0.11495,142.016
71,0.116617,142.075
72,0.11835,142.261
73,0.11995,142.246
74,0.121617,142.246
75,0.123283,142.492
76,0.12495,142.47
77,0.126617,142.507
78,0.128283,142.507
79,0.12995,142.41
80,0.131617,142.351
81,0.133283,142.351
82,0.13495,142.239
83,0.136617,142.09
84,0.1383,142.075
85,0.13995,142.075
86,0.141617,142.105
87,0.143283,142.53
88,0.14495,142.485
89,0.146617,142.485
90,0.148267,142.716
91,0.149933,142.775
92,0.151733,142.798
93,0.153267,142.798
94,0.154933,143.036
95,0.1566,143.096
96,0.158267,143.081
97,0.159933,143.081
98,0.1616,142.843
99,0.163267,142.783
100,0.164933,142.783
101,0.1666,142.649
102,0.168267,142.492
103,0.169933,142.41
104,0.1716,142.41
105,0.173267,142.44
106,0.174933,142.47
107,0.1766,142.857
108,0.178267,142.857
109,0.179933,142.865
110,0.1816,142.91
111,0.183267,142.917
112,0.184933,142.917
113,0.1866,142.507
114,0.188267,142.276
115,0.189933,142.276
116,0.1916,142.097
117,0.193267,142.09
118,0.194933,142.224
119,0.1966,142.224
120,0.198267,142.328
121,0.199933,142.477
122,0.2016,142.261
123,0.203267,142.261
124,0.204933,142.209
125,0.206583,142.291
126,0.20825,142.202
127,0.209917,142.202
128,0.211583,142.492
129,0.21325,142.612
130,0.214933,142.552
131,0.216583,142.552
132,0.21825,142.723
133,0.219917,143.021
134,0.221583,143.021
135,0.22325,143.029
136,0.224917,143.178
137,0.226583,143.036
138,0.22825,143.036
139,0.229917,142.485
140,0.2316,142.142
141,0.23325,141.904
142,0.234917,141.904
143,0.236633,141.68
144,0.23825,141.859
145,0.239917,142.165
146,0.241583,142.165
147,0.24325,142.284
148,0.244917,142.522
149,0.246583,142.522
150,0.24825,142.522
151,0.249917,142.41
152,0.251583,142.314
153,0.25325,142.314
154,0.254917,142.351
155,0.256583,142.097
156,0.25825,142.246
157,0.259917,142.246
158,0.261583,142.694
159,0.26325,142.53
160,0.2649,142.738
161,0.266567,142.738
162,0.268267,142.731
163,0.270067,142.701
164,0.271567,142.701
165,0.273233,142.805
166,0.2749,142.85
167,0.276567,142.805
168,0.278233,142.805
169,0.2799,142.641
170,0.281567,142.694
171,0.283233,142.708
172,0.2849,142.708
173,0.286567,142.656
174,0.288233,142.328
175,0.289933,142.358
176,0.291567,142.358
177,0.293233,142.142
178,0.2949,142.157
179,0.296567,142.314
180,0.298233,142.314
181,0.2999,142.276
182,0.301567,142.202
183,0.303233,142.202
184,0.3049,142.589
185,0.306567,143.044
186,0.308233,143.066
187,0.3099,143.066
188,0.311567,143.141
189,0.313233,142.917
190,0.3149,142.857
191,0.316567,142.857
192,0.318233,143.006
193,0.3199,143.282
194,0.321567,143.349
195,0.323233,143.349
196,0.3249,142.999
197,0.32655,142.917
198,0.328217,142.917
199,0.329883,142.828
200,0.33155,142.47
201,0.333217,142.433
202,0.334883,142.433
203,0.33655,142.552
204,0.338217,142.559
205,0.339883,143.223
206,0.34155,143.223
207,0.343217,143.751
208,0.344883,143.819
209,0.34655,144.02
210,0.348217,144.02
211,0.349883,144.213
212,0.351583,144.526
213,0.353233,145.301
214,0.35495,145.301
215,0.35655,146.575
216,0.358217,147.618
217,0.359883,147.618
218,0.36155,148.587
219,0.363217,149.384
220,0.364883,150.271
221,0.36655,150.271
222,0.368217,151.604
223,0.369883,153.281
224,0.371617,155.091
225,0.3732,155.091
226,0.374867,157.088
227,0.376533,158.839
228,0.3782,161.007
229,0.379867,161.007
230,0.381533,163.287
231,0.3832,165.328
232,0.384867,165.328
233,0.386517,167.616
234,0.388283,169.553
235,0.38985,171.736
236,0.391517,171.736
237,0.393183,174.113
238,0.39485,176.139
239,0.396517,178.33
240,0.398183,178.33
241,0.39985,180.624
242,0.401517,182.591
243,0.403183,184.469
244,0.40485,184.469
245,0.406533,185.758
246,0.408183,186.458
247,0.40985,187.285
248,0.411517,187.285
249,0.413183,188.142
250,0.41485,189.096
251,0.416517,189.096
252,0.418183,189.923
253,0.41985,190.258
254,0.421517,190.198
255,0.423183,190.198
256,0.42485,190.198
257,0.426517,190.042
258,0.4282,189.781
259,0.4299,189.781
260,0.431517,189.446
261,0.433183,188.954
262,0.43485,188.202
263,0.436517,188.202
264,0.438183,187.263
265,0.43985,186.443
266,0.441517,186.443
267,0.443183,185.11
268,0.44485,183.783
269,0.4465,182.755
270,0.448167,182.755
271,0.449833,181.481
272,0.4515,180.55
273,0.453167,179.619
274,0.454833,179.619
275,0.4565,178.255
276,0.458167,177.287
277,0.459833,175.841
278,0.4615,175.841
279,0.463167,174.589
280,0.464833,173.651
281,0.4665,173.651
282,0.468167,172.153
283,0.469833,171.14
284,0.4715,169.903
285,0.473233,169.903
286,0.474833,168.443
287,0.4765,167.593
288,0.478167,166.662
289,0.479833,166.662
290,0.4815,165.82
291,0.483167,165.001
292,0.484833,163.972
293,0.4865,163.972
294,0.488167,163.175
295,0.489833,162.356
296,0.4915,161.707
297,0.493167,161.707
298,0.494833,161.029
299,0.4965,160.091
300,0.498167,160.091
301,0.499833,159.45
302,0.5014999999999999,158.958
303,0.5032,158.496
304,0.504833,158.496
305,0.5066000000000001,158.295
306,0.50815,158.027
307,0.509817,157.58
308,0.511483,157.58
309,0.51315,157.245
310,0.514817,156.671
311,0.516483,156.134
312,0.51815,156.134
313,0.519817,155.695
314,0.521483,155.21
315,0.523267,155.069
316,0.524817,155.069
317,0.526483,154.696
318,0.52815,154.689
319,0.529817,154.689
320,0.531483,154.585
321,0.53315,154.302
322,0.534817,154.115
323,0.536483,154.115
324,0.53815,153.705
325,0.539817,153.326
326,0.541483,153.042
327,0.54315,153.042
328,0.544817,153.042
329,0.5464830000000001,153.057
330,0.54815,153.199
331,0.549817,153.199
332,0.5514829999999999,153.326
333,0.55315,153.072
334,0.554817,153.072
335,0.5564829999999999,152.946
336,0.55815,152.767
337,0.559817,152.275
338,0.561483,152.275
339,0.56315,152.357
340,0.564817,152.32
341,0.5664670000000001,152.014
342,0.568133,152.014
343,0.5698,152.491
344,0.5714669999999999,152.424
345,0.573133,152.655
346,0.57485,152.655
347,0.576467,152.886
348,0.578133,152.662
349,0.5798,152.662
350,0.581467,152.826
351,0.583133,152.536
352,0.584817,152.625
353,0.586467,152.625
354,0.588133,153.027
355,0.5898,153.363
356,0.591467,153.877
357,0.593133,153.877
358,0.5948,154.421
359,0.596467,154.532
360,0.598133,154.972
361,0.5998,154.972
362,0.601467,155.382
363,0.603133,155.687
364,0.6048,155.851
365,0.606467,155.851
366,0.608183,156.052
367,0.6098,156.343
368,0.611467,156.343
369,0.613133,156.656
370,0.6148,157.14
371,0.616467,157.87
372,0.618133,157.87
373,0.6198,158.772
374,0.621467,159.837
375,0.623133,161.067
376,0.62485,161.067
377,0.62645,161.64
378,0.628117,162.326
379,0.629783,162.952
380,0.63145,162.952
381,0.633117,163.555
382,0.6348,164.598
383,0.63645,164.598
384,0.638117,165.626
385,0.639783,166.744
386,0.641567,167.988
387,0.643117,167.988
388,0.644783,168.83
389,0.64645,169.627
390,0.648133,170.887
391,0.649783,170.887
392,0.65145,172.257
393,0.6531169999999999,173.852
394,0.654783,175.551
395,0.65645,175.551
396,0.658117,176.78
397,0.659783,178.382
398,0.66145,180.274
399,0.663117,180.274
400,0.664767,182.152
401,0.6664330000000001,184.245
402,0.6681,184.245
403,0.669767,186.346
404,0.6714329999999999,188.373
405,0.6731,190.079
406,0.674767,190.079
407,0.676433,192.143
408,0.6781,194.229
409,0.679767,196.606
410,0.681433,196.606
411,0.6831,199.653
412,0.684767,202.656
413,0.6864170000000001,205.748
414,0.688083,205.748
415,0.68975,208.914
416,0.6914169999999999,211.902
417,0.693083,211.902
418,0.69475,214.882
419,0.696417,217.959
420,0.698083,221.528
421,0.69975,221.528
422,0.701417,225.306
423,0.703083,229.426
424,0.70475,233.278
425,0.706417,233.278
426,0.7081,236.869
427,0.70975,240.855
428,0.711417,244.819
429,0.713083,244.819
430,0.71475,249.438
431,0.716417,254.504
432,0.718083,254.504
433,0.71975,259.392
434,0.721417,264.496
435,0.723083,269.487
436,0.72475,269.487
437,0.726433,274.546
438,0.728083,279.598
439,0.72975,285.029
440,0.731417,285.029
441,0.733083,290.722
442,0.73475,296.28
443,0.736417,302.255
444,0.738083,302.255
445,0.73975,307.955
446,0.741417,313.915
447,0.7431,319.801
448,0.74475,319.801
449,0.7464,325.955
450,0.748067,332.758
451,0.749733,332.758
452,0.7514,339.448
453,0.753067,346.4
454,0.754733,353.158
455,0.7564,353.158
456,0.758067,360.005
457,0.759733,366.837
458,0.7614,373.848
459,0.7630670000000001,373.848
460,0.764733,380.985
461,0.766417,388.093
462,0.7680670000000001,395.641
463,0.769733,395.641
464,0.7714,403.188
465,0.7730669999999999,410.959
466,0.774733,410.959
467,0.7764,418.581
468,0.778067,426.225
469,0.779733,433.929
470,0.7814,433.929
471,0.783067,441.73
472,0.784733,449.963
473,0.786417,458.285
474,0.788067,458.285
475,0.789733,466.689
476,0.7914,474.863
477,0.793067,483.058
478,0.794733,483.058
479,0.7964,491.247
480,0.798067,499.696
481,0.799733,508.711
482,0.8014,508.711
483,0.803067,517.7190000000001
484,0.804733,526.771
485,0.806383,526.771
486,0.80805,536.032
487,0.809733,545.457
488,0.811383,554.793
489,0.8130500000000001,554.793
490,0.814717,564.218
491,0.816383,573.628
492,0.8180500000000001,582.941
493,0.819717,582.941
494,0.821383,592.3579999999999
495,0.8230499999999999,602.186
496,0.824717,611.998
497,0.826383,611.998
498,0.82805,622.004
499,0.829717,631.8390000000001
500,0.831383,631.8390000000001
501,0.83305,641.689
502,0.834717,651.829
503,0.836383,662.081
504,0.83805,662.081
505,0.839717,672.691
506,0.841383,683.323
507,0.84305,693.552
508,0.84475,693.552
509,0.846383,703.603
510,0.84805,714.116
511,0.8497169999999999,724.338
512,0.851383,724.338
513,0.85305,735
514,0.854733,745.736
515,0.856383,745.736
516,0.85805,756.107
517,0.859717,766.598
518,0.861383,777.1849999999999
519,0.86305,777.1849999999999
520,0.864717,787.869
521,0.866367,798.427
522,0.8680330000000001,809.081
523,0.8697,809.081
524,0.871367,819.467
525,0.8730329999999999,829.6369999999999
526,0.8747,839.956
527,0.876367,839.956
528,0.878167,850.148
529,0.8797,860.564
530,0.881367,870.958
531,0.883033,870.958
532,0.8847,881.359
533,0.886367,891.477
534,0.888033,891.477
535,0.8897,901.155
536,0.891367,910.759
537,0.893033,920.385
538,0.8947000000000001,920.385
539,0.896367,930.116
540,0.898033,939.593
541,0.8997000000000001,948.861
542,0.901367,948.861
543,0.903033,957.854
544,0.9046999999999999,966.646
545,0.906367,975.519
546,0.908033,975.519
547,0.9097,984.192
548,0.911367,992.7
549,0.913033,992.7
550,0.9147,1001
551,0.916367,1009.323
552,0.918033,1017.258
553,0.9197,1017.258
554,0.921367,1024.872
555,0.923067,1032.323
556,0.9247,1039.572
557,0.92635,1039.572
558,0.928017,1046.851
559,0.929683,1053.825
560,0.93135,1060.56
561,0.933017,1060.56
562,0.934683,1066.797
563,0.93635,1072.667
564,0.938017,1079.023
565,0.939683,1079.023
566,0.94135,1084.983
567,0.943017,1090.996
568,0.9446830000000001,1090.996
569,0.94635,1097.023
570,0.948017,1102.075
571,0.9496830000000001,1107.514
572,0.95135,1107.514
573,0.953017,1112.685
574,0.954667,1117.684
575,0.956333,1122.922
576,0.958,1122.922
577,0.959667,1127.526
578,0.961333,1131.885
579,0.963067,1136.452
580,0.9646670000000001,1136.452
581,0.966333,1140.334
582,0.968,1144.111
583,0.9696669999999999,1144.111
584,0.971333,1148.082
585,0.973,1151.212
586,0.974667,1154.683
587,0.976333,1154.683
588,0.978,1158.17
589,0.979667,1160.905
590,0.981333,1164.332
591,0.983,1164.332
592,0.984667,1166.947
593,0.986317,1169.771
594,0.9879829999999999,1172.751
595,0.98965,1172.751
596,0.991317,1174.927
597,0.9929829999999999,1177.497
598,0.994667,1179.628
599,0.996417,1179.628
600,0.997983,1181.468
601,0.99965,1183.495
602,1.001317,1183.495
603,1.002983,1185.447
604,1.00465,1186.877
605,1.006317,1188.71
606,1.007983,1188.71
607,1.00965,1190.253
608,1.011317,1191.37
609,1.012983,1193.136
610,1.01465,1193.136
611,1.016317,1194.365
612,1.017983,1195.587
613,1.01965,1197.04
614,1.021317,1197.04
615,1.022983,1197.83
616,1.02465,1198.523
617,1.026317,1198.523
618,1.027983,1199.313
619,1.02965,1199.901
620,1.031317,1200.512
621,1.032983,1200.512
622,1.03465,1201.13
623,1.036317,1201.637
624,1.037983,1201.704
625,1.03965,1201.704
626,1.041317,1201.838
627,1.042983,1201.659
628,1.04465,1201.391
629,1.0463,1201.391
630,1.047967,1201.563
631,1.049633,1201.481
632,1.0513,1201.481
633,1.052967,1201.391
634,1.054633,1201.071
635,1.0563,1200.311
636,1.057967,1200.311
637,1.059633,1200.005
638,1.0613,1199.596
639,1.063033,1199.163
640,1.064633,1199.163
641,1.0663,1198.865
642,1.067967,1198.202
643,1.069633,1197.666
644,1.0713,1197.666
645,1.072967,1196.854
646,1.074633,1196.325
647,1.0763,1195.528
648,1.077967,1195.528
649,1.079633,1194.693
650,1.08135,1193.941
651,1.082967,1193.941
652,1.084633,1193.009
653,1.0863,1192.205
654,1.087967,1191.177
655,1.089633,1191.177
656,1.0913,1190.111
657,1.092967,1188.956
658,1.094633,1187.675
659,1.0963,1187.675
660,1.097967,1186.512
661,1.099633,1185.529
662,1.1013,1184.247
663,1.102967,1184.247
664,1.104617,1183.189
665,1.106283,1181.833
666,1.10795,1181.833
667,1.109617,1180.142
668,1.111283,1178.645
669,1.11295,1177.043
670,1.11475,1177.043
671,1.116283,1175.761
672,1.11795,1174.621
673,1.119617,1173.347
674,1.121283,1173.347
675,1.12295,1172.014
676,1.124617,1170.643
677,1.126283,1169.153
678,1.12795,1169.153
679,1.129617,1167.7
680,1.131283,1166.217
681,1.13295,1164.779
682,1.134617,1164.779
683,1.136283,1163.423
684,1.13795,1162.06
685,1.13965,1162.06
686,1.141283,1160.711
687,1.14295,1158.975
688,1.144617,1157.254
689,1.146283,1157.254
690,1.14795,1155.488
691,1.149617,1153.596
692,1.151283,1151.972
693,1.15295,1151.972
694,1.154617,1150.213
695,1.156283,1148.298
696,1.15795,1146.51
697,1.159617,1146.51
698,1.161283,1144.491
699,1.16295,1142.636
700,1.164617,1142.636
701,1.166267,1140.848
702,1.167933,1139
703,1.1696,1137.264
704,1.171267,1137.264
705,1.172933,1135.245
706,1.1746,1133.084
707,1.176267,1130.693
708,1.177933,1130.693
709,1.1796,1128.405
710,1.181267,1126.431
711,1.182933,1124.769
712,1.1846,1124.769
713,1.186267,1123.153
714,1.187933,1121.551
715,1.1896,1119.748
716,1.191267,1119.748
717,1.192933,1117.721
718,1.1946,1115.866
719,1.196267,1115.866
720,1.197933,1113.601
721,1.199667,1111.545
722,1.201267,1109.585
723,1.202933,1109.585
724,1.2046,1107.432
725,1.206267,1105.718
726,1.207933,1103.774
727,1.2096,1103.774
728,1.211317,1101.896
729,1.212933,1099.803
730,1.2146,1097.642
731,1.216333,1097.642
732,1.217933,1095.481
733,1.2196,1093.358
734,1.221267,1093.358
735,1.222933,1091.421
736,1.2246,1089.506
737,1.22625,1087.293
738,1.227917,1087.293
739,1.229583,1084.991
740,1.23125,1082.942
741,1.23305,1080.692
742,1.234583,1080.692
743,1.23625,1078.874
744,1.237917,1077.063
745,1.239583,1075.208
746,1.24125,1075.208
747,1.242917,1073.152
748,1.244583,1071.043
749,1.246233,1071.043
750,1.2479,1068.965
751,1.249567,1066.722
752,1.251233,1064.815
753,1.2529,1064.815
754,1.254567,1062.945
755,1.256233,1060.873
756,1.2579,1058.675
757,1.259567,1058.675
758,1.261233,1056.738
759,1.2629,1054.481
760,1.264567,1052.529
761,1.266233,1052.529
762,1.2679,1050.964
763,1.269567,1048.781
764,1.271233,1046.836
765,1.2729,1046.836
766,1.274567,1044.542
767,1.276233,1042.202
768,1.2779,1042.202
769,1.279567,1040.198
770,1.281233,1038.171
771,1.282917,1036.353
772,1.2846,1036.353
773,1.286217,1034.379
774,1.287883,1032.457
775,1.28955,1030.84
776,1.291217,1030.84
777,1.292883,1028.784
778,1.29455,1026.869
779,1.296217,1024.917
780,1.297883,1024.917
781,1.29955,1022.324
782,1.301217,1020.476
783,1.302883,1020.476
784,1.30455,1018.681
785,1.306217,1016.661
786,1.307883,1015.075
787,1.30955,1015.075
788,1.311217,1013.137
789,1.312883,1011.185
790,1.31455,1009.42
791,1.316217,1009.42
792,1.317917,1007.453
793,1.31955,1005.262
794,1.321217,1002.975
795,1.322883,1002.975
796,1.32455,1000.933
797,1.326217,998.989
798,1.327883,997.029
799,1.32955,997.029
800,1.331217,995.107
801,1.332883,993.386
802,1.334667,991.27
803,1.336217,991.27
804,1.337883,989.385
805,1.33955,987.276
806,1.341217,987.276
807,1.342883,985.138
808,1.344533,983.313
809,1.3462,981.83
810,1.347867,981.83
811,1.349533,980.228
812,1.3512,978.135
813,1.3529,976.272
814,1.354533,976.272
815,1.356217,974.3049999999999
816,1.357867,972.614
817,1.359533,972.614
818,1.3612,971.042
819,1.362867,969.2089999999999
820,1.364533,966.966
821,1.3662,966.966
822,1.368,964.984
823,1.369533,962.891
824,1.3712,961.088
825,1.372867,961.088
826,1.374533,959.627
827,1.3762,957.318
828,1.377867,955.172
829,1.379533,955.172
830,1.3812,953.071
831,1.382867,950.9400000000001
832,1.384533,949.375
833,1.3862,949.375
834,1.387867,947.468
835,1.389533,945.471
836,1.3912,945.471
837,1.392867,943.601
838,1.394533,941.7089999999999
839,1.3962,940.271
840,1.397867,940.271
841,1.399533,938.848
842,1.4012,936.948
843,1.402867,935.107
844,1.404533,935.107
845,1.406183,933.252
846,1.40785,931.226
847,1.409517,929.4
848,1.411183,929.4
849,1.41285,927.612
850,1.414517,925.7569999999999
851,1.416183,925.7569999999999
852,1.41785,923.917
853,1.419517,922.3
854,1.421183,920.37
855,1.42285,920.37
856,1.42455,918.746
857,1.426183,916.913
858,1.42785,915.274
859,1.429517,915.274
860,1.431183,913.769
861,1.43285,911.869
862,1.434517,910.431
863,1.436183,910.431
864,1.43785,908.516
865,1.439517,906.877
866,1.4412,905
867,1.44285,905
868,1.444517,903.04
869,1.446183,901.55
870,1.44785,901.55
871,1.449517,899.881
872,1.451183,898.1079999999999
873,1.452917,896.29
874,1.454517,896.29
875,1.456183,894.45
876,1.45785,892.557
877,1.459517,890.8440000000001
878,1.461183,890.8440000000001
879,1.46285,889.264
880,1.464517,887.625
881,1.466167,885.829
882,1.467833,885.829
883,1.469583,884.362
884,1.471167,883.006
885,1.472833,883.006
886,1.4745,881.6420000000001
887,1.476167,880.271
888,1.477833,878.684
889,1.4795,878.684
890,1.481167,877.09
891,1.482833,874.974
892,1.4845,873.357
893,1.486233,873.357
894,1.487833,871.859
895,1.4895,870.183
896,1.491167,868.633
897,1.492833,868.633
898,1.4945,866.7859999999999
899,1.496183,864.9829999999999
900,1.497833,864.9829999999999
901,1.4995,863.12
902,1.501167,861.779
903,1.502833,860.5119999999999
904,1.5045,860.5119999999999
905,1.506167,859.335
906,1.507833,858.061
907,1.5095,856.183
908,1.511167,856.183
909,1.512833,854.328
910,1.5145,852.577
911,1.516167,850.901
912,1.517833,850.901
913,1.5195,849.634
914,1.521167,848.174
915,1.522833,846.446
916,1.524517,846.446
917,1.52615,845.008
918,1.527833,843.525
919,1.529483,843.525
920,1.53115,842.236
921,1.532817,841.111
922,1.534483,839.4640000000001
923,1.53615,839.4640000000001
924,1.5378,837.8099999999999
925,1.539467,836.03
926,1.541133,834.361
927,1.5428,834.361
928,1.544467,832.997
929,1.546133,831.448
930,1.5478,829.913
931,1.549467,829.913
932,1.551133,828.266
933,1.5528,826.746
934,1.554467,826.746
935,1.556133,825.5839999999999
936,1.5578,824.295
937,1.559467,823.177
938,1.561133,823.177
939,1.562833,821.97
940,1.564467,820.324
941,1.566133,818.938
942,1.5678,818.938
