"ID","sea_time","fid_signal"
1,0,143.439
2,0.001667,143.275
3,0.003333,143.178
4,0.005,143.059
5,0.006667,143.059
6,0.008333,143.111
7,0.01,142.418
8,0.011667,141.822
9,0.013333,141.822
10,0.015,141.501
11,0.016667,141.203
12,0.018333,141.799
13,0.02,141.799
14,0.021667,142.008
15,0.023333,142.172
16,0.025,142.172
17,0.026667,142.552
18,0.028333,142.589
19,0.030033,142.582
20,0.031667,142.582
21,0.033333,142.865
22,0.035,142.85
23,0.036667,142.969
24,0.038333,142.969
25,0.04,143.223
26,0.041667,143.245
27,0.043333,143.044
28,0.04505,143.044
29,0.046667,142.649
30,0.048333,142.395
31,0.05,142.075
32,0.051667,142.075
33,0.053333,142.09
34,0.055,142.001
35,0.056667,142.001
36,0.058317,141.911
37,0.059983,142.127
38,0.06165,142.366
39,0.063317,142.366
40,0.064983,142.664
41,0.06665,142.91
42,0.068317,142.917
43,0.069983,142.917
44,0.07165000000000001,142.716
45,0.07331699999999999,142.746
46,0.07498299999999999,142.716
47,0.07665,142.716
48,0.07845000000000001,142.902
49,0.079983,142.865
50,0.08165,142.865
51,0.083317,142.857
52,0.084983,142.992
53,0.08665,142.634
54,0.08831700000000001,142.634
55,0.08998299999999999,142.79
56,0.09165,142.85
57,0.093317,142.932
58,0.094983,142.932
59,0.09665,143.036
60,0.098317,142.939
61,0.1,142.962
62,0.10165,142.962
63,0.103317,142.731
64,0.105,142.619
65,0.106667,142.761
66,0.108317,142.761
67,0.109983,142.992
68,0.11165,143.133
69,0.113317,143.133
70,0.114983,143.468
71,0.116633,143.133
72,0.1183,143.118
73,0.119967,143.118
74,0.121633,143.096
75,0.1233,142.954
76,0.124967,143.029
77,0.126633,143.029
78,0.1283,142.41
79,0.129967,142.463
80,0.131633,142.366
81,0.1333,142.366
82,0.134967,142.425
83,0.136633,142.559
84,0.1383,142.559
85,0.139967,142.127
86,0.141633,142.112
87,0.1433,142.068
88,0.144967,142.068
89,0.146633,142.574
90,0.1483,143.088
91,0.149967,142.857
92,0.151633,142.857
93,0.1533,142.805
94,0.154967,142.455
95,0.156633,142.127
96,0.1583,142.127
97,0.159967,142.537
98,0.161633,142.448
99,0.163333,142.179
100,0.164967,142.179
101,0.166633,142.395
102,0.1683,142.246
103,0.169967,142.246
104,0.171633,142.5
105,0.1733,142.962
106,0.174967,142.887
107,0.176633,142.887
108,0.178317,142.79
109,0.18005,142.694
110,0.181617,142.545
111,0.183283,142.545
112,0.18495,142.53
113,0.186617,142.358
114,0.188283,142.455
115,0.18995,142.455
116,0.191617,142.545
117,0.193283,142.537
118,0.19495,142.537
119,0.196733,142.559
120,0.198283,142.276
121,0.19995,142.075
122,0.201617,142.075
123,0.203283,142.09
124,0.20495,142.328
125,0.206617,142.589
126,0.208283,142.589
127,0.20995,142.79
128,0.211617,142.954
129,0.213283,142.932
130,0.21495,142.932
131,0.216617,142.798
132,0.218283,142.522
133,0.21995,142.522
134,0.221617,142.403
135,0.223283,142.485
136,0.22495,142.559
137,0.226617,142.559
138,0.228283,142.954
139,0.22995,143.014
140,0.231617,142.85
141,0.233283,142.85
142,0.23495,143.044
143,0.236617,142.485
144,0.238267,142.008
145,0.239933,142.008
146,0.2416,141.948
147,0.243267,141.732
148,0.244933,142.135
149,0.2466,142.135
150,0.248267,142.731
151,0.249967,142.924
152,0.2516,142.924
153,0.253267,142.91
154,0.254933,142.865
155,0.2566,142.507
156,0.258267,142.507
157,0.259933,142.284
158,0.2616,142.083
159,0.263267,141.807
160,0.264967,141.807
161,0.2666,141.881
162,0.268267,142.03
163,0.269933,142.269
164,0.2716,142.269
165,0.273267,142.53
166,0.274933,142.649
167,0.2766,142.649
168,0.278267,142.664
169,0.279933,142.552
170,0.2816,142.261
171,0.283267,142.261
172,0.284917,141.829
173,0.286583,141.829
174,0.28825,142.023
175,0.289917,142.023
176,0.291583,142.321
177,0.29325,142.872
178,0.294917,142.895
179,0.296567,142.895
180,0.298317,143.17
181,0.2999,143.655
182,0.301567,143.655
183,0.303233,143.923
184,0.3049,144.541
185,0.306567,145.376
186,0.308233,145.376
187,0.3099,146.151
188,0.311567,147.611
189,0.313233,149.503
190,0.315,149.503
191,0.316567,151.53
192,0.318233,154.354
193,0.3199,157.997
194,0.321567,157.997
195,0.323233,162.348
196,0.3249,168.152
197,0.326567,175.081
198,0.328233,175.081
199,0.3299,183.232
200,0.331617,193.179
201,0.333233,193.179
202,0.3349,204.884
203,0.336567,218.771
204,0.338233,235.356
205,0.3399,235.356
206,0.341567,254.46
207,0.343233,276.484
208,0.3449,301.793
209,0.346567,301.793
210,0.348233,330.523
211,0.3499,363.275
212,0.351567,400.335
213,0.353233,400.335
214,0.3549,442.341
215,0.35655,489.056
216,0.358217,489.056
217,0.359883,541.754
218,0.36155,600.249
219,0.363217,664.823
220,0.364883,664.823
221,0.36655,736.721
222,0.368217,815.332
223,0.369883,901.9299999999999
224,0.37155,901.9299999999999
225,0.373217,997.7
226,0.374883,1103.066
227,0.37655,1220.256
228,0.378217,1220.256
229,0.379883,1350.38
230,0.38155,1495.682
231,0.383217,1659.095
232,0.384883,1659.095
233,0.38655,1843.669
234,0.388217,2054.364
235,0.389883,2054.364
236,0.39155,2296.15
237,0.393217,2574.548
238,0.394883,2896.584
239,0.39655,2896.584
240,0.398217,3269.546
241,0.3999,3700.189
242,0.40155,4195.973
243,0.403217,4195.973
244,0.404883,4762.843
245,0.40655,5404.815
246,0.408217,6124.318
247,0.409883,6124.318
248,0.41155,6921.411
249,0.413217,7791.907
250,0.414883,7791.907
251,0.416583,8729.665999999999
252,0.4182,9725.227999999999
253,0.419867,10765.403
254,0.421533,10765.403
255,0.4232,11835.746
256,0.424867,12918.018
257,0.426533,13993.964
258,0.4282,13993.964
259,0.429867,15043.937
260,0.431533,16047.687
261,0.4332,16987.457
262,0.434867,16987.457
263,0.436533,17846.361
264,0.4382,18610.902
265,0.439867,19271.441
266,0.441533,19271.441
267,0.4432,19820.451
268,0.444867,20254.27
269,0.446533,20254.27
270,0.4482,20573.17
271,0.449967,20780.199
272,0.451533,20880.908
273,0.4532,20880.908
274,0.454867,20882.621
275,0.456533,20794.279
276,0.4582,20625.748
277,0.459867,20625.748
278,0.461533,20388.387
279,0.4632,20093.412
280,0.464867,19750.477
281,0.466533,19750.477
282,0.4682,19369.059
283,0.469867,18957.943
284,0.471533,18957.943
285,0.4732,18523.895
286,0.474867,18073.381
287,0.476533,17611.742
288,0.478183,17611.742
289,0.47985,17143.965
290,0.481517,16675.092
291,0.483183,16208.246
292,0.48485,16208.246
293,0.486517,15746.005
294,0.488183,15289.456
295,0.48985,14840.089
296,0.491517,14840.089
297,0.493183,14400.117
298,0.49485,13970.106
299,0.496517,13550.938
300,0.498183,13550.938
301,0.49985,13142.512
302,0.501517,12744.814
303,0.5032,12744.814
304,0.50485,12359.426
305,0.506517,11985.615
306,0.5081830000000001,11622.802
307,0.50985,11622.802
308,0.511517,11270.933
309,0.5131829999999999,10929.101
310,0.51485,10597.862
311,0.516517,10597.862
312,0.5182,10277.264
313,0.51985,9966.709000000001
314,0.521517,9665.758
315,0.523183,9665.758
316,0.52485,9374.313
317,0.526517,9092.197
318,0.5282,9092.197
319,0.52985,8818.857
320,0.531517,8554.272000000001
321,0.533183,8297.905000000001
322,0.534883,8297.905000000001
323,0.536517,8050.084
324,0.538167,7810.414
325,0.539833,7578.336
326,0.5415,7578.336
327,0.543167,7353.433
328,0.544833,7135.071
329,0.5465,6923.653
330,0.548167,6923.653
331,0.549833,6719.008
332,0.5515,6521.009
333,0.553167,6521.009
334,0.554833,6329.298
335,0.5565,6143.719
336,0.558167,5963.974
337,0.559833,5963.974
338,0.5615,5789.533
339,0.563167,5620.569
340,0.564833,5456.597
341,0.5665,5456.597
342,0.568233,5297.847
343,0.569833,5144.469
344,0.5715,4995.957
345,0.573167,4995.957
346,0.574833,4852.302
347,0.576483,4713.111
348,0.5781500000000001,4578.359
349,0.579817,4578.359
350,0.581483,4447.818
351,0.5831499999999999,4321.18
352,0.584817,4321.18
353,0.586483,4198.439
354,0.58815,4079.506
355,0.589817,3964.625
356,0.591483,3964.625
357,0.59315,3853.664
358,0.594817,3746.361
359,0.596467,3642.343
360,0.598167,3642.343
361,0.5998,3541.447
362,0.6015,3443.494
363,0.603133,3348.775
364,0.6048,3348.775
365,0.606467,3256.925
366,0.608133,3168.121
367,0.6098,3168.121
368,0.611467,3082.104
369,0.613133,2998.591
370,0.6148,2917.886
371,0.616467,2917.886
372,0.618133,2839.334
373,0.6198,2763.413
374,0.621467,2689.593
375,0.623133,2689.593
376,0.6248,2618.253
377,0.626467,2549.261
378,0.6281330000000001,2481.982
379,0.6298,2481.982
380,0.631467,2416.916
381,0.6331329999999999,2353.713
382,0.6348,2292.454
383,0.636467,2292.454
384,0.638133,2233.267
385,0.6398,2175.935
386,0.641467,2175.935
387,0.643133,2120.376
388,0.6448,2066.649
389,0.646467,2014.503
390,0.648133,2014.503
391,0.6498,1963.891
392,0.651467,1914.263
393,0.6531670000000001,1865.797
394,0.6548,1865.797
395,0.656467,1819.35
396,0.658117,1774.222
397,0.659783,1730.71
398,0.66145,1730.71
399,0.663117,1688.465
400,0.664783,1647.107
401,0.66645,1647.107
402,0.668117,1607.053
403,0.6698499999999999,1568.198
404,0.67145,1530.238
405,0.673117,1530.238
406,0.674783,1493.543
407,0.67645,1457.833
408,0.678133,1423.582
409,0.679783,1423.582
410,0.68145,1390.472
411,0.683117,1358.084
412,0.684783,1326.568
413,0.686567,1326.568
414,0.688117,1295.73
415,0.689783,1266.144
416,0.69145,1237.385
417,0.693117,1237.385
418,0.694783,1209.207
419,0.69645,1181.908
420,0.698117,1181.908
421,0.699783,1155.302
422,0.70145,1129.471
423,0.703117,1104.698
424,0.704783,1104.698
425,0.70645,1080.461
426,0.708117,1057.133
427,0.7097830000000001,1034.349
428,0.71145,1034.349
429,0.713117,1012.281
430,0.7147829999999999,990.562
431,0.71645,969.186
432,0.7181,969.186
433,0.719767,948.794
434,0.721433,928.9160000000001
435,0.7231,928.9160000000001
436,0.7247670000000001,909.574
437,0.726433,891.052
438,0.7281,872.813
439,0.7297670000000001,872.813
440,0.731433,854.716
441,0.7331,837.378
442,0.7347669999999999,820.354
443,0.736433,820.354
444,0.7381,803.716
445,0.739767,788.011
446,0.741433,772.581
447,0.7431,772.581
448,0.744767,757.635
449,0.746433,743.337
450,0.7481,743.337
451,0.749767,729.151
452,0.751433,715.189
453,0.7531,701.599
454,0.754767,701.599
455,0.756433,688.396
456,0.7581,675.5890000000001
457,0.759767,663.206
458,0.761433,663.206
459,0.7631,650.965
460,0.764767,638.992
461,0.766433,627.51
462,0.7681,627.51
463,0.769767,616.506
464,0.7715,605.859
465,0.7731,595.421
466,0.774767,595.421
467,0.776433,585.057
468,0.778083,574.768
469,0.7797500000000001,574.768
470,0.781417,564.903
471,0.783083,555.299
472,0.7847499999999999,545.956
473,0.786417,545.956
474,0.788083,537.053
475,0.78975,528.306
476,0.791417,519.6180000000001
477,0.793083,519.6180000000001
478,0.79475,511.408
479,0.796417,503.153
480,0.798083,494.89
481,0.79975,494.89
482,0.801417,487.35
483,0.803083,479.974
484,0.804867,472.836
485,0.8064170000000001,472.836
486,0.808083,465.877
487,0.80975,458.911
488,0.8114170000000001,458.911
489,0.813083,452.101
490,0.81475,445.373
491,0.8164169999999999,439.025
492,0.8181,439.025
493,0.81975,432.461
494,0.821417,426.158
495,0.823083,420.488
496,0.82475,420.488
497,0.826417,414.61
498,0.828083,409.186
499,0.82975,403.62
500,0.831417,403.62
501,0.833083,397.779
502,0.83475,392.497
503,0.836417,392.497
504,0.838067,387.385
505,0.839733,382.341
506,0.8414,377.513
507,0.843067,377.513
508,0.844733,373.103
509,0.846417,368.185
510,0.848067,363.536
511,0.849733,363.536
512,0.8514,359.207
513,0.853067,354.633
514,0.854733,350.58
515,0.8564000000000001,350.58
516,0.858067,346.631
517,0.859733,342.786
518,0.8614000000000001,342.786
519,0.863067,338.875
520,0.864733,335.023
521,0.8663999999999999,331.052
522,0.86805,331.052
523,0.869717,327.311
524,0.871383,323.877
525,0.87305,320.315
526,0.874717,320.315
527,0.876383,317.097
528,0.87805,313.625
529,0.879717,310.048
530,0.881383,310.048
531,0.88305,306.994
532,0.884717,304.14
533,0.886383,301.123
534,0.88805,301.123
535,0.889783,298.306
536,0.891383,295.393
537,0.89305,295.393
538,0.894717,292.376
539,0.896367,289.842
540,0.898033,286.981
541,0.8997000000000001,286.981
542,0.901367,284.478
543,0.903033,281.878
544,0.9046999999999999,279.36
545,0.9064,279.36
546,0.908033,276.826
547,0.9097,274.04
548,0.911367,271.492
549,0.913033,271.492
550,0.9147,269.093
551,0.916367,267.044
552,0.918033,267.044
553,0.9197,265.256
554,0.921367,263.222
555,0.923133,261.396
556,0.9247,261.396
557,0.9263670000000001,259.303
558,0.928033,257.246
559,0.9297,255.384
560,0.9313669999999999,255.384
561,0.933033,253.238
562,0.9347,251.278
563,0.936383,249.118
564,0.938033,249.118
565,0.9397,247.315
566,0.941367,245.504
567,0.943033,245.504
568,0.9447,243.895
569,0.946367,242.718
570,0.948033,241.004
571,0.9497,241.004
572,0.951367,239.417
573,0.953033,237.972
574,0.9547,236.116
575,0.956367,236.116
576,0.958017,234.671
577,0.959683,233.062
578,0.961383,231.445
579,0.963017,231.445
580,0.964683,229.932
581,0.96635,228.614
582,0.968017,227.176
583,0.969683,227.176
584,0.97135,225.857
585,0.973017,224.866
586,0.974683,224.866
587,0.9763500000000001,223.629
588,0.978017,222.556
589,0.979683,221.238
590,0.9813499999999999,221.238
591,0.983017,219.598
592,0.984683,217.944
593,0.9863499999999999,216.521
594,0.988017,216.521
595,0.989683,215.687
596,0.99135,214.86
597,0.993017,214.078
598,0.994683,214.078
599,0.99635,213.012
600,0.998017,211.567
601,0.999683,211.567
602,1.00135,210.054
603,1.003017,208.952
604,1.004683,208.117
605,1.00635,208.117
606,1.0081,207.35
607,1.009683,206.791
608,1.01135,205.792
609,1.013017,205.792
610,1.014683,204.965
611,1.01635,204.049
612,1.018,203.058
613,1.019667,203.058
614,1.021333,202.067
615,1.023,200.994
616,1.024667,200.123
617,1.026333,200.123
618,1.028,198.953
619,1.029667,198.253
620,1.031333,198.253
621,1.033033,197.709
622,1.034667,196.882
623,1.036333,196.509
624,1.038,196.509
625,1.039667,195.861
626,1.04145,195.272
627,1.043,194.602
628,1.044667,194.602
629,1.046333,194.088
630,1.048,193.715
631,1.049667,192.799
632,1.051333,192.799
633,1.053,192.255
634,1.054667,191.398
635,1.056333,191.398
636,1.058,190.422
637,1.059667,189.759
638,1.061333,189.126
639,1.063,189.126
640,1.064667,188.462
641,1.066333,188.127
642,1.068,187.36
643,1.069667,187.36
644,1.071333,186.659
645,1.073,186.257
646,1.074667,185.452
647,1.076333,185.452
648,1.077983,185.251
649,1.07965,184.774
650,1.081333,184.424
651,1.082983,184.424
652,1.08465,184.104
653,1.086317,183.597
654,1.087983,183.597
655,1.08965,183.024
656,1.091317,182.077
657,1.092983,181.414
658,1.09465,181.414
659,1.096333,181.131
660,1.097983,180.803
661,1.099667,180.647
662,1.101317,180.647
663,1.102983,180.162
664,1.10465,179.566
665,1.106317,179.127
666,1.107983,179.127
667,1.10965,178.553
668,1.111317,178.121
669,1.112983,178.121
670,1.11465,177.324
671,1.116317,176.609
672,1.117983,175.945
673,1.11965,175.945
674,1.121317,175.267
675,1.122983,174.94
676,1.12465,174.753
677,1.12635,174.753
678,1.127983,174.843
679,1.12965,174.791
680,1.131317,174.381
681,1.132983,174.381
682,1.13465,174.172
683,1.136317,173.911
684,1.137967,173.911
685,1.139633,173.621
686,1.1413,173.397
687,1.14305,172.95
688,1.144633,172.95
689,1.1463,172.324
690,1.147967,172.026
691,1.149633,171.781
692,1.1513,171.781
693,1.152967,171.401
694,1.154633,171.028
695,1.1563,170.633
696,1.157967,170.633
697,1.159717,170.253
698,1.161283,169.873
699,1.16295,169.59
700,1.164617,169.59
701,1.166283,169.061
702,1.16795,168.748
703,1.169617,168.748
704,1.171283,168.741
705,1.17295,168.689
706,1.17465,168.972
707,1.176283,168.972
708,1.17795,168.875
709,1.179617,168.383
710,1.181283,167.951
711,1.18295,167.951
712,1.184617,167.437
713,1.186283,167.273
714,1.18795,167.184
715,1.189617,167.184
716,1.191283,166.863
717,1.19295,166.461
718,1.194617,166.461
719,1.196283,166.036
720,1.197933,165.44
721,1.1996,164.934
722,1.201267,164.934
723,1.202933,164.591
724,1.2046,164.106
725,1.206267,164.062
726,1.207933,164.062
727,1.2096,164.121
728,1.211267,164.218
729,1.212933,164.211
730,1.2146,164.211
731,1.216267,164.01
732,1.217933,163.786
733,1.2196,163.086
734,1.221267,163.086
735,1.222933,162.862
736,1.2246,162.885
737,1.226267,162.885
738,1.227933,162.847
739,1.2296,163.183
740,1.231267,163.078
741,1.232933,163.078
742,1.2346,162.654
743,1.236267,162.527
744,1.237933,162.192
745,1.2396,162.192
746,1.241267,162.095
747,1.242933,162.095
748,1.2446,161.625
749,1.246267,161.625
750,1.247933,161.499
751,1.2496,161.044
752,1.251267,161.044
753,1.252933,160.672
754,1.2546,160.612
755,1.256267,160.202
756,1.257917,160.202
757,1.259583,160.21
758,1.261367,160.113
759,1.262917,159.979
760,1.264583,159.979
761,1.26625,159.979
762,1.267917,159.748
763,1.269583,159.629
764,1.27125,159.629
765,1.272917,159.39
766,1.274583,159.495
767,1.27625,159.487
768,1.277967,159.487
769,1.279583,159.405
770,1.28125,159.137
771,1.282917,159.137
772,1.284583,158.541
773,1.28625,158.198
774,1.287917,158.161
775,1.289583,158.161
776,1.29125,158.131
777,1.292917,158.109
778,1.2947,157.997
779,1.29625,157.997
780,1.297917,157.498
781,1.299583,157.475
782,1.30125,157.192
783,1.302917,157.192
784,1.304583,157.014
785,1.30625,156.827
786,1.307917,156.827
787,1.309583,156.574
788,1.31125,156.693
789,1.312917,156.85
790,1.314583,156.85
791,1.316233,156.917
792,1.317933,156.872
793,1.319567,157.043
794,1.321233,157.043
795,1.3229,156.879
796,1.324567,156.686
797,1.326233,156.604
798,1.3279,156.604
799,1.329567,156.052
800,1.331233,155.784
801,1.3329,155.784
802,1.334567,155.71
803,1.336233,155.419
804,1.3379,155.464
805,1.339567,155.464
806,1.341233,155.598
807,1.3429,155.427
808,1.344567,155.419
809,1.346233,155.419
810,1.3479,155.255
811,1.349567,154.845
812,1.351233,154.898
813,1.3529,154.898
814,1.354567,154.801
815,1.356233,154.674
816,1.3579,154.816
817,1.359567,154.816
818,1.361233,154.883
819,1.3629,154.749
820,1.364567,154.749
821,1.366233,154.905
822,1.3679,154.853
823,1.369567,154.428
824,1.371233,154.428
825,1.3729,154.398
826,1.374567,153.914
827,1.376233,153.787
828,1.377883,153.787
829,1.379583,153.75
830,1.381217,153.624
831,1.382883,153.676
832,1.38455,153.676
833,1.386217,153.624
834,1.3879,153.601
835,1.38955,153.601
836,1.391217,153.899
837,1.392883,154.108
838,1.39455,153.922
839,1.396233,153.922
840,1.397883,153.84
841,1.39955,153.422
842,1.401217,152.96
843,1.402883,152.96
844,1.40455,152.975
845,1.406217,153.02
846,1.407883,152.901
847,1.40955,152.901
848,1.411217,153.147
849,1.4129,152.975
850,1.41455,152.849
851,1.416217,152.849
852,1.417883,152.841
853,1.41955,152.618
854,1.421217,152.618
855,1.422883,152.171
856,1.424567,152.111
857,1.426217,151.977
858,1.427883,151.977
859,1.42955,152.126
860,1.431217,152.625
861,1.432883,152.521
862,1.43455,152.521
863,1.4362,152.647
864,1.437867,152.32
865,1.439533,152.208
866,1.4412,152.208
867,1.442867,152.305
868,1.444533,151.925
869,1.4462,151.925
870,1.447867,151.917
871,1.449517,151.373
872,1.451183,150.926
873,1.45285,150.926
874,1.454517,151.001
875,1.456183,150.8
876,1.457867,150.822
877,1.459517,150.822
878,1.461183,150.77
879,1.46285,150.591
880,1.464517,150.435
881,1.466183,150.435
882,1.46785,150.733
883,1.469517,150.777
884,1.471183,150.733
885,1.47285,150.733
886,1.474517,150.837
887,1.476183,150.517
888,1.47785,150.517
889,1.479517,150.442
890,1.481183,150.397
891,1.48285,150.308
892,1.484533,150.308
893,1.486183,150.479
894,1.48785,150.74
895,1.489517,150.956
896,1.491183,150.956
897,1.49285,150.628
898,1.494517,150.137
899,1.496167,149.637
900,1.4979,149.637
901,1.4995,149.257
902,1.501167,149.533
903,1.502833,149.533
904,1.504517,149.891
905,1.506217,150.129
906,1.507833,150.107
907,1.5095,150.107
908,1.511167,150.211
909,1.512833,150.077
910,1.5145,149.928
911,1.516167,149.928
912,1.517833,149.935
913,1.5195,149.57
914,1.521167,149.705
915,1.522833,149.705
916,1.5245,149.906
917,1.526167,150.234
918,1.527833,150.234
919,1.5295,150.532
920,1.53125,150.241
921,1.532833,150.099
922,1.5345,150.099
923,1.536167,149.906
924,1.537833,149.764
925,1.5395,149.973
926,1.541167,149.973
927,1.542833,149.667
928,1.5445,149.183
929,1.546167,149.101
930,1.547833,149.101
931,1.5495,148.751
932,1.551167,148.855
933,1.552833,148.922
934,1.5545,148.922
935,1.556167,148.736
936,1.557817,148.721
937,1.559483,148.721
938,1.56115,148.803
939,1.562817,148.863
940,1.564483,148.982
941,1.56615,148.982
942,1.567817,148.952
943,1.569483,149.004
944,1.57115,149.153
945,1.572817,149.153
946,1.574483,149.064
947,1.57615,149.123
948,1.577817,148.937
