"ID","sea_time","fid_signal"
1,0,1172.945
2,0.001683,1172.945
3,0.003333,1174.51
4,0.005,1175.627
5,0.006667,1175.627
6,0.008333,1174.584
7,0.01,1173.913
8,0.011667,1169.592
9,0.013333,1169.592
10,0.015,1169.592
11,0.016667,1173.317
12,0.018433,1171.604
13,0.02,1171.604
14,0.021667,1173.317
15,0.023333,1172.647
16,0.025,1170.71
17,0.026667,1170.71
18,0.028333,1172.572
19,0.03,1171.38
20,0.031667,1171.38
21,0.033333,1173.765
22,0.035,1173.615
23,0.036667,1173.392
24,0.038333,1173.392
25,0.04,1175.106
26,0.04165,1173.094
27,0.043317,1174.733
28,0.044983,1174.733
29,0.04665,1173.317
30,0.048317,1173.168
31,0.049983,1172.945
32,0.05165,1172.945
33,0.053317,1169.89
34,0.054983,1171.231
35,0.056667,1172.274
36,0.058317,1172.274
37,0.059983,1174.957
38,0.06165,1176.894
39,0.063317,1176.894
40,0.064983,1178.235
41,0.06665,1178.011
42,0.068317,1174.212
43,0.069983,1174.212
44,0.07165000000000001,1175.478
45,0.07331699999999999,1175.851
46,0.07498299999999999,1173.466
47,0.076667,1173.466
48,0.078317,1174.435
49,0.079983,1171.753
50,0.08165,1169.965
51,0.083317,1169.965
52,0.084983,1172.945
53,0.08665,1173.839
54,0.08831700000000001,1173.839
55,0.08998299999999999,1174.659
56,0.09165,1175.851
57,0.093317,1173.69
58,0.094983,1173.69
59,0.09665,1173.243
60,0.0983,1172.572
61,0.099967,1168.773
62,0.101633,1168.773
63,0.1033,1169.145
64,0.104967,1168.102
65,0.106633,1166.239
66,0.1083,1166.239
67,0.109967,1169.965
68,0.111633,1170.561
69,0.1133,1170.561
70,0.114967,1170.337
71,0.116633,1175.329
72,0.1183,1172.349
73,0.119983,1172.349
74,0.121633,1172.498
75,0.1233,1174.733
76,0.124967,1173.988
77,0.126633,1173.988
78,0.1283,1175.702
79,0.129967,1175.329
80,0.131633,1173.168
81,0.1333,1173.168
82,0.135,1172.349
83,0.13675,1173.839
84,0.1383,1173.541
85,0.139967,1173.541
86,0.141633,1172.647
87,0.1433,1173.988
88,0.144967,1173.988
89,0.146633,1173.69
90,0.1483,1175.776
91,0.149967,1177.415
92,0.151633,1177.415
93,0.1533,1175.702
94,0.154967,1174.435
95,0.156633,1172.572
96,0.1583,1172.572
97,0.15995,1173.839
98,0.161617,1174.137
99,0.163283,1172.945
100,0.16495,1172.945
101,0.166617,1173.019
102,0.168283,1170.188
103,0.16995,1170.188
104,0.171617,1169.071
105,0.173283,1171.38
106,0.17495,1171.157
107,0.176617,1171.157
108,0.178283,1174.36
109,0.17995,1173.839
110,0.181617,1170.263
111,0.183283,1170.263
112,0.18495,1168.549
113,0.186617,1166.388
114,0.188283,1169.369
115,0.18995,1169.369
116,0.191617,1170.71
117,0.193283,1170.784
118,0.19495,1173.541
119,0.196617,1173.541
120,0.198283,1171.082
121,0.19995,1172.051
122,0.201617,1172.051
123,0.203283,1173.392
124,0.20495,1170.71
125,0.206617,1168.996
126,0.208283,1168.996
127,0.20995,1168.773
128,0.211617,1169.89
129,0.213283,1170.337
130,0.21495,1170.337
131,0.216617,1171.678
132,0.218283,1171.753
133,0.219933,1170.486
134,0.221683,1170.486
135,0.223267,1169.369
136,0.224933,1170.561
137,0.226617,1170.561
138,0.228267,1170.114
139,0.229933,1169.89
140,0.2316,1170.486
141,0.233267,1170.486
142,0.234933,1170.188
143,0.2366,1171.753
144,0.238267,1173.094
145,0.239933,1173.094
146,0.2416,1171.082
147,0.243267,1169.89
148,0.244933,1169.443
149,0.2466,1169.443
150,0.248267,1168.847
151,0.249933,1169.369
152,0.2516,1170.337
153,0.253267,1170.337
154,0.254967,1170.635
155,0.2566,1169.518
156,0.258267,1169.518
157,0.259933,1170.635
158,0.2616,1171.529
159,0.263267,1172.572
160,0.264933,1172.572
161,0.2666,1174.435
162,0.268267,1173.988
163,0.269933,1170.561
164,0.2716,1170.561
165,0.27325,1168.475
166,0.274917,1168.4
167,0.276583,1172.2
168,0.278233,1172.2
169,0.279933,1175.255
170,0.281567,1174.882
171,0.283233,1174.882
172,0.2849,1171.455
173,0.286567,1169.816
174,0.288233,1168.027
175,0.2899,1168.027
176,0.291567,1168.4
177,0.293233,1171.231
178,0.2949,1170.561
179,0.296567,1170.561
180,0.298233,1171.902
181,0.2999,1172.498
182,0.301567,1171.604
183,0.303233,1171.604
184,0.3049,1172.125
185,0.306567,1171.678
186,0.308233,1171.678
187,0.3099,1173.019
188,0.311567,1175.702
189,0.313233,1174.957
190,0.3149,1174.957
191,0.316567,1174.212
192,0.318233,1173.466
193,0.3199,1172.647
194,0.321567,1172.647
195,0.323233,1172.498
196,0.3249,1175.478
197,0.326567,1175.255
198,0.328233,1175.255
199,0.3299,1173.988
200,0.331567,1175.255
201,0.333233,1171.902
202,0.3349,1171.902
203,0.336567,1170.039
204,0.338217,1169.145
205,0.33995,1169.145
206,0.34155,1168.102
207,0.343233,1170.263
208,0.344883,1170.114
209,0.34655,1170.114
210,0.348217,1173.168
211,0.349883,1172.2
212,0.35155,1174.212
213,0.353217,1174.212
214,0.354883,1177.415
215,0.35655,1174.063
216,0.358217,1172.945
217,0.359883,1172.945
218,0.36155,1168.847
219,0.363217,1165.867
220,0.364883,1165.867
221,0.36655,1168.773
222,0.368217,1168.624
223,0.369883,1169.294
224,0.37155,1169.294
225,0.373333,1168.475
226,0.374883,1163.632
227,0.37655,1164.898
228,0.378217,1164.898
229,0.379883,1164.377
230,0.38155,1166.835
231,0.383217,1170.039
232,0.384883,1170.039
233,0.38655,1171.231
234,0.388217,1173.615
235,0.389883,1174.212
236,0.39155,1174.212
237,0.393217,1177.564
238,0.394883,1181.29
239,0.39655,1181.29
240,0.398217,1181.886
241,0.399867,1184.195
242,0.401533,1187.921
243,0.4032,1187.921
244,0.404867,1195.222
245,0.406533,1206.845
246,0.4082,1226.366
247,0.409867,1226.366
248,0.411533,1248.792
249,0.4132,1284.778
250,0.414867,1343.787
251,0.416533,1343.787
252,0.418217,1426.563
253,0.419867,1550.093
254,0.421533,1550.093
255,0.4232,1719.073
256,0.424867,1943.708
257,0.426533,2236.813
258,0.4282,2236.813
259,0.429867,2609.789
260,0.431533,3071.427
261,0.4332,3627.39
262,0.434867,3627.39
263,0.436533,4282.37
264,0.4382,5034.432
265,0.439867,5875.528
266,0.441533,5875.528
267,0.4432,6795.376
268,0.444867,7775.5
269,0.446533,8798.688
270,0.4482,8798.688
271,0.449867,9850.785
272,0.451533,10906.234
273,0.4532,10906.234
274,0.454867,11943.28
275,0.456533,12942.553
276,0.4582,13876.334
277,0.45985,13876.334
278,0.461517,14738.291
279,0.463183,15513.077
280,0.46485,16189.143
281,0.466517,16189.143
282,0.468183,16767.01
283,0.46985,17241.537
284,0.471517,17614.141
285,0.473183,17614.141
286,0.47485,17885.863
287,0.476517,18064.529
288,0.478183,18064.529
289,0.479867,18158.555
290,0.481517,18173.232
291,0.483183,18127.338
292,0.48485,18127.338
293,0.486517,18021.912
294,0.488183,17864.854
295,0.48985,17672.031
296,0.491567,17672.031
297,0.493183,17444.193
298,0.49485,17196.164
299,0.496517,16926.08
300,0.498183,16926.08
301,0.49985,16639.531
302,0.501517,16342.178
303,0.503183,16032.085
304,0.50485,16032.085
305,0.506517,15721.843
306,0.5081830000000001,15414.06
307,0.50985,15414.06
308,0.511517,15104.115
309,0.5131829999999999,14800.354
310,0.51485,14498.457
311,0.516517,14498.457
312,0.5181829999999999,14198.869
313,0.519833,13907.552
314,0.5215,13620.183
315,0.523167,13620.183
316,0.524833,13339.817
317,0.5265,13069.287
318,0.5281670000000001,12807.921
319,0.529833,12807.921
320,0.5315,12553.931
321,0.5331669999999999,12309.626
322,0.534833,12309.626
323,0.5365,12071.133
324,0.538167,11836.663
325,0.539833,11611.655
326,0.5415,11611.655
327,0.543167,11395.589
328,0.544833,11182.8
329,0.5465,10980.145
330,0.548167,10980.145
331,0.549833,10782.107
332,0.5515,10588.243
333,0.553167,10402.501
334,0.554833,10402.501
335,0.5565,10222.196
336,0.558167,10046.885
337,0.559867,9875.371999999999
338,0.5615,9875.371999999999
339,0.563167,9712.204
340,0.564817,9552.017
341,0.566483,9552.017
342,0.56815,9399.727000000001
343,0.569817,9255.409
344,0.571483,9115.413
345,0.57315,9115.413
346,0.574817,8975.342000000001
347,0.576483,8839.369000000001
348,0.5781500000000001,8706.376
349,0.5798,8706.376
350,0.581467,8573.904
351,0.583133,8450.075999999999
352,0.5848,8328.334000000001
353,0.586467,8328.334000000001
354,0.588133,8208.752
355,0.5898,8096.397
356,0.591467,8096.397
357,0.5931999999999999,7986.65
358,0.5948,7877.722
359,0.596467,7772.893
360,0.598133,7772.893
361,0.5998,7671.565
362,0.601467,7572.025
363,0.603133,7476.583
364,0.6048,7476.583
365,0.606467,7384.047
366,0.608133,7289.574
367,0.609867,7198.081
368,0.611467,7198.081
369,0.613133,7109.866
370,0.6148,7021.949
371,0.616467,7021.949
372,0.618133,6937.161
373,0.6198,6857.514
374,0.621467,6777.346
375,0.623133,6777.346
376,0.6248,6699.86
377,0.626567,6625.727
378,0.6281330000000001,6550.029
379,0.6298,6550.029
380,0.631467,6479.1
381,0.6331329999999999,6409.958
382,0.6348,6341.264
383,0.636483,6341.264
384,0.6381829999999999,6273.836
385,0.639783,6207.675
386,0.64145,6143.898
387,0.643117,6143.898
388,0.644783,6081.983
389,0.64645,6023.124
390,0.6481170000000001,6023.124
391,0.649783,5964.339
392,0.65145,5903.318
393,0.6531169999999999,5846.322
394,0.6548,5846.322
395,0.65645,5786.94
396,0.658117,5729.646
397,0.659783,5677.417
398,0.66145,5677.417
399,0.663117,5621.538
400,0.664783,5568.117
401,0.66645,5517.751
402,0.668117,5517.751
403,0.669783,5466.565
404,0.67145,5419.701
405,0.673117,5419.701
406,0.674783,5372.39
407,0.67645,5324.483
408,0.678117,5276.65
409,0.679783,5276.65
410,0.68145,5228.221
411,0.683117,5184.04
412,0.684783,5141.199
413,0.68645,5141.199
414,0.688117,5099.401
415,0.689783,5056.485
416,0.69145,5014.911
417,0.693117,5014.911
418,0.6948,4972.219
419,0.69645,4929.155
420,0.698117,4929.155
421,0.699767,4886.761
422,0.701467,4844.814
423,0.7030999999999999,4805.55
424,0.704783,4805.55
425,0.706467,4769.117
426,0.7081,4731.789
427,0.709767,4695.58
428,0.711483,4695.58
429,0.7131,4659.146
430,0.714767,4620.031
431,0.716433,4585.981
432,0.7181,4585.981
433,0.719767,4550.74
434,0.721433,4515.499
435,0.7231,4484.355
436,0.7247670000000001,4484.355
437,0.726433,4448.742
438,0.728133,4418.343
439,0.7297670000000001,4418.343
440,0.731433,4385.188
441,0.7331,4350.394
442,0.7347669999999999,4319.847
443,0.736433,4319.847
444,0.7381,4287.958
445,0.739767,4258.976
446,0.741433,4231.855
447,0.7431,4231.855
448,0.744883,4203.543
449,0.746433,4174.858
450,0.7481,4145.429
451,0.749767,4145.429
452,0.751433,4114.956
453,0.7531,4086.718
454,0.754767,4086.718
455,0.756433,4055.574
456,0.7581,4029.795
457,0.75975,4003.942
458,0.761417,4003.942
459,0.763083,3975.257
460,0.76475,3947.914
461,0.766417,3916.919
462,0.768083,3916.919
463,0.76975,3889.427
464,0.771417,3868.118
465,0.773083,3846.437
466,0.774767,3846.437
467,0.776417,3826.171
468,0.778083,3802.478
469,0.7797500000000001,3776.252
470,0.781417,3776.252
471,0.783083,3752.634
472,0.7847499999999999,3725.514
473,0.786417,3725.514
474,0.788083,3700.703
475,0.789767,3680.363
476,0.791417,3657.564
477,0.793083,3657.564
478,0.79475,3635.66
479,0.796417,3617.331
480,0.798083,3593.266
481,0.79975,3593.266
482,0.801417,3572.181
483,0.803083,3555.194
484,0.80475,3534.779
485,0.8064170000000001,3534.779
486,0.808083,3513.023
487,0.80975,3488.958
488,0.8114170000000001,3488.958
489,0.813083,3464.594
490,0.81475,3438.592
491,0.8164169999999999,3415.495
492,0.818083,3415.495
493,0.819733,3397.539
494,0.8214,3376.529
495,0.823067,3359.541
496,0.824733,3359.541
497,0.8264,3344.417
498,0.828067,3323.927
499,0.829833,3308.132
500,0.8314,3308.132
501,0.833067,3290.027
502,0.8347329999999999,3267.899
503,0.8364,3248.081
504,0.838067,3248.081
505,0.839733,3229.305
506,0.8414,3210.53
507,0.843067,3210.53
508,0.844733,3194.884
509,0.846433,3180.057
510,0.848067,3161.058
511,0.849733,3161.058
512,0.8514,3145.784
513,0.853067,3130.063
514,0.854733,3110.394
515,0.856383,3110.394
516,0.85805,3092.885
517,0.859717,3075.376
518,0.861383,3057.048
519,0.863167,3057.048
520,0.864717,3043.86
521,0.866383,3029.183
522,0.86805,3029.183
523,0.869717,3011.45
524,0.871383,2997.145
525,0.87305,2979.264
526,0.874717,2979.264
527,0.876383,2960.563
528,0.87805,2943.203
529,0.8797,2922.267
530,0.881367,2922.267
531,0.883033,2907.589
532,0.8847,2893.209
533,0.886367,2880.618
534,0.888033,2880.618
535,0.8897,2869.964
536,0.891367,2855.211
537,0.893033,2855.211
538,0.8947000000000001,2844.036
539,0.896367,2832.562
540,0.898033,2820.492
541,0.8997000000000001,2820.492
542,0.901367,2804.771
543,0.903033,2787.784
544,0.9046999999999999,2769.753
545,0.906367,2769.753
546,0.908033,2757.758
547,0.9097,2745.837
548,0.911367,2732.277
549,0.913033,2732.277
550,0.91475,2719.76
551,0.916367,2702.177
552,0.918033,2691.597
553,0.9197,2691.597
554,0.921367,2679.75
555,0.923033,2667.68
556,0.9247,2667.68
557,0.9263670000000001,2657.622
558,0.928033,2643.764
559,0.9297,2630.949
560,0.9313669999999999,2630.949
561,0.933033,2615.154
562,0.9347,2600.551
563,0.9363669999999999,2586.022
564,0.938033,2586.022
565,0.939683,2573.58
566,0.94135,2564.862
567,0.943017,2553.388
568,0.9446830000000001,2553.388
569,0.94635,2544.001
570,0.948083,2534.166
571,0.9496830000000001,2534.166
572,0.95135,2522.916
573,0.953017,2511.069
574,0.9546829999999999,2498.85
575,0.95635,2498.85
576,0.958017,2488.494
577,0.959683,2476.946
578,0.96135,2469.271
579,0.963017,2469.271
580,0.9647,2460.48
581,0.96635,2447.665
582,0.968017,2437.83
583,0.969683,2437.83
584,0.97135,2424.195
585,0.973017,2411.306
586,0.974683,2404.526
587,0.9763500000000001,2404.526
588,0.978017,2395.883
589,0.979683,2387.762
590,0.981467,2375.394
591,0.983017,2375.394
592,0.984683,2361.611
593,0.9863499999999999,2350.36
594,0.988017,2350.36
595,0.989683,2336.353
596,0.991367,2328.977
597,0.993017,2321.079
598,0.994683,2321.079
599,0.99635,2309.307
600,0.998017,2300.59
601,0.999667,2291.948
602,1.001333,2291.948
603,1.003,2280.995
604,1.004667,2271.384
605,1.006333,2271.384
606,1.008,2263.188
607,1.009667,2249.926
608,1.011333,2239.198
609,1.013,2239.198
610,1.014667,2231.002
611,1.016333,2220.72
612,1.018,2216.399
613,1.019667,2216.399
614,1.021333,2210.811
615,1.023,2204.031
616,1.024667,2199.486
617,1.026333,2199.486
618,1.028,2188.683
619,1.029667,2179.518
620,1.031333,2170.801
621,1.033,2170.801
622,1.034667,2161.264
623,1.036333,2157.018
624,1.038,2157.018
625,1.039667,2147.704
626,1.041333,2138.987
627,1.043,2127.96
628,1.044667,2127.96
629,1.046333,2115.369
630,1.048,2107.769
631,1.049667,2098.829
632,1.051333,2098.829
633,1.053,2090.409
634,1.054683,2083.108
635,1.056333,2075.583
636,1.058,2075.583
637,1.05965,2070.069
638,1.061317,2065.301
639,1.062983,2065.301
640,1.06465,2056.956
641,1.0664,2049.655
642,1.067983,2037.808
643,1.06965,2037.808
644,1.071317,2030.805
645,1.072983,2025.962
646,1.07465,2020.299
647,1.076317,2020.299
648,1.077983,2018.139
649,1.07965,2010.092
650,1.081317,2004.504
651,1.082983,2004.504
652,1.08465,1998.991
653,1.086317,1992.956
654,1.087983,1989.156
655,1.08965,1989.156
656,1.091317,1982.003
657,1.092983,1972.988
658,1.09465,1972.988
659,1.096317,1965.016
660,1.097983,1957.938
661,1.09975,1950.935
662,1.101317,1950.935
663,1.102983,1945.794
664,1.10465,1935.735
665,1.106317,1928.061
666,1.107983,1928.061
667,1.10965,1922.548
668,1.111317,1915.097
669,1.112983,1912.042
670,1.11465,1912.042
671,1.116317,1904.443
672,1.117967,1897.216
673,1.119633,1897.216
674,1.1213,1892.745
675,1.122967,1886.189
676,1.124633,1879.558
677,1.1263,1879.558
678,1.127967,1877.025
679,1.129633,1870.99
680,1.131333,1868.159
681,1.132967,1868.159
682,1.134633,1863.763
683,1.1363,1855.716
684,1.137967,1849.979
685,1.139633,1849.979
686,1.1413,1844.093
687,1.142967,1840.368
688,1.144633,1840.368
689,1.1463,1836.047
690,1.14795,1830.31
691,1.149617,1823.008
692,1.151283,1823.008
693,1.15295,1817.793
694,1.154617,1816.005
695,1.156283,1811.385
696,1.15795,1811.385
697,1.159617,1805.648
698,1.161283,1803.413
699,1.16295,1794.547
700,1.164617,1794.547
701,1.166283,1786.575
702,1.16795,1781.508
703,1.169617,1774.728
704,1.171283,1774.728
705,1.17295,1771.674
706,1.174617,1770.109
707,1.176283,1770.109
708,1.17795,1767.799
709,1.1796,1764.67
710,1.181267,1758.486
711,1.182933,1758.486
712,1.1846,1755.804
713,1.186267,1752.898
714,1.187933,1746.938
715,1.1896,1746.938
716,1.191267,1743.287
717,1.192933,1739.562
718,1.1946,1735.613
719,1.196333,1735.613
720,1.197933,1729.95
721,1.1996,1723.99
722,1.201267,1723.99
723,1.202933,1718.551
724,1.2046,1712.292
725,1.206267,1710.355
726,1.207933,1710.355
727,1.2096,1707.599
728,1.211267,1699.477
729,1.212933,1694.709
730,1.2146,1694.709
731,1.216267,1691.803
732,1.218033,1690.164
733,1.2196,1690.835
734,1.221267,1690.835
735,1.222933,1687.333
736,1.2246,1681.745
737,1.226267,1677.498
738,1.227933,1677.498
739,1.2296,1671.612
740,1.231267,1667.738
741,1.232933,1667.738
742,1.2346,1663.789
743,1.236267,1656.115
744,1.237933,1651.794
745,1.239583,1651.794
746,1.24125,1646.578
747,1.242917,1642.331
748,1.244583,1640.841
749,1.24625,1640.841
750,1.247917,1638.532
751,1.249583,1638.234
752,1.25125,1632.124
753,1.252917,1632.124
754,1.254583,1626.834
755,1.25625,1622.587
756,1.257917,1622.587
757,1.259583,1617.521
758,1.26125,1615.211
759,1.262933,1611.412
760,1.264583,1611.412
761,1.26625,1607.463
762,1.267917,1603.365
763,1.269583,1600.981
764,1.27125,1600.981
765,1.272917,1601.055
766,1.274583,1599.267
767,1.27625,1597.255
768,1.277933,1597.255
769,1.279583,1596.659
770,1.28125,1592.562
771,1.282917,1589.73
772,1.284583,1589.73
773,1.286267,1588.538
774,1.287917,1584.142
775,1.289583,1584.142
776,1.29125,1581.386
777,1.292917,1580.939
778,1.294583,1576.617
779,1.29625,1576.617
780,1.2979,1572.594
781,1.299567,1568.869
782,1.301233,1563.057
783,1.302933,1563.057
784,1.304567,1559.854
785,1.306233,1556.873
786,1.3079,1552.85
787,1.309567,1552.85
788,1.311233,1550.168
789,1.3129,1547.486
790,1.314567,1547.486
791,1.316233,1547.635
792,1.3179,1548.305
793,1.31965,1548.603
794,1.321233,1548.603
795,1.3229,1543.537
796,1.324567,1540.333
797,1.326233,1533.926
798,1.3279,1533.926
799,1.329567,1530.2
800,1.331233,1528.114
801,1.3329,1523.048
802,1.334567,1523.048
803,1.336283,1522.601
804,1.3379,1517.758
805,1.339567,1517.758
806,1.341233,1516.342
807,1.3429,1518.056
808,1.344567,1515.746
809,1.346233,1515.746
810,1.3479,1516.342
811,1.349567,1514.778
812,1.351233,1508.892
813,1.353,1508.892
814,1.354567,1508.37
815,1.356233,1502.559
816,1.357883,1500.771
817,1.35955,1500.771
818,1.361217,1497.492
819,1.362883,1491.83
820,1.36455,1492.128
821,1.366217,1492.128
822,1.367883,1488.477
823,1.36955,1487.657
824,1.371217,1487.657
825,1.372883,1484.975
826,1.37455,1480.058
827,1.376217,1478.866
828,1.377883,1478.866
829,1.37955,1474.991
830,1.381217,1477.301
831,1.382883,1478.046
832,1.38455,1478.046
833,1.386217,1475.141
834,1.387883,1477.45
835,1.38955,1470.968
836,1.391217,1470.968
837,1.392883,1469.404
838,1.39455,1468.435
839,1.396217,1468.435
840,1.397883,1464.263
841,1.39955,1464.412
842,1.401217,1458.973
843,1.402883,1458.973
844,1.40455,1458.824
845,1.406217,1457.259
846,1.4079,1455.098
847,1.40955,1455.098
848,1.411217,1453.906
849,1.412883,1448.393
850,1.41455,1443.699
851,1.416217,1443.699
852,1.417883,1441.464
853,1.419533,1441.091
854,1.421233,1438.856
855,1.422867,1438.856
856,1.424533,1437.441
857,1.4262,1435.056
858,1.427867,1435.056
859,1.429533,1433.119
860,1.4312,1431.853
861,1.432867,1431.108
862,1.434533,1431.108
863,1.4362,1430.437
864,1.43795,1429.692
865,1.439517,1431.48
866,1.441183,1431.48
867,1.44285,1430.958
868,1.444517,1426.786
869,1.446183,1422.763
870,1.447867,1422.763
871,1.449517,1416.281
872,1.451183,1416.877
873,1.45285,1416.877
874,1.4546,1418.665
875,1.456183,1420.975
876,1.45785,1421.571
877,1.459517,1421.571
878,1.4612,1417.995
879,1.46285,1415.089
880,1.464517,1409.799
881,1.466183,1409.799
882,1.46785,1408.085
883,1.469517,1405.254
884,1.4713,1401.976
885,1.47285,1401.976
886,1.474517,1400.411
887,1.476183,1398.101
888,1.47785,1398.101
889,1.4795,1398.474
890,1.481167,1400.337
891,1.482833,1400.56
892,1.484533,1400.56
893,1.486167,1402.646
894,1.487833,1398.027
895,1.4895,1391.843
896,1.491167,1391.843
897,1.492833,1388.788
898,1.4945,1386.926
899,1.496167,1386.479
900,1.497833,1386.479
901,1.4995,1389.31
902,1.501167,1389.906
903,1.502833,1387.894
904,1.5045,1387.894
905,1.506167,1387.82
906,1.507833,1385.51
907,1.5095,1385.51
908,1.511167,1384.467
909,1.512833,1382.008
910,1.5145,1379.475
911,1.516167,1379.475
912,1.517833,1378.134
913,1.5195,1375.973
914,1.521167,1375.079
915,1.522833,1375.079
