"ID","sea_time","fid_signal"
1,0,142.671
2,0.001733,142.671
3,0.003333,142.649
4,0.005,142.731
5,0.00665,142.559
6,0.008317,142.559
7,0.009983000000000001,142.44
8,0.01165,142.083
9,0.013317,141.971
10,0.014983,141.971
11,0.01665,142.016
12,0.018317,142.157
13,0.019983,142.157
14,0.02165,142.261
15,0.023317,142.381
16,0.024983,142.343
17,0.02665,142.343
18,0.028317,142.47
19,0.029983,142.738
20,0.03165,142.79
21,0.03335,142.79
22,0.0351,142.895
23,0.03665,143.275
24,0.038317,143.602
25,0.039983,143.602
26,0.04165,143.528
27,0.043317,143.334
28,0.044983,142.664
29,0.04665,142.664
30,0.048317,142.567
31,0.049983,142.239
32,0.05165,142.239
33,0.053317,142.545
34,0.054983,142.738
35,0.05665,142.634
36,0.058317,142.634
37,0.059983,142.582
38,0.06165,142.328
39,0.063317,142.485
40,0.064983,142.485
41,0.066633,142.634
42,0.068333,143.275
43,0.069967,143.625
44,0.071633,143.625
45,0.0733,143.602
46,0.07496700000000001,143.468
47,0.07663300000000001,143.468
48,0.07829999999999999,143.185
49,0.079967,142.977
50,0.081633,142.768
51,0.0833,142.768
52,0.084967,142.328
53,0.086633,142.157
54,0.0883,142.075
55,0.08996700000000001,142.075
56,0.09163300000000001,142.269
57,0.09329999999999999,142.671
58,0.094967,142.805
59,0.096633,142.805
60,0.0983,142.701
61,0.099967,142.857
62,0.101633,142.932
63,0.1033,142.932
64,0.104967,143.021
65,0.106633,143.26
66,0.1083,143.26
67,0.109967,142.939
68,0.111633,142.902
69,0.1133,142.463
70,0.114967,142.463
71,0.116633,142.5
72,0.1183,142.388
73,0.120017,142.194
74,0.121633,142.194
75,0.1233,142.455
76,0.12495,142.455
77,0.126617,142.731
78,0.128283,142.731
79,0.12995,143.103
80,0.131617,143.394
81,0.133283,143.394
82,0.13495,143.327
83,0.136617,143.118
84,0.138283,142.939
85,0.13995,142.939
86,0.141617,142.641
87,0.143283,142.574
88,0.14495,142.626
89,0.146617,142.626
90,0.148283,142.492
91,0.14995,142.507
92,0.151617,142.485
93,0.153367,142.485
94,0.154967,142.619
95,0.156617,142.381
96,0.158283,142.403
97,0.15995,142.403
98,0.161617,142.597
99,0.163283,142.567
100,0.16495,142.567
101,0.166617,142.843
102,0.168283,143.066
103,0.16995,142.716
104,0.171617,142.716
105,0.173283,142.716
106,0.17495,142.977
107,0.176617,142.828
108,0.178283,142.828
109,0.17995,143.267
110,0.181617,143.506
111,0.183283,143.066
112,0.18495,143.066
113,0.1866,143.074
114,0.188267,142.522
115,0.189933,142.522
116,0.1916,142.351
117,0.193267,142.351
118,0.194933,142.321
119,0.1966,142.321
120,0.198267,142.753
121,0.199933,142.828
122,0.2016,143.074
123,0.203267,143.074
124,0.204933,143.409
125,0.2066,143.461
126,0.208267,143.372
127,0.209933,143.372
128,0.2116,143.29
129,0.213267,142.91
130,0.214933,142.679
131,0.2166,142.679
132,0.218283,142.857
133,0.219933,143.059
134,0.2216,143.059
135,0.223267,142.924
136,0.224933,142.969
137,0.2266,142.656
138,0.228267,142.656
139,0.229933,142.224
140,0.2316,142.321
141,0.233267,142.142
142,0.234933,142.142
143,0.2366,142.239
144,0.238333,142.477
145,0.239933,142.47
146,0.2416,142.47
147,0.243267,142.448
148,0.244933,142.083
149,0.246583,142.083
150,0.24825,142.165
151,0.24995,142.306
152,0.251583,142.477
153,0.25325,142.477
154,0.25505,142.79
155,0.256583,142.708
156,0.25825,142.448
157,0.2599,142.448
158,0.261567,142.537
159,0.263233,142.626
160,0.2649,142.507
161,0.266567,142.507
162,0.268233,142.947
163,0.2699,142.85
164,0.271683,142.425
165,0.273233,142.425
166,0.2749,142.686
167,0.276567,142.843
168,0.278233,142.843
169,0.2799,143.275
170,0.281567,144.072
171,0.283233,144.452
172,0.2849,144.452
173,0.286567,144.809
174,0.288233,145.867
175,0.2899,147.305
176,0.291567,147.305
177,0.293233,149.295
178,0.2949,151.582
179,0.296567,154.421
180,0.298233,154.421
181,0.2999,157.99
182,0.301567,162.065
183,0.303233,162.065
184,0.3049,167.646
185,0.30655,174.515
186,0.308217,182.413
187,0.309883,182.413
188,0.31155,192.381
189,0.313217,204.027
190,0.314883,217.229
191,0.31655,217.229
192,0.318217,233.203
193,0.319883,251.777
194,0.321617,273.004
195,0.323217,273.004
196,0.324883,297.658
197,0.32655,325.806
198,0.328217,325.806
199,0.329883,356.98
200,0.33155,392.564
201,0.333217,432.32
202,0.334883,432.32
203,0.33655,476.286
204,0.338217,525.728
205,0.339883,580.609
206,0.34155,580.609
207,0.343217,641.324
208,0.344883,709.251
209,0.34655,785.053
210,0.348217,785.053
211,0.349883,869.766
212,0.35155,965.603
213,0.353217,1074.463
214,0.354883,1074.463
215,0.35655,1198.806
216,0.358217,1342.14
217,0.359883,1342.14
218,0.36155,1508.117
219,0.363217,1701.497
220,0.364883,1927.86
221,0.366533,1927.86
222,0.3682,2192.885
223,0.369867,2502.933
224,0.371533,2863.444
225,0.373283,2863.444
226,0.374867,3279.574
227,0.376533,3755.376
228,0.3782,4292.727
229,0.379867,4292.727
230,0.381533,4893.012
231,0.3832,5555.6
232,0.384867,5555.6
233,0.386533,6277.188
234,0.3882,7053.845
235,0.389917,7878.244
236,0.39155,7878.244
237,0.393217,8742.353999999999
238,0.394867,9637.317999999999
239,0.396533,10551.862
240,0.3982,10551.862
241,0.399867,11474.378
242,0.401533,12390.904
243,0.4032,13285.965
244,0.404867,13285.965
245,0.406633,14144.771
246,0.4082,14950.901
247,0.409867,15688.792
248,0.411533,15688.792
249,0.4132,16344.361
250,0.414867,16904.086
251,0.416533,16904.086
252,0.4182,17358.266
253,0.419867,17700.174
254,0.421533,17926.045
255,0.4232,17926.045
256,0.424867,18035.219
257,0.426517,18030.629
258,0.428183,17917.744
259,0.42985,17917.744
260,0.431517,17704.92
261,0.433183,17401.547
262,0.43485,17018.445
263,0.436517,17018.445
264,0.438183,16567.871
265,0.43985,16062.141
266,0.441517,16062.141
267,0.443183,15514.173
268,0.44485,14935.203
269,0.446517,14335.327
270,0.448183,14335.327
271,0.44985,13723.172
272,0.451517,13106.577
273,0.453183,12491.964
274,0.45485,12491.964
275,0.456517,11884.809
276,0.458183,11289.381
277,0.45985,10709.383
278,0.461517,10709.383
279,0.463183,10147.929
280,0.46485,9606.936
281,0.466517,9606.936
282,0.468183,9087.860000000001
283,0.469867,8591.436
284,0.471517,8118.838
285,0.473183,8118.838
286,0.47485,7669.643
287,0.476517,7243.775
288,0.478183,6841.242
289,0.47985,6841.242
290,0.481517,6460.704
291,0.483183,6101.728
292,0.48485,5764.291
293,0.4865,5764.291
294,0.488183,5447.112
295,0.489833,5149.268
296,0.491567,4870.825
297,0.493167,4870.825
298,0.494833,4609.86
299,0.4965,4365.399
300,0.498167,4365.399
301,0.499833,4136.689
302,0.5014999999999999,3922.097
303,0.503167,3720.753
304,0.504833,3720.753
305,0.5065,3532.022
306,0.508217,3354.885
307,0.509833,3188.483
308,0.5115,3188.483
309,0.513167,3032.215
310,0.514833,2885.371
311,0.5165,2747.893
312,0.518167,2747.893
313,0.519833,2618.425
314,0.5215,2496.771
315,0.523167,2496.771
316,0.524883,2381.958
317,0.5265,2273.53
318,0.5281670000000001,2171.74
319,0.529833,2171.74
320,0.5315,2075.791
321,0.5331669999999999,1985.416
322,0.534833,1899.756
323,0.5365,1899.756
324,0.538167,1818.784
325,0.539833,1741.968
326,0.5415,1669.757
327,0.543167,1669.757
328,0.5448499999999999,1601.458
329,0.5464830000000001,1536.563
330,0.54815,1475.103
331,0.549817,1475.103
332,0.551467,1416.482
333,0.553133,1360.878
334,0.5548,1360.878
335,0.556467,1308.404
336,0.558133,1258.194
337,0.5598,1210.615
338,0.561467,1210.615
339,0.563133,1165.263
340,0.5648,1121.774
341,0.5664670000000001,1080.409
342,0.56815,1080.409
343,0.5698,1041.189
344,0.5714669999999999,1003.794
345,0.573133,968.3819999999999
346,0.5748,968.3819999999999
347,0.576467,934.795
348,0.578133,902.288
349,0.5798,902.288
350,0.581467,871.36
351,0.583133,841.729
352,0.5848,813.745
353,0.586467,813.745
354,0.588133,787.452
355,0.5898,762.1799999999999
356,0.591467,737.9349999999999
357,0.593133,737.9349999999999
358,0.5948,714.831
359,0.596467,692.4640000000001
360,0.598133,671.7
361,0.5998,671.7
362,0.601467,651.591
363,0.603133,632.249
364,0.6048,632.249
365,0.60645,613.831
366,0.608117,596.061
367,0.609867,579.178
368,0.61145,579.178
369,0.613117,563.182
370,0.614783,547.6180000000001
371,0.6164500000000001,532.24
372,0.618117,532.24
373,0.619783,517.7859999999999
374,0.6214499999999999,503.942
375,0.623117,491.336
376,0.624783,491.336
377,0.626467,479.46
378,0.628117,467.777
379,0.629783,456.616
380,0.63145,456.616
381,0.633117,445.634
382,0.634783,434.905
383,0.63645,434.905
384,0.638117,424.974
385,0.639783,415.221
386,0.64145,405.96
387,0.6432330000000001,405.96
388,0.644783,397.28
389,0.64645,388.809
390,0.648133,380.971
391,0.649783,380.971
392,0.65145,373.14
393,0.6531169999999999,366.069
394,0.654783,358.85
395,0.65645,358.85
396,0.658117,351.958
397,0.659783,345.416
398,0.66145,345.416
399,0.663117,339.009
400,0.664783,333.19
401,0.6664330000000001,327.572
402,0.6681,327.572
403,0.669767,322.208
404,0.6714329999999999,316.903
405,0.6731,311.725
406,0.674767,311.725
407,0.676433,306.688
408,0.6781,301.637
409,0.679767,296.772
410,0.681433,296.772
411,0.6831,292.48
412,0.684767,288.099
413,0.686433,284.225
414,0.6881,284.225
415,0.689767,280.358
416,0.691433,276.558
417,0.6931,276.558
418,0.694767,272.959
419,0.696433,269.391
420,0.6981000000000001,266.217
421,0.699767,266.217
422,0.701433,262.931
423,0.7030999999999999,260.174
424,0.704767,257.403
425,0.706433,257.403
426,0.7081,254.601
427,0.709767,251.807
428,0.711433,248.969
429,0.7131,248.969
430,0.714767,246.108
431,0.716433,243.425
432,0.7181,243.425
433,0.719767,240.929
434,0.721433,238.575
435,0.7231,236.34
436,0.7247670000000001,236.34
437,0.726417,234.082
438,0.728217,231.914
439,0.72975,229.724
440,0.731417,229.724
441,0.733083,227.742
442,0.73475,225.872
443,0.736417,224.307
444,0.738083,224.307
445,0.73975,222.772
446,0.741417,221.297
447,0.743083,219.919
448,0.744783,219.919
449,0.746417,218.347
450,0.7480830000000001,216.79
451,0.74975,216.79
452,0.751417,215.441
453,0.7530829999999999,213.839
454,0.754767,212.178
455,0.756417,212.178
456,0.758083,210.561
457,0.75975,208.952
458,0.761533,207.558
459,0.763083,207.558
460,0.76475,206.485
461,0.766417,205.442
462,0.768083,204.325
463,0.76975,204.325
464,0.771417,203.222
465,0.773083,202.09
466,0.77475,202.09
467,0.776417,200.778
468,0.778083,199.489
469,0.7797500000000001,198.714
470,0.781417,198.714
471,0.783083,198.014
472,0.7847499999999999,196.926
473,0.7864,195.943
474,0.788067,195.943
475,0.789733,194.81
476,0.7914,193.983
477,0.793067,193.484
478,0.794733,193.484
479,0.796417,193.045
480,0.798067,192.24
481,0.799733,191.04
482,0.8014,191.04
483,0.803067,190.37
484,0.804733,189.506
485,0.8064,189.506
486,0.808083,188.775
487,0.809733,188.276
488,0.8114,187.419
489,0.813067,187.419
490,0.814733,186.704
491,0.8164,186.019
492,0.818067,185.318
493,0.81975,185.318
494,0.8214,184.707
495,0.823067,184.149
496,0.824733,183.761
497,0.8264,183.761
498,0.828067,183.336
499,0.8297330000000001,183.053
500,0.8314,183.053
501,0.833067,182.569
502,0.8347329999999999,182.122
503,0.8364,181.779
504,0.838067,181.779
505,0.839733,181.168
506,0.8414,180.572
507,0.84305,179.939
508,0.8447170000000001,179.939
509,0.84645,179.35
510,0.848033,178.725
511,0.8497,178.225
512,0.851367,178.225
513,0.853033,177.749
514,0.8547,176.944
515,0.856367,176.944
516,0.858033,176.601
517,0.8597,176.102
518,0.861367,175.834
519,0.8630330000000001,175.834
520,0.8647,175.536
521,0.866367,175.156
522,0.8680330000000001,174.843
523,0.8697,174.843
524,0.871367,174.195
525,0.8730329999999999,174.016
526,0.8747,173.338
527,0.876367,173.338
528,0.878033,173.062
529,0.879817,173.084
530,0.881367,172.764
531,0.883033,172.764
532,0.8847,172.935
533,0.886367,172.704
534,0.888033,172.704
535,0.8897,172.354
536,0.891367,171.937
537,0.893033,171.676
538,0.8947000000000001,171.676
539,0.896383,171.483
540,0.898033,171.222
541,0.8997000000000001,171.006
542,0.901367,171.006
543,0.903033,170.656
544,0.9046999999999999,170.432
545,0.90635,169.903
546,0.908017,169.903
547,0.909683,169.463
548,0.91135,169.098
549,0.913017,169.098
550,0.914683,168.651
551,0.91635,168.458
552,0.918017,168.443
553,0.919683,168.443
554,0.92135,168.04
555,0.923017,167.757
556,0.924683,167.333
557,0.92635,167.333
558,0.928017,166.968
559,0.929683,167.035
560,0.93135,166.99
561,0.933017,166.99
562,0.934683,167.005
563,0.93635,166.997
564,0.938017,166.61
565,0.939683,166.61
566,0.94135,166.394
567,0.943017,166.26
568,0.9446830000000001,166.26
569,0.94635,165.701
570,0.948017,165.597
571,0.9496830000000001,165.246
572,0.95135,165.246
573,0.953017,164.822
574,0.9546829999999999,164.911
575,0.95635,164.479
576,0.958017,164.479
577,0.959683,164.226
578,0.96135,164.092
579,0.963017,163.749
580,0.96475,163.749
581,0.96635,163.63
582,0.968,163.689
583,0.9696669999999999,163.689
584,0.97135,163.645
585,0.973,163.428
586,0.974667,163.086
587,0.976333,163.086
588,0.978,162.914
589,0.979667,162.825
590,0.981333,162.818
591,0.983,162.818
592,0.984667,162.922
593,0.986333,162.482
594,0.988,161.849
595,0.989667,161.849
596,0.991333,161.566
597,0.993,161.298
598,0.994667,161.216
599,0.996333,161.216
600,0.998117,161.581
601,0.999667,161.745
602,1.001333,161.745
603,1.003,161.812
604,1.004667,161.991
605,1.006333,161.596
606,1.008,161.596
607,1.009667,161.044
608,1.011333,160.716
609,1.013,160.396
610,1.014667,160.396
611,1.016333,160.232
612,1.018,160.106
613,1.019667,160.053
614,1.021333,160.053
