"ID","sea_time","fid_signal"
1,0,37.289
2,0.001667,37.289
3,0.003333,37.244
4,0.005,37.219
5,0.0067,37.189
6,0.008317,37.189
7,0.009983000000000001,37.047
8,0.01165,36.95
9,0.013317,36.95
10,0.014983,36.911
11,0.01665,36.927
12,0.018317,37.067
13,0.019983,37.067
14,0.02165,37.218
15,0.02345,37.3
16,0.024983,37.336
17,0.02665,37.336
18,0.028317,37.357
19,0.029983,37.34
20,0.03165,37.315
21,0.033333,37.315
22,0.034983,37.307
23,0.03665,37.329
24,0.038317,37.329
25,0.039983,37.356
26,0.04165,37.368
27,0.043317,37.344
28,0.044983,37.344
29,0.04665,37.31
30,0.048317,37.277
31,0.049983,37.266
32,0.05165,37.266
33,0.053317,37.292
34,0.054983,37.286
35,0.05665,37.28
36,0.058317,37.28
37,0.059983,37.268
38,0.06165,37.266
39,0.063317,37.266
40,0.064983,37.267
41,0.06665,37.292
42,0.0683,37.329
43,0.069967,37.329
44,0.071633,37.358
45,0.0733,37.363
46,0.07496700000000001,37.318
47,0.07663300000000001,37.318
48,0.07829999999999999,37.321
49,0.079967,37.292
50,0.081633,37.283
51,0.0833,37.283
52,0.084967,37.298
53,0.086633,37.269
54,0.0883,37.292
55,0.08996700000000001,37.292
56,0.09163300000000001,37.312
57,0.09329999999999999,37.351
58,0.094967,37.351
59,0.096633,37.355
60,0.0983,37.302
61,0.099967,37.292
62,0.101633,37.292
63,0.1033,37.282
64,0.104967,37.283
65,0.106633,37.313
66,0.1084,37.313
67,0.109967,37.309
68,0.111633,37.309
69,0.1133,37.32
70,0.114967,37.32
71,0.116633,37.327
72,0.1183,37.346
73,0.119967,37.346
74,0.121633,37.311
75,0.1233,37.315
76,0.125017,37.297
77,0.126617,37.297
78,0.128283,37.247
79,0.129983,37.234
80,0.131617,37.224
81,0.133283,37.224
82,0.13495,37.233
83,0.136617,37.286
84,0.138283,37.293
85,0.13995,37.293
86,0.14175,37.289
87,0.143283,37.283
88,0.14495,37.274
89,0.146617,37.274
90,0.148283,37.286
91,0.14995,37.287
92,0.151617,37.287
93,0.153283,37.295
94,0.15495,37.3
95,0.156617,37.307
96,0.158283,37.307
97,0.15995,37.301
98,0.161617,37.3
99,0.163283,37.293
100,0.16495,37.293
101,0.166617,37.288
102,0.168283,37.307
103,0.16995,37.306
104,0.171617,37.306
105,0.173283,37.315
106,0.17495,37.317
107,0.176617,37.317
108,0.178283,37.324
109,0.17995,37.333
110,0.181617,37.31
111,0.183283,37.31
112,0.18495,37.308
113,0.186617,37.28
114,0.188267,37.258
115,0.189933,37.258
116,0.1916,37.261
117,0.193267,37.264
118,0.194933,37.242
119,0.1966,37.242
120,0.198283,37.254
121,0.199933,37.27
122,0.2016,37.277
123,0.203267,37.277
124,0.204933,37.289
125,0.2066,37.302
126,0.208267,37.302
127,0.209933,37.3
128,0.2116,37.3
129,0.213267,37.289
130,0.214933,37.289
131,0.2166,37.292
132,0.218283,37.272
133,0.219933,37.256
134,0.2216,37.256
135,0.223267,37.304
136,0.224933,37.289
137,0.226667,37.298
138,0.228267,37.298
139,0.229933,37.298
140,0.2316,37.273
141,0.233267,37.273
142,0.234933,37.257
143,0.2366,37.261
144,0.238267,37.286
145,0.239933,37.286
146,0.2416,37.283
147,0.243267,37.296
148,0.244933,37.266
149,0.246583,37.266
150,0.248267,37.239
151,0.249917,37.211
152,0.251583,37.219
153,0.25325,37.219
154,0.254917,37.264
155,0.256583,37.27
156,0.25825,37.27
157,0.260033,37.302
158,0.261583,37.288
159,0.26325,37.26
160,0.264917,37.26
161,0.266583,37.281
162,0.26825,37.28
163,0.269917,37.289
164,0.271583,37.289
165,0.27325,37.267
166,0.274917,37.256
167,0.2766,37.256
168,0.27825,37.256
169,0.279917,37.255
170,0.281583,37.272
171,0.283233,37.282
172,0.2849,37.282
173,0.286567,37.287
174,0.288233,37.263
175,0.2899,37.263
176,0.291567,37.266
177,0.293233,37.245
178,0.2949,37.258
179,0.296567,37.258
180,0.298233,37.284
181,0.2999,37.3
182,0.301567,37.31
183,0.303233,37.31
184,0.3049,37.306
185,0.306567,37.348
186,0.308217,37.362
187,0.309883,37.362
188,0.31155,37.388
189,0.313217,37.41
190,0.314883,37.41
191,0.31655,37.385
192,0.318217,37.406
193,0.319883,37.406
194,0.32155,37.406
195,0.323217,37.406
196,0.324883,37.435
197,0.32655,37.441
198,0.328217,37.441
199,0.329883,37.468
200,0.33155,37.483
201,0.333217,37.531
202,0.334883,37.531
203,0.336567,37.551
204,0.338217,37.611
205,0.339883,37.675
206,0.34155,37.675
207,0.343217,37.736
208,0.344933,37.9
209,0.34655,37.9
210,0.348217,38.025
211,0.349883,38.208
212,0.35155,38.382
213,0.353217,38.382
214,0.354883,38.555
215,0.35655,38.809
216,0.358217,39.101
217,0.359883,39.101
218,0.36155,39.469
219,0.363217,39.874
220,0.364883,40.321
221,0.36655,40.321
222,0.3682,40.831
223,0.369867,41.456
224,0.371533,41.456
225,0.3732,42.128
226,0.374867,42.842
227,0.376533,43.599
228,0.378317,43.599
229,0.379867,44.361
230,0.381533,45.203
231,0.3832,46.088
232,0.384867,46.088
233,0.386533,47.001
234,0.3882,47.896
235,0.389867,48.785
236,0.391533,48.785
237,0.393217,49.653
238,0.394867,50.513
239,0.396533,51.328
240,0.3982,51.328
241,0.399867,52.12
242,0.401533,52.873
243,0.4032,52.873
244,0.404867,53.548
245,0.406533,54.187
246,0.4082,54.73
247,0.409867,54.73
248,0.411533,55.177
249,0.4132,55.563
250,0.4149,55.864
251,0.41655,55.864
252,0.4182,56.054
253,0.419867,56.189
254,0.421533,56.246
255,0.4232,56.246
256,0.424867,56.217
257,0.426517,56.095
258,0.428183,56.095
259,0.42985,55.935
260,0.431517,55.675
261,0.433183,55.388
262,0.43485,55.388
263,0.436517,55.06
264,0.438183,54.633
265,0.43985,54.192
266,0.441517,54.192
267,0.443183,53.674
268,0.44485,53.155
269,0.446517,52.615
270,0.448183,52.615
271,0.44985,52.042
272,0.451517,51.501
273,0.453183,51.501
274,0.45485,50.948
275,0.456517,50.406
276,0.458183,49.834
277,0.45985,49.834
278,0.461517,49.254
279,0.46325,48.671
280,0.46485,48.097
281,0.466517,48.097
282,0.468183,47.586
283,0.46985,47.071
284,0.471517,46.618
285,0.473183,46.618
286,0.47485,46.165
287,0.476517,45.683
288,0.478183,45.254
289,0.47985,45.254
290,0.481517,44.788
291,0.483183,44.368
292,0.48485,44.368
293,0.4865,44.009
294,0.4882,43.636
295,0.489833,43.307
296,0.491533,43.307
297,0.493167,42.982
298,0.494833,42.668
299,0.496633,42.375
300,0.498167,42.375
301,0.499833,42.125
302,0.5014999999999999,41.86
303,0.503167,41.613
304,0.504833,41.613
305,0.5065,41.36
306,0.508167,41.153
307,0.509833,41.153
308,0.5115,40.98
309,0.513167,40.802
310,0.514833,40.678
311,0.5165,40.678
312,0.518167,40.502
313,0.519833,40.381
314,0.5215,40.244
315,0.523167,40.244
316,0.524833,40.115
317,0.5265,39.972
318,0.5281670000000001,39.817
319,0.529833,39.817
320,0.5315,39.712
321,0.5331669999999999,39.612
322,0.534833,39.528
323,0.5365,39.528
324,0.538167,39.429
325,0.539833,39.367
326,0.5415,39.367
327,0.543167,39.271
328,0.544833,39.189
329,0.5465,39.133
330,0.54815,39.133
331,0.549817,39.071
332,0.5514829999999999,39.021
333,0.55315,38.953
334,0.554817,38.953
335,0.5564829999999999,38.885
336,0.55815,38.81
337,0.55985,38.779
338,0.561483,38.779
339,0.56315,38.771
340,0.564817,38.733
341,0.566483,38.733
342,0.56815,38.676
343,0.569817,38.607
344,0.571483,38.542
345,0.57315,38.542
346,0.5748,38.505
347,0.576467,38.52
348,0.578133,38.532
349,0.5798,38.532
350,0.5815,38.534
351,0.583133,38.537
352,0.5848,38.495
353,0.586467,38.495
354,0.588133,38.461
355,0.5898,38.453
356,0.591467,38.435
357,0.593133,38.435
358,0.5948,38.403
359,0.596467,38.376
360,0.598217,38.376
361,0.5998,38.321
362,0.601467,38.289
363,0.603133,38.276
364,0.604783,38.276
365,0.60645,38.248
366,0.608117,38.245
367,0.609783,38.201
368,0.61145,38.201
369,0.613117,38.189
370,0.614883,38.158
371,0.6164500000000001,38.128
372,0.618117,38.128
373,0.619783,38.131
374,0.6214499999999999,38.119
375,0.623117,38.119
376,0.624783,38.12
377,0.62645,38.119
378,0.628117,38.128
379,0.629783,38.128
380,0.631567,38.102
381,0.633117,38.092
382,0.634783,38.103
383,0.63645,38.103
384,0.638117,38.093
385,0.639783,38.114
386,0.64145,38.109
387,0.643117,38.109
388,0.644783,38.097
389,0.64645,38.075
390,0.6481170000000001,38.075
391,0.649783,38.038
392,0.65145,38.066
393,0.6531169999999999,38.037
394,0.654783,38.037
395,0.65645,38.051
396,0.658117,38.061
397,0.659783,38.003
398,0.66145,38.003
399,0.663117,38.002
400,0.664783,38.002
401,0.66645,37.997
402,0.6681,37.997
403,0.669767,38.052
404,0.6714329999999999,38.067
405,0.6731,38.03
406,0.674767,38.03
407,0.676433,38.033
408,0.6781,37.996
409,0.679767,37.996
410,0.681433,37.985
411,0.6831,37.977
412,0.684767,37.977
413,0.686433,37.977
414,0.6881,37.987
415,0.689767,37.983
416,0.691433,37.981
417,0.693117,37.981
418,0.694767,37.947
419,0.696433,37.923
420,0.6981000000000001,37.902
421,0.699767,37.902
422,0.701433,37.892
423,0.7030999999999999,37.914
424,0.704767,37.914
425,0.706433,37.924
426,0.7081,37.941
427,0.709767,37.955
428,0.711433,37.955
429,0.7131,37.935
430,0.714767,37.915
431,0.716483,37.879
432,0.7181,37.879
433,0.719767,37.868
434,0.721433,37.862
435,0.7231,37.85
436,0.7247670000000001,37.85
437,0.726417,37.871
438,0.728083,37.901
439,0.72975,37.898
440,0.731417,37.898
441,0.733167,37.909
442,0.73475,37.917
443,0.736417,37.917
444,0.738083,37.885
445,0.73975,37.915
446,0.741417,37.947
447,0.743083,37.947
448,0.74475,37.95
449,0.746417,37.957
450,0.7480830000000001,37.955
451,0.74985,37.955
452,0.751417,37.908
453,0.7530829999999999,37.888
454,0.75475,37.879
455,0.756417,37.879
456,0.758083,37.85
457,0.75975,37.856
458,0.761417,37.856
459,0.763083,37.862
460,0.76475,37.864
461,0.766417,37.879
462,0.768083,37.879
463,0.769767,37.874
464,0.771417,37.838
465,0.773083,37.831
466,0.77475,37.831
467,0.776417,37.836
468,0.778083,37.841
469,0.7797500000000001,37.885
470,0.781417,37.885
471,0.783083,37.888
472,0.784733,37.869
473,0.7864,37.866
474,0.788067,37.866
475,0.789733,37.863
476,0.7914,37.884
477,0.793067,37.884
478,0.794733,37.89
479,0.796417,37.85
480,0.798067,37.843
481,0.799733,37.843
482,0.8014,37.823
483,0.803067,37.839
484,0.804733,37.915
485,0.8064,37.915
486,0.808067,37.922
487,0.809733,37.942
488,0.8114,37.914
489,0.813067,37.914
490,0.814733,37.871
491,0.8164,37.85
492,0.818067,37.85
493,0.819733,37.794
494,0.8214,37.769
495,0.823067,37.77
496,0.824733,37.77
497,0.8264,37.766
498,0.828083,37.786
499,0.8297330000000001,37.812
500,0.8314,37.812
501,0.833067,37.822
502,0.8347830000000001,37.824
503,0.8364,37.837
504,0.838067,37.837
505,0.83975,37.812
506,0.8414,37.8
507,0.843067,37.8
508,0.844733,37.801
509,0.8464,37.797
510,0.84805,37.823
511,0.8497169999999999,37.823
512,0.851433,37.832
513,0.85305,37.832
514,0.8547169999999999,37.836
515,0.856383,37.836
516,0.85805,37.806
517,0.859717,37.765
518,0.861383,37.736
519,0.86305,37.736
520,0.8647,37.705
521,0.866367,37.733
522,0.86815,37.761
523,0.8697,37.761
524,0.871367,37.797
525,0.8730329999999999,37.816
526,0.8747,37.816
527,0.876367,37.821
528,0.878033,37.846
529,0.8797,37.848
530,0.881367,37.848
531,0.883033,37.882
532,0.8847,37.867
533,0.886367,37.85
534,0.888033,37.85
535,0.8897,37.863
536,0.891367,37.84
537,0.893033,37.83
538,0.8947000000000001,37.83
539,0.896367,37.822
540,0.898033,37.789
541,0.8997000000000001,37.789
542,0.901367,37.771
543,0.903033,37.777
544,0.9046999999999999,37.75
545,0.90635,37.75
546,0.908017,37.747
547,0.909683,37.742
548,0.91135,37.752
549,0.91305,37.752
550,0.914683,37.781
551,0.91635,37.801
552,0.918017,37.827
553,0.919683,37.827
554,0.92135,37.823
555,0.923017,37.827
556,0.924683,37.832
557,0.92635,37.832
558,0.928017,37.815
559,0.929683,37.83
560,0.93135,37.83
561,0.933017,37.806
562,0.934683,37.796
563,0.93635,37.839
564,0.938017,37.839
565,0.939683,37.821
566,0.94135,37.833
567,0.943017,37.827
568,0.9446830000000001,37.827
569,0.94635,37.773
570,0.948017,37.766
571,0.9496830000000001,37.745
572,0.95135,37.745
573,0.953017,37.733
574,0.9546829999999999,37.754
575,0.95635,37.754
576,0.958017,37.754
577,0.959683,37.786
578,0.96135,37.822
579,0.963017,37.822
580,0.964683,37.843
581,0.966333,37.851
582,0.968,37.866
583,0.9697170000000001,37.866
584,0.97135,37.853
585,0.973,37.84
586,0.974667,37.846
587,0.976333,37.846
588,0.978,37.828
589,0.979667,37.812
590,0.981333,37.807
591,0.983,37.807
592,0.984667,37.806
593,0.9864000000000001,37.809
594,0.988,37.809
595,0.989667,37.827
596,0.991333,37.822
597,0.993,37.829
598,0.994667,37.829
599,0.996333,37.827
600,0.998,37.808
601,0.999667,37.824
602,1.001333,37.824
603,1.003,37.819
604,1.004667,37.794
605,1.006333,37.771
606,1.008,37.771
607,1.009667,37.757
608,1.011333,37.756
609,1.013,37.756
610,1.014667,37.777
611,1.016333,37.801
612,1.018,37.802
613,1.019667,37.802
614,1.021333,37.797
615,1.023,37.801
616,1.024667,37.806
617,1.026317,37.806
618,1.027983,37.774
619,1.02965,37.794
620,1.031317,37.809
621,1.032983,37.809
622,1.03465,37.793
623,1.036317,37.833
624,1.037983,37.833
625,1.03965,37.816
626,1.041317,37.823
627,1.042983,37.838
628,1.04465,37.838
629,1.046317,37.834
630,1.048,37.815
631,1.04965,37.755
632,1.051317,37.755
633,1.052983,37.755
634,1.05465,37.755
635,1.056317,37.779
636,1.057983,37.779
637,1.05965,37.83
638,1.061317,37.829
639,1.062983,37.799
640,1.06465,37.799
641,1.066317,37.812
642,1.067983,37.796
643,1.06965,37.796
644,1.071317,37.778
645,1.072983,37.801
646,1.07465,37.799
647,1.076317,37.799
648,1.077983,37.798
649,1.07965,37.832
650,1.081317,37.836
651,1.082983,37.836
652,1.08465,37.85
653,1.0863,37.865
654,1.087967,37.879
655,1.089633,37.879
656,1.0913,37.891
657,1.092967,37.86
658,1.094633,37.86
659,1.0963,37.833
660,1.097967,37.807
661,1.099633,37.802
662,1.1013,37.802
663,1.102967,37.812
664,1.104633,37.833
665,1.1063,37.844
666,1.107967,37.844
667,1.109633,37.834
668,1.1113,37.832
669,1.112967,37.84
670,1.114633,37.84
671,1.1163,37.824
672,1.117967,37.837
673,1.119633,37.855
674,1.1213,37.855
675,1.122967,37.853
676,1.124633,37.872
677,1.1263,37.872
678,1.127967,37.87
679,1.129633,37.861
680,1.1313,37.851
681,1.132967,37.851
682,1.134633,37.857
683,1.1363,37.862
684,1.137967,37.865
685,1.139633,37.865
686,1.1413,37.868
687,1.142967,37.856
688,1.144633,37.856
689,1.146283,37.856
690,1.14795,37.885
691,1.149617,37.899
692,1.151283,37.899
693,1.15295,37.932
694,1.154617,37.938
695,1.156267,37.912
696,1.157933,37.912
697,1.1596,37.905
698,1.161267,37.872
699,1.162933,37.844
700,1.1646,37.844
701,1.166267,37.845
702,1.167933,37.866
703,1.1696,37.891
704,1.171267,37.891
705,1.172933,37.927
706,1.1746,37.963
707,1.176267,37.969
708,1.177933,37.969
709,1.1796,37.965
710,1.181267,37.969
711,1.182933,37.969
712,1.1846,37.934
713,1.186267,37.941
714,1.187933,37.931
715,1.18965,37.931
716,1.191283,37.91
717,1.192933,37.943
718,1.1946,37.917
719,1.196267,37.917
720,1.197933,37.942
721,1.1996,37.997
722,1.201267,38.002
723,1.202933,38.002
724,1.2046,38.02
725,1.20625,37.987
726,1.207917,37.987
727,1.209583,37.947
728,1.21125,37.944
729,1.212917,37.959
730,1.214583,37.959
731,1.21625,37.982
732,1.217917,38.005
733,1.219583,37.985
734,1.22125,37.985
735,1.22305,37.977
736,1.224583,37.991
737,1.22625,37.981
738,1.227917,37.981
739,1.229583,37.965
740,1.23125,37.96
741,1.232917,37.96
742,1.234583,37.973
743,1.23625,37.981
744,1.237917,38.012
745,1.239583,38.012
746,1.24125,38.016
747,1.242917,38.004
748,1.244583,38.004
749,1.24625,38.004
750,1.247917,38.009
751,1.249583,38.029
752,1.25125,38.02
753,1.252917,38.02
754,1.254583,38.02
755,1.25625,38.024
756,1.257917,38.046
757,1.259583,38.046
758,1.26125,38.069
759,1.262917,38.08
760,1.264583,38.08
761,1.26625,38.072
762,1.2679,38.034
763,1.269567,38.008
764,1.271233,38.008
765,1.2729,38.007
766,1.274567,38.039
767,1.276233,38.042
768,1.2779,38.042
769,1.279567,38.067
770,1.281233,38.053
771,1.2829,38.067
772,1.284567,38.067
773,1.286233,38.117
774,1.2879,38.122
775,1.289567,38.122
776,1.291233,38.145
777,1.2929,38.129
778,1.294567,38.104
779,1.296233,38.104
780,1.2979,38.134
781,1.299567,38.162
782,1.301233,38.183
783,1.3029,38.183
784,1.304567,38.211
785,1.30625,38.207
786,1.307967,38.192
787,1.309567,38.192
788,1.311233,38.178
789,1.3129,38.172
790,1.314567,38.183
791,1.316233,38.183
792,1.3179,38.173
793,1.319567,38.172
794,1.321233,38.172
795,1.3229,38.145
796,1.32455,38.144
797,1.326217,38.172
798,1.327883,38.172
799,1.32955,38.164
800,1.331217,38.171
801,1.332883,38.173
802,1.33455,38.173
803,1.336217,38.204
804,1.337933,38.24
805,1.33955,38.27
806,1.341217,38.27
807,1.342883,38.259
808,1.34455,38.226
809,1.346217,38.226
810,1.347883,38.224
811,1.34955,38.221
812,1.351217,38.242
813,1.352883,38.242
814,1.35455,38.288
815,1.356217,38.324
816,1.357883,38.34
817,1.35955,38.34
818,1.361217,38.34
819,1.362883,38.313
820,1.36455,38.298
821,1.366217,38.298
822,1.367883,38.287
823,1.36955,38.307
824,1.371217,38.3
825,1.372883,38.3
826,1.37455,38.316
827,1.376217,38.353
828,1.377883,38.353
829,1.37955,38.331
830,1.381217,38.336
831,1.382883,38.31
832,1.38455,38.31
833,1.386217,38.285
834,1.387867,38.315
835,1.389533,38.354
836,1.3912,38.354
837,1.392883,38.389
838,1.394533,38.412
839,1.3962,38.446
840,1.397867,38.446
841,1.399533,38.443
842,1.4012,38.435
843,1.402867,38.435
844,1.404567,38.438
845,1.4062,38.427
846,1.407867,38.43
847,1.409533,38.43
848,1.4112,38.455
849,1.412867,38.474
850,1.414533,38.476
851,1.4162,38.476
852,1.417867,38.479
853,1.419533,38.476
854,1.4212,38.47
855,1.422867,38.47
856,1.424533,38.458
857,1.42625,38.465
858,1.427883,38.462
859,1.429533,38.462
860,1.4312,38.461
861,1.432867,38.467
862,1.434533,38.467
863,1.4362,38.484
864,1.437867,38.505
865,1.439533,38.529
866,1.4412,38.529
867,1.442933,38.528
868,1.444517,38.536
869,1.446183,38.553
870,1.44785,38.553
871,1.4495,38.591
872,1.451167,38.625
873,1.452833,38.653
874,1.4545,38.653
875,1.456167,38.658
876,1.457833,38.672
877,1.459617,38.709
878,1.461167,38.709
879,1.462833,38.702
880,1.4645,38.69
881,1.466167,38.69
882,1.467833,38.662
883,1.4695,38.628
884,1.471167,38.658
885,1.472833,38.658
886,1.4745,38.671
887,1.4762,38.69
888,1.477833,38.732
889,1.4795,38.732
890,1.481167,38.726
891,1.482833,38.759
892,1.4845,38.759
893,1.486167,38.769
894,1.487833,38.777
895,1.4895,38.766
896,1.491167,38.766
897,1.492833,38.768
898,1.4945,38.771
899,1.496167,38.753
900,1.497833,38.753
901,1.4995,38.784
902,1.501167,38.797
903,1.502833,38.829
904,1.5045,38.829
905,1.50615,38.849
906,1.507817,38.85
907,1.509483,38.878
908,1.51115,38.878
909,1.512817,38.859
910,1.514483,38.856
911,1.51615,38.856
912,1.517817,38.854
913,1.519483,38.857
914,1.52115,38.883
915,1.522817,38.883
916,1.524483,38.92
917,1.52615,38.949
918,1.527817,38.942
919,1.529483,38.942
920,1.53115,38.955
921,1.532817,38.958
922,1.534483,38.972
923,1.53615,38.972
924,1.537817,39.004
925,1.539483,39.05
926,1.54115,39.05
927,1.542817,39.083
928,1.54455,39.092
929,1.54615,39.081
930,1.547817,39.081
931,1.549483,39.046
932,1.551167,39.066
933,1.552817,39.113
934,1.554483,39.113
935,1.55615,39.13
936,1.557817,39.148
937,1.559483,39.141
938,1.5612,39.141
939,1.562817,39.13
940,1.564483,39.18
941,1.566133,39.215
942,1.5678,39.215
943,1.569467,39.263
944,1.571133,39.278
945,1.5728,39.278
946,1.574467,39.256
947,1.576133,39.25
948,1.577867,39.233
949,1.579467,39.233
950,1.581133,39.215
951,1.5828,39.227
952,1.584467,39.24
953,1.586133,39.24
954,1.5878,39.221
955,1.589467,39.228
956,1.591133,39.233
957,1.5928,39.233
958,1.594533,39.238
959,1.596133,39.247
960,1.5978,39.247
961,1.599467,39.291
962,1.601133,39.331
963,1.602817,39.358
964,1.604467,39.358
965,1.606133,39.393
966,1.6078,39.434
967,1.609467,39.433
968,1.611133,39.433
969,1.6128,39.461
970,1.614467,39.492
971,1.616133,39.491
972,1.6178,39.491
973,1.619483,39.524
974,1.621133,39.536
975,1.6228,39.536
976,1.624467,39.546
977,1.626117,39.535
978,1.627783,39.513
979,1.62945,39.513
980,1.631117,39.492
981,1.632783,39.524
982,1.63445,39.556
983,1.636117,39.556
984,1.637783,39.581
985,1.639483,39.614
986,1.641117,39.613
987,1.642783,39.613
988,1.64445,39.615
989,1.646117,39.647
990,1.647783,39.683
991,1.64945,39.683
992,1.651117,39.728
993,1.652783,39.779
994,1.65445,39.779
995,1.656117,39.807
996,1.657783,39.8
997,1.65945,39.777
998,1.661117,39.777
999,1.6628,39.783
1000,1.66445,39.784
1001,1.666117,39.819
1002,1.667783,39.819
1003,1.66945,39.857
1004,1.671117,39.877
1005,1.672783,39.902
1006,1.67445,39.902
1007,1.676117,39.923
1008,1.677783,39.932
1009,1.679467,39.934
1010,1.681117,39.934
1011,1.682783,39.938
1012,1.68445,39.948
1013,1.6861,39.948
1014,1.6878,39.962
1015,1.689433,39.987
1016,1.6911,40.025
