"ID","sea_time","fid_signal"
1,0,140.101
2,0.001667,140.242
3,0.003333,140.242
4,0.005,140.645
5,0.006667,140.317
6,0.008333,140.071
7,0.01,140.071
8,0.011667,139.885
9,0.013333,139.393
10,0.015,139.654
11,0.016667,139.654
12,0.018333,140.019
13,0.02,140.034
14,0.0217,140.034
15,0.023333,140.086
16,0.025,139.892
17,0.026667,139.855
18,0.028333,139.855
19,0.03,139.885
20,0.031667,139.967
21,0.033333,139.989
22,0.035,139.989
23,0.036667,139.832
24,0.038367,139.706
25,0.039983,139.892
26,0.04165,139.892
27,0.043317,140.168
28,0.044983,140.063
29,0.04665,140.063
30,0.048317,140.086
31,0.049983,140.063
32,0.05165,139.765
33,0.053317,139.765
34,0.054983,140.198
35,0.05665,140.25
36,0.058317,140.451
37,0.059983,140.451
38,0.06165,140.518
39,0.063317,140.436
40,0.064983,140.473
41,0.06665,140.473
42,0.068317,140.22
43,0.069983,140.369
44,0.07165000000000001,140.198
45,0.07331699999999999,140.198
46,0.07498299999999999,140.153
47,0.07665,140.168
48,0.0784,140.168
49,0.079983,139.989
50,0.081667,140.034
51,0.083317,140.049
52,0.084983,140.049
53,0.08665,140.16
54,0.08831700000000001,140.22
55,0.08998299999999999,140.175
56,0.09165,140.175
57,0.093317,140.361
58,0.094983,140.384
59,0.096633,140.294
60,0.0983,140.294
61,0.099967,140.548
62,0.101633,140.242
63,0.1033,140.242
64,0.104967,139.959
65,0.106633,140.026
66,0.1083,139.646
67,0.109967,139.646
68,0.11175,139.929
69,0.1133,140.078
70,0.114967,139.974
71,0.116633,139.974
72,0.1183,140.049
73,0.119967,139.944
74,0.121633,140.026
75,0.1233,140.026
76,0.12495,139.914
77,0.126617,139.721
78,0.128283,139.721
79,0.12995,139.691
80,0.131617,139.758
81,0.133283,140.063
82,0.13495,140.063
83,0.136617,140.57
84,0.138283,140.637
85,0.13995,140.704
86,0.141617,140.704
87,0.143283,140.391
88,0.14495,139.885
89,0.146617,139.922
90,0.148283,139.922
91,0.14995,139.847
92,0.151617,140.384
93,0.153283,140.764
94,0.154933,140.764
95,0.1566,140.741
96,0.158267,140.473
97,0.159933,140.473
98,0.1616,140.302
99,0.163267,139.982
100,0.164933,139.773
101,0.1666,139.773
102,0.168267,139.795
103,0.169933,139.534
104,0.1716,139.609
105,0.173267,139.609
106,0.174933,139.803
107,0.17665,139.676
108,0.178267,140.026
109,0.179933,140.026
110,0.1816,140.026
111,0.183267,139.788
112,0.184933,139.788
113,0.1866,139.773
114,0.188267,139.453
115,0.189933,139.52
116,0.1916,139.52
117,0.193267,139.624
118,0.194933,139.721
119,0.19665,139.885
120,0.198267,139.885
121,0.199933,139.713
122,0.2016,139.803
123,0.203267,139.803
124,0.204933,139.803
125,0.2066,139.661
126,0.208267,140.078
127,0.209933,140.063
128,0.2116,140.063
129,0.21325,139.922
130,0.214933,139.892
131,0.216583,139.892
132,0.21825,139.728
133,0.219917,139.862
134,0.221583,140.421
135,0.22325,140.421
136,0.224917,140.384
137,0.226583,140.294
138,0.22825,139.959
139,0.23005,139.959
140,0.231583,139.691
141,0.23325,139.706
142,0.234917,139.855
143,0.236583,139.855
144,0.23825,139.996
145,0.239917,139.743
146,0.241583,139.743
147,0.24325,139.803
148,0.244917,139.982
149,0.246583,140.175
150,0.24825,140.175
151,0.249933,140.503
152,0.251583,140.332
153,0.25325,139.847
154,0.254917,139.847
155,0.2566,139.467
156,0.25825,139.341
157,0.259917,139.549
158,0.261583,139.549
159,0.26325,139.795
160,0.264917,140.041
161,0.266583,140.041
162,0.26825,140.198
163,0.269917,140.361
164,0.271583,140.063
165,0.27325,140.063
166,0.274917,140.034
167,0.276567,139.952
168,0.278233,139.929
169,0.2799,139.929
170,0.281567,140.063
171,0.283233,140.049
172,0.2849,139.862
173,0.286567,139.862
174,0.288233,139.609
175,0.2899,139.594
176,0.291567,139.803
177,0.293233,139.803
178,0.2949,140.019
179,0.296567,140.22
180,0.298233,140.22
181,0.2999,140.503
182,0.301567,140.481
183,0.303233,140.443
184,0.3049,140.443
185,0.306567,140.555
186,0.308233,140.563
187,0.3099,140.525
188,0.311567,140.525
189,0.313233,140.481
190,0.3149,140.473
191,0.316567,140.168
192,0.31825,140.168
193,0.3199,139.885
194,0.321567,139.616
195,0.323233,139.616
196,0.3249,139.326
197,0.326567,139.341
198,0.328233,139.616
199,0.3299,139.616
200,0.331567,140.131
201,0.333233,140.548
202,0.3349,140.913
203,0.33655,140.913
204,0.338233,140.883
205,0.339883,140.399
206,0.34155,140.227
207,0.343217,140.227
208,0.344883,140.302
209,0.34655,140.101
210,0.348333,140.116
211,0.349883,140.116
212,0.35155,140.131
213,0.353217,140.026
214,0.354883,140.026
215,0.35655,140.376
216,0.358217,140.615
217,0.359883,140.741
218,0.36155,140.741
219,0.363217,140.779
220,0.364883,140.756
221,0.36655,140.898
222,0.368217,140.898
223,0.369883,140.741
224,0.37155,140.592
225,0.373217,140.846
226,0.374883,140.846
227,0.37655,141.3
228,0.378217,141.606
229,0.379883,141.606
230,0.38155,142.403
231,0.383217,142.902
232,0.384883,143.431
233,0.38655,143.431
234,0.388217,144.75
235,0.389883,146.27
236,0.39155,148.661
237,0.393217,148.661
238,0.394883,151.686
239,0.39655,155.747
240,0.3982,160.694
241,0.3999,160.694
242,0.401533,166.923
243,0.4032,174.835
244,0.404867,184.186
245,0.406533,184.186
246,0.4082,195.906
247,0.409867,210.069
248,0.411533,210.069
249,0.4132,227.354
250,0.414867,247.464
251,0.416517,270.866
252,0.418183,270.866
253,0.41985,297.226
254,0.421517,326.701
255,0.423183,360.072
256,0.42485,360.072
257,0.426517,396.49
258,0.428183,435.933
259,0.42985,478.059
260,0.431533,478.059
261,0.433217,522.167
262,0.43485,568.3150000000001
263,0.436517,568.3150000000001
264,0.438183,615.984
265,0.43985,664.644
266,0.441517,713.788
267,0.443183,713.788
268,0.44485,762.641
269,0.446517,810.944
270,0.448183,857.547
271,0.449967,857.547
272,0.451517,902.288
273,0.453183,945.136
274,0.45485,985.205
275,0.4565,985.205
276,0.458167,1022.808
277,0.459833,1057.498
278,0.4615,1057.498
279,0.463167,1088.56
280,0.464833,1116.753
281,0.466617,1141.362
282,0.468167,1141.362
283,0.469833,1163.08
284,0.4715,1181.312
285,0.473167,1195.945
286,0.47485,1195.945
287,0.476517,1207.918
288,0.478167,1216.307
289,0.479833,1222.268
290,0.4815,1222.268
291,0.483267,1225.837
292,0.484833,1226.701
293,0.4865,1225.464
294,0.488167,1225.464
295,0.489833,1222.26
296,0.4915,1217.037
297,0.493167,1217.037
298,0.494833,1210.019
299,0.4965,1201.578
300,0.498167,1191.854
301,0.499833,1191.854
302,0.5014999999999999,1181.2
303,0.503167,1169.749
304,0.504833,1157.053
305,0.5065,1157.053
306,0.508167,1143.426
307,0.509833,1129.255
308,0.5115,1114.488
309,0.513167,1114.488
310,0.514817,1099.847
311,0.516483,1085.177
312,0.51815,1085.177
313,0.519817,1069.717
314,0.521483,1054.25
315,0.52315,1038.589
316,0.524817,1038.589
317,0.526483,1022.846
318,0.52815,1007.088
319,0.529817,991.218
320,0.531483,991.218
321,0.53315,975.475
322,0.534817,959.456
323,0.536483,943.832
324,0.53815,943.832
325,0.539817,928.35
326,0.541483,912.845
327,0.54315,897.668
328,0.544817,897.668
329,0.5464830000000001,883.043
330,0.54815,868.693
331,0.549817,868.693
332,0.5514829999999999,854.47
333,0.55315,840.515
334,0.554817,826.471
335,0.5564829999999999,826.471
336,0.55815,812.612
337,0.559817,799.313
338,0.561483,786.64
339,0.56315,786.64
340,0.564817,774.272
341,0.566483,761.986
342,0.568233,749.938
343,0.569817,749.938
344,0.571483,737.891
345,0.57315,725.754
346,0.574817,725.754
347,0.576467,714.123
348,0.578133,702.426
349,0.5798,691.287
350,0.581467,691.287
351,0.583133,680.678
352,0.584883,670.396
353,0.586467,660.561
354,0.588133,660.561
355,0.5898,650.331
356,0.591467,640.631
357,0.593133,631.265
358,0.5948,631.265
359,0.596467,621.937
360,0.598133,612.84
361,0.5998,603.855
362,0.601567,603.855
363,0.603133,594.8099999999999
364,0.6048,586.107
365,0.606467,586.107
366,0.608133,578.009
367,0.6098,569.649
368,0.611467,561.438
369,0.613133,561.438
370,0.6148,553.682
371,0.616467,545.6950000000001
372,0.618133,538.141
373,0.6198,538.141
374,0.621467,531.115
375,0.623133,523.843
376,0.6248,516.72
377,0.626467,516.72
378,0.6281330000000001,509.746
379,0.6298,502.855
380,0.631467,502.855
381,0.6331329999999999,496.387
382,0.634783,490.323
383,0.63645,484.325
384,0.638117,484.325
385,0.639817,478.23
386,0.64145,472.322
387,0.643117,466.466
388,0.644783,466.466
389,0.64645,460.789
390,0.6481170000000001,455.409
391,0.649783,449.777
392,0.65145,449.777
393,0.6531169999999999,444.278
394,0.654783,438.951
395,0.65645,433.818
396,0.658117,433.818
397,0.6598000000000001,428.945
398,0.66145,424.378
399,0.663117,424.378
400,0.664783,420.079
401,0.66645,415.176
402,0.668117,410.579
403,0.6698,410.579
404,0.67145,405.699
405,0.673117,401.095
406,0.674783,396.848
407,0.67645,396.848
408,0.678117,392.735
409,0.679783,388.585
410,0.68145,384.51
411,0.683117,384.51
412,0.684783,380.605
413,0.6865,376.56
414,0.688117,376.56
415,0.689783,372.946
416,0.69145,368.819
417,0.693117,365.168
418,0.694783,365.168
419,0.696433,361.718
420,0.6981000000000001,358.433
421,0.699767,355.653
422,0.701433,355.653
423,0.7031500000000001,352.383
424,0.704767,348.985
425,0.706433,345.67
426,0.708083,345.67
427,0.70975,342.25
428,0.711417,339.024
429,0.713083,339.024
430,0.71475,335.842
431,0.716417,332.959
432,0.718083,329.986
433,0.7198830000000001,329.986
434,0.721417,327.393
435,0.723083,324.845
436,0.72475,322.424
437,0.726417,322.424
438,0.728083,319.973
439,0.729783,317.596
440,0.731417,315.294
441,0.733083,315.294
442,0.73475,312.589
443,0.736417,310.265
444,0.738083,307.523
445,0.73975,307.523
446,0.741417,305.124
447,0.743083,302.866
448,0.74475,302.866
449,0.746417,300.527
450,0.7480830000000001,298.247
451,0.74975,295.982
452,0.751417,295.982
453,0.7530829999999999,293.65
454,0.75475,291.318
455,0.7564,289.485
456,0.7581,289.485
457,0.759733,287.138
458,0.7614,285.052
459,0.7630670000000001,282.98
460,0.764733,282.98
461,0.7664,280.812
462,0.7680670000000001,279.173
463,0.769733,279.173
464,0.7714,277.735
465,0.7730669999999999,276.484
466,0.774733,275.254
467,0.7764,275.254
468,0.778067,273.541
469,0.779733,271.298
470,0.7814,269.286
471,0.783067,269.286
472,0.784733,267.074
473,0.7864,265.464
474,0.788067,263.929
475,0.789733,263.929
476,0.7914,262.313
477,0.793067,260.785
478,0.794733,259.362
479,0.7964,259.362
480,0.798067,258.446
481,0.799733,256.874
482,0.8014,256.874
483,0.803067,255.473
484,0.804767,254.087
485,0.8064,252.18
486,0.808067,252.18
487,0.809733,251.077
488,0.8114170000000001,250.086
489,0.813067,248.663
490,0.814733,248.663
491,0.816383,247.329
492,0.8180500000000001,246.115
493,0.819717,244.647
494,0.82145,244.647
495,0.8230499999999999,243.336
496,0.824717,242.449
497,0.826383,242.449
498,0.82805,240.952
499,0.82975,239.506
500,0.831383,238.337
501,0.83305,238.337
502,0.8347329999999999,236.921
503,0.836383,235.878
504,0.83815,235.021
505,0.839717,235.021
506,0.841383,233.971
507,0.84305,233.382
508,0.8447170000000001,232.309
509,0.846383,232.309
510,0.84805,231.355
511,0.8497169999999999,230.283
512,0.851383,228.651
513,0.85305,228.651
514,0.8547169999999999,227.958
515,0.856383,227.004
516,0.85805,227.004
517,0.859717,225.998
518,0.861383,225.127
519,0.86305,224.009
520,0.864717,224.009
521,0.866383,222.966
522,0.86805,222.206
523,0.869717,221.342
524,0.871383,221.342
525,0.87305,220.686
526,0.874717,219.829
527,0.876367,218.794
528,0.878033,218.794
529,0.8797,217.982
530,0.881367,217.013
531,0.883033,217.013
532,0.8847,216.007
533,0.886367,215.344
534,0.888033,214.875
535,0.8897,214.875
536,0.891367,214.264
537,0.893033,213.623
538,0.894717,212.863
539,0.896383,212.863
540,0.898033,211.924
541,0.8997000000000001,211.023
542,0.901367,210.24
543,0.903033,210.24
544,0.9046999999999999,209.711
545,0.906367,209.197
546,0.908033,209.197
547,0.9097,208.415
548,0.911367,208.11
549,0.913033,207.283
550,0.9147,207.283
551,0.916367,206.605
552,0.918033,206.053
553,0.9197,205.047
554,0.921367,205.047
555,0.92315,204.384
556,0.9247,204.012
557,0.9263670000000001,203.2
558,0.928033,203.2
559,0.9297,202.514
560,0.9313669999999999,201.881
561,0.933033,201.039
562,0.9347,201.039
563,0.93635,200.503
564,0.938017,200.346
565,0.939683,200.346
566,0.94135,199.705
567,0.943017,198.856
568,0.9446830000000001,198.327
569,0.94635,198.327
570,0.948017,197.597
571,0.9496830000000001,197.105
572,0.95135,196.837
573,0.953017,196.837
574,0.9546829999999999,196.3
575,0.956467,195.727
576,0.958017,195.555
577,0.959683,195.555
578,0.96135,195.019
579,0.963017,194.564
580,0.964683,194.564
581,0.96635,194.043
582,0.968017,193.283
583,0.9697,192.657
584,0.97135,192.657
585,0.973017,192.389
586,0.974683,192.009
587,0.9763500000000001,191.8
588,0.978017,191.8
589,0.979683,191.286
590,0.9813499999999999,190.467
591,0.983017,190.042
592,0.984683,190.042
593,0.9863499999999999,189.736
594,0.988017,189.342
595,0.989683,188.716
596,0.99135,188.716
597,0.993017,188.418
598,0.994683,187.531
599,0.996333,187.531
600,0.998,187.166
601,0.99965,187.173
602,1.001317,186.726
603,1.002983,186.726
604,1.00465,186.518
605,1.006317,186.235
606,1.007983,185.907
607,1.009667,185.907
608,1.011317,185.49
609,1.012983,185.192
610,1.01465,184.655
611,1.016317,184.655
612,1.017983,184.208
613,1.01965,183.94
614,1.021317,183.94
615,1.022983,183.478
616,1.02465,183.24
617,1.026317,182.815
618,1.027983,182.815
619,1.02965,182.1
620,1.031317,181.742
621,1.032983,181.213
622,1.03465,181.213
623,1.03635,181.228
624,1.037983,181.191
625,1.03965,181.042
626,1.041383,181.042
627,1.042983,180.662
628,1.04465,179.976
629,1.046317,179.619
630,1.047983,179.619
631,1.04965,179.373
632,1.051317,179.499
633,1.052983,179.499
634,1.05465,179.335
635,1.0563,179.261
636,1.057967,178.605
637,1.059633,178.605
638,1.0613,178.002
639,1.062967,177.86
640,1.064633,177.242
641,1.0663,177.242
642,1.067967,177.145
643,1.069633,177.033
644,1.0713,176.534
645,1.072967,176.534
646,1.07475,176.34
647,1.0763,175.752
648,1.077967,175.752
649,1.079633,175.402
650,1.0813,175.521
651,1.082967,175.245
652,1.084633,175.245
653,1.0863,175.32
654,1.087967,174.858
655,1.089633,174.344
656,1.0913,174.344
657,1.092967,174.165
658,1.094633,173.8
659,1.0963,173.859
660,1.097967,173.859
661,1.099633,173.412
662,1.1013,173.092
663,1.102967,173.092
664,1.104633,172.98
665,1.1063,172.473
666,1.107967,172.377
667,1.109633,172.377
668,1.1113,171.848
669,1.112983,171.542
670,1.114683,171.475
671,1.116283,171.475
672,1.11795,171.468
673,1.119617,171.646
674,1.121283,171.199
675,1.12295,171.199
676,1.124617,170.931
677,1.126283,170.328
678,1.12795,170.037
679,1.129617,170.037
680,1.131283,169.948
681,1.13295,169.508
682,1.134617,169.508
683,1.136283,169.419
684,1.13795,169.314
685,1.139617,169.203
686,1.141283,169.203
687,1.14295,169.434
688,1.144617,169.382
689,1.146283,169.098
690,1.14795,169.098
691,1.149617,169.024
692,1.151283,168.853
693,1.15295,168.435
694,1.154617,168.435
695,1.156283,168.122
696,1.15795,168.063
697,1.159667,167.899
698,1.161283,167.899
699,1.16295,167.839
700,1.164617,167.742
701,1.166283,167.742
702,1.16795,167.444
703,1.169617,167.094
704,1.171283,166.707
705,1.17295,166.707
706,1.174617,166.453
707,1.176267,166.215
708,1.177933,166.088
709,1.1796,166.088
710,1.181267,165.895
711,1.182933,166.275
712,1.1846,166.126
713,1.186267,166.126
714,1.188,165.984
715,1.1896,166.245
716,1.191267,166.245
717,1.193067,165.574
718,1.1946,165.291
719,1.196267,164.986
720,1.197933,164.986
721,1.1996,164.598
722,1.201267,164.613
723,1.202933,164.896
724,1.2046,164.896
725,1.206267,164.911
726,1.207933,165.008
727,1.2096,164.807
728,1.211267,164.807
729,1.212933,164.211
730,1.2146,164.27
731,1.216267,164.27
732,1.217933,164.002
733,1.2196,164.002
734,1.221267,164.039
735,1.222933,164.039
736,1.2246,163.712
737,1.226267,163.525
738,1.227933,163.153
739,1.2296,163.153
740,1.231267,162.84
741,1.232933,162.609
742,1.2346,162.303
743,1.23625,162.303
744,1.237933,161.931
745,1.239583,161.596
746,1.24125,161.476
747,1.242917,161.476
748,1.244583,161.417
749,1.24625,161.573
750,1.247917,161.573
751,1.249583,161.797
752,1.25125,161.618
753,1.252917,161.432
754,1.254583,161.432
755,1.25625,161.298
756,1.257917,161.32
757,1.259583,161.111
758,1.26125,161.111
759,1.262917,161.037
760,1.264583,160.918
761,1.26625,160.865
762,1.267917,160.865
763,1.269583,161.044
764,1.27125,160.865
765,1.272917,160.865
766,1.274583,160.448
767,1.27625,159.703
768,1.277933,159.338
769,1.279583,159.338
770,1.28125,159.36
771,1.282917,159.547
772,1.284583,159.726
773,1.28625,159.726
774,1.287917,159.778
775,1.289583,159.502
776,1.291233,159.45
777,1.2929,159.45
778,1.294683,159.383
779,1.296217,159.025
780,1.297883,159.025
781,1.29955,159.003
782,1.301217,158.727
783,1.302883,158.451
784,1.30455,158.451
785,1.306217,158.362
786,1.307883,158.332
787,1.30955,158.384
788,1.311333,158.384
789,1.312883,158.437
790,1.31455,158.474
791,1.316217,158.697
792,1.317883,158.697
793,1.31955,158.429
794,1.321217,158.004
795,1.322883,157.759
796,1.32455,157.759
797,1.326217,157.319
798,1.327883,157.192
799,1.32955,157.192
800,1.331217,157.297
801,1.332917,157.2
802,1.33455,157.095
803,1.336217,157.095
804,1.337883,157.222
805,1.33955,157.326
806,1.341217,157.416
807,1.342883,157.416
808,1.34455,157.356
809,1.346217,157.051
810,1.347883,156.768
811,1.34955,156.768
812,1.351217,156.932
813,1.352883,157.095
814,1.35455,157.095
815,1.3562,157.274
816,1.357867,157.528
817,1.359533,157.23
818,1.3612,157.23
819,1.362867,156.753
820,1.364533,156.544
821,1.3662,156.291
822,1.367867,156.291
823,1.369533,156.075
824,1.3712,156.105
825,1.372867,156.268
826,1.374533,156.268
827,1.3762,156.112
828,1.377867,156.194
829,1.379533,156.075
830,1.3812,156.075
831,1.382867,155.889
832,1.384533,155.978
833,1.3862,155.978
834,1.387867,155.799
835,1.389533,155.739
836,1.3912,155.65
837,1.392867,155.65
838,1.394533,155.479
839,1.396267,155.3
840,1.397867,155.076
841,1.399533,155.076
842,1.4012,155.054
843,1.402917,155.039
844,1.404533,155.21
845,1.4062,155.21
846,1.407867,155.419
847,1.409533,155.27
848,1.4112,155.27
849,1.412967,155.047
850,1.414533,155.032
851,1.416183,155.061
852,1.41785,155.061
853,1.419517,154.853
854,1.421183,155.017
855,1.42285,154.808
856,1.424517,154.808
857,1.426183,154.249
858,1.42785,154.227
859,1.4296,153.989
860,1.431183,153.989
861,1.43285,153.787
862,1.434517,154.279
863,1.436183,154.354
864,1.43785,154.354
865,1.439517,154.153
866,1.441183,154.026
867,1.44285,154.026
868,1.444517,153.869
869,1.446283,154.026
870,1.44785,153.959
871,1.449517,153.959
872,1.451183,153.989
873,1.45285,153.631
874,1.454517,153.34
875,1.456183,153.34
876,1.45785,153.594
877,1.459517,153.482
878,1.461183,153.683
879,1.46285,153.683
880,1.464517,153.519
881,1.4662,153.162
882,1.46785,153.162
883,1.469517,152.975
884,1.471183,152.67
885,1.47285,152.677
886,1.474533,152.677
887,1.4762,152.841
888,1.477833,152.871
889,1.4795,152.849
890,1.481167,152.849
891,1.482833,152.7
892,1.4845,152.618
893,1.486167,152.692
894,1.487833,152.692
895,1.4895,152.759
896,1.491167,152.729
897,1.492833,152.729
898,1.4945,152.543
899,1.496167,152.454
900,1.497833,152.215
901,1.4995,152.215
902,1.501167,151.984
903,1.502833,151.731
904,1.5045,151.649
905,1.506167,151.649
906,1.507833,151.835
907,1.5095,151.947
908,1.511167,152.342
909,1.512833,152.342
910,1.5145,152.461
911,1.516167,152.282
912,1.517833,152.402
913,1.5195,152.402
914,1.521167,152.141
915,1.522833,152.178
916,1.5245,152.178
917,1.526167,151.955
918,1.527833,151.828
919,1.5295,151.969
920,1.531233,151.969
921,1.532833,151.612
922,1.5345,151.955
923,1.53615,151.888
924,1.537817,151.888
925,1.539483,151.888
926,1.54115,152.126
927,1.542817,151.843
928,1.544483,151.843
929,1.54615,151.865
930,1.547817,151.679
931,1.549483,151.679
932,1.55115,151.359
933,1.552817,151.418
934,1.554483,151.061
935,1.55615,151.061
936,1.557817,151.068
937,1.559483,151.165
938,1.56115,150.934
939,1.562817,150.934
940,1.564483,151.135
941,1.56615,150.993
942,1.567817,150.688
943,1.569483,150.688
944,1.57115,150.852
945,1.572817,150.561
946,1.574483,150.166
947,1.57615,150.166
948,1.577817,150.502
949,1.579483,150.085
950,1.581133,150.085
951,1.5828,150.099
952,1.584467,150.234
953,1.586133,150.211
954,1.5878,150.211
955,1.589467,150.301
956,1.591133,150.137
957,1.5928,150.211
958,1.59445,150.211
959,1.596117,150.107
960,1.597783,149.742
