"ID","sea_time","fid_signal"
1,0,1188.666
2,0.001667,1188.666
3,0.003333,1184.568
4,0.005,1184.195
5,0.006667,1184.717
6,0.008333,1184.717
7,0.01,1182.705
8,0.011667,1179.948
9,0.013317,1180.097
10,0.014983,1180.097
11,0.01665,1176.894
12,0.018317,1180.097
13,0.019983,1184.27
14,0.02165,1184.27
15,0.023317,1186.356
16,0.024983,1185.611
17,0.0267,1185.611
18,0.028317,1185.089
19,0.029983,1182.482
20,0.03165,1180.396
21,0.033317,1180.396
22,0.034983,1182.184
23,0.03665,1180.768
24,0.038317,1181.737
25,0.039983,1181.737
26,0.04165,1184.94
27,0.043317,1183.748
28,0.044983,1185.536
29,0.04665,1185.536
30,0.04835,1185.313
31,0.049983,1182.78
32,0.05165,1182.78
33,0.053317,1183.897
34,0.054983,1181.662
35,0.05665,1181.737
36,0.058317,1181.737
37,0.06005,1182.407
38,0.06165,1184.046
39,0.063317,1185.76
40,0.064983,1185.76
41,0.06665,1186.058
42,0.068317,1184.642
43,0.069983,1183.674
44,0.07165000000000001,1183.674
45,0.0733,1182.929
46,0.07496700000000001,1181.29
47,0.07663300000000001,1180.992
48,0.07829999999999999,1180.992
49,0.079983,1183.227
50,0.081633,1185.76
51,0.0833,1185.76
52,0.084967,1186.281
53,0.086633,1188.964
54,0.0883,1187.623
55,0.08996700000000001,1187.623
56,0.09163300000000001,1186.43
57,0.09329999999999999,1188.368
58,0.094967,1187.25
59,0.096633,1187.25
60,0.0983,1186.281
61,0.099967,1186.952
62,0.101633,1187.548
63,0.1033,1187.548
64,0.104967,1189.262
65,0.106633,1188.815
66,0.1083,1188.815
67,0.109967,1187.101
68,0.111633,1184.568
69,0.1133,1181.737
70,0.114967,1181.737
71,0.116633,1181.066
72,0.1183,1180.023
73,0.119967,1178.98
74,0.121633,1178.98
75,0.1233,1178.309
76,0.124967,1177.713
77,0.126633,1178.458
78,0.1283,1178.458
79,0.129967,1181.066
80,0.131633,1182.258
81,0.1333,1183.748
82,0.13495,1183.748
83,0.136617,1185.164
84,0.138283,1184.94
85,0.13995,1184.94
86,0.141617,1183.674
87,0.143283,1183.599
88,0.14495,1185.536
89,0.146617,1185.536
90,0.148283,1185.238
91,0.14995,1185.983
92,0.151617,1184.94
93,0.153283,1184.94
94,0.15495,1181.066
95,0.156617,1180.545
96,0.158283,1179.948
97,0.159967,1179.948
98,0.161717,1179.501
99,0.163283,1177.043
100,0.164933,1177.043
101,0.1666,1174.807
102,0.168267,1172.423
103,0.169933,1172.498
104,0.1716,1172.498
105,0.173267,1177.564
106,0.174933,1181.96
107,0.1766,1184.046
108,0.178367,1184.046
109,0.179933,1184.717
110,0.1816,1182.035
111,0.183267,1178.458
112,0.184933,1178.458
113,0.1866,1177.415
114,0.188267,1174.807
115,0.18995,1175.851
116,0.1916,1175.851
117,0.19325,1178.905
118,0.194917,1182.258
119,0.196583,1182.258
120,0.19825,1184.94
121,0.199917,1183.301
122,0.201583,1180.47
123,0.20325,1180.47
124,0.204917,1178.458
125,0.206583,1178.16
126,0.20825,1179.352
127,0.209917,1179.352
128,0.211583,1181.811
129,0.21325,1183.748
130,0.214917,1183.674
131,0.216583,1183.674
132,0.21825,1185.983
133,0.219917,1187.101
134,0.221583,1187.101
135,0.22325,1185.313
136,0.224917,1186.729
137,0.226583,1183.376
138,0.22825,1183.376
139,0.229917,1182.407
140,0.231583,1181.439
141,0.23325,1179.501
142,0.234917,1179.501
143,0.236583,1180.768
144,0.23825,1178.682
145,0.239917,1179.65
146,0.241583,1179.65
147,0.24325,1177.415
148,0.244917,1177.043
149,0.246583,1177.043
150,0.24825,1176.67
151,0.249917,1176.894
152,0.251583,1179.352
153,0.253233,1179.352
154,0.254917,1181.662
155,0.256567,1183.301
156,0.258233,1180.843
157,0.2599,1180.843
158,0.261567,1179.576
159,0.263233,1174.286
160,0.2649,1173.317
161,0.266567,1173.317
162,0.268233,1178.905
163,0.2699,1179.352
164,0.271567,1182.556
165,0.273233,1182.556
166,0.2749,1180.545
167,0.276567,1178.607
168,0.278233,1178.607
169,0.27995,1179.799
170,0.281567,1181.513
171,0.283233,1185.313
172,0.2849,1185.313
173,0.286567,1184.419
174,0.288233,1184.344
175,0.2899,1186.803
176,0.291567,1186.803
177,0.293233,1189.262
178,0.2949,1191.795
179,0.29665,1198.202
180,0.298233,1198.202
181,0.2999,1198.873
182,0.301567,1203.12
183,0.303233,1203.12
184,0.3049,1209.155
185,0.306567,1216.978
186,0.308233,1225.919
187,0.3099,1225.919
188,0.31155,1234.785
189,0.31335,1248.494
190,0.314883,1261.83
191,0.31655,1261.83
192,0.318217,1281.276
193,0.319883,1305.64
194,0.32155,1330.376
195,0.323217,1330.376
196,0.324883,1358.39
197,0.32655,1390.651
198,0.328233,1424.7
199,0.32995,1424.7
200,0.33155,1463.741
201,0.333217,1507.849
202,0.334883,1507.849
203,0.33655,1555.681
204,0.338217,1608.208
205,0.339883,1668.781
206,0.34155,1668.781
207,0.343217,1737.475
208,0.344883,1814.887
209,0.34655,1905.113
210,0.348217,1905.113
211,0.349883,2006.665
212,0.35155,2121.478
213,0.353217,2256.259
214,0.354883,2256.259
215,0.35655,2412.573
216,0.358217,2599.656
217,0.359883,2599.656
218,0.36155,2826.601
219,0.363217,3100.187
220,0.364883,3433.675
221,0.36655,3433.675
222,0.368217,3838.986
223,0.369883,4328.042
224,0.37155,4910.827
225,0.3732,4910.827
226,0.374867,5597.323
227,0.376533,6395.876
228,0.378217,7309.616
229,0.379867,7309.616
230,0.381533,8345.692999999999
231,0.3832,9509.251
232,0.384867,10796.413
233,0.386533,10796.413
234,0.3882,12210.757
235,0.389867,13745.427
236,0.391533,13745.427
237,0.3932,15392.452
238,0.394867,17140.807
239,0.396583,18972.979
240,0.39825,18972.979
241,0.399867,20868.928
242,0.401533,22794.232
243,0.4032,24712.383
244,0.404867,24712.383
245,0.406533,26575.551
246,0.4082,28335.824
247,0.409867,29954.762
248,0.411533,29954.762
249,0.4132,31392.5
250,0.414917,32620.877
251,0.416533,32620.877
252,0.4182,33617.914
253,0.419867,34362.078
254,0.421533,34846.738
255,0.4232,34846.738
256,0.424867,35070.48
257,0.426533,35040.156
258,0.4282,34770.145
259,0.429867,34770.145
260,0.43165,34279.078
261,0.433183,33591.168
262,0.43485,32735.094
263,0.436517,32735.094
264,0.438183,31738.133
265,0.43985,30625.314
266,0.441517,30625.314
267,0.443183,29427.408
268,0.44485,28170.273
269,0.446517,26878.268
270,0.448183,26878.268
271,0.44985,25577.619
272,0.451517,24280.102
273,0.453183,23000.314
274,0.45485,23000.314
275,0.4565,21752.045
276,0.458167,20549.447
277,0.459833,19401.088
278,0.4615,19401.088
279,0.463167,18313.006
280,0.464833,17288.104
281,0.4665,16317.144
282,0.468167,16317.144
283,0.469833,15407.428
284,0.4715,14550.239
285,0.473167,14550.239
286,0.474833,13750.568
287,0.4765,13005.808
288,0.478167,12308.583
289,0.479833,12308.583
290,0.4815,11656.21
291,0.483183,11043.325
292,0.484833,10469.556
293,0.4865,10469.556
294,0.488167,9932.891
295,0.489833,9438.469999999999
296,0.4915,8974.001
297,0.49315,8974.001
298,0.494817,8544.848
299,0.496483,8142.367
300,0.49815,8142.367
301,0.499817,7764.101
302,0.501483,7411.092
303,0.50315,7078.052
304,0.504817,7078.052
305,0.506483,6767.288
306,0.50815,6473.586
307,0.509817,6198.66
308,0.511483,6198.66
309,0.51315,5941.242
310,0.514817,5700.141
311,0.5165,5475.506
312,0.51815,5475.506
313,0.519817,5268.455
314,0.521483,5068.183
315,0.52315,4879.162
316,0.524817,4879.162
317,0.526483,4699.007
318,0.52815,4526.898
319,0.529817,4526.898
320,0.531483,4366.562
321,0.5332,4215.39
322,0.534817,4075.915
323,0.536483,4075.915
324,0.53815,3941.357
325,0.539817,3816.188
326,0.541483,3700.48
327,0.54315,3700.48
328,0.544817,3587.38
329,0.5464830000000001,3478.9
330,0.54815,3375.336
331,0.549833,3375.336
332,0.5514829999999999,3274.381
333,0.55315,3182.366
334,0.5548,3182.366
335,0.556467,3096.014
336,0.558133,3013.983
337,0.5598,2937.317
338,0.561467,2937.317
339,0.563133,2863.556
340,0.5648,2791.211
341,0.5664670000000001,2721.25
342,0.568133,2721.25
343,0.5698,2653.971
344,0.5714669999999999,2587.885
345,0.573133,2528.653
346,0.5748,2528.653
347,0.576483,2473.742
348,0.578133,2419.129
349,0.5798,2367.422
350,0.581467,2367.422
351,0.583133,2315.491
352,0.5848,2267.808
353,0.586467,2267.808
354,0.588133,2221.912
355,0.5898,2179.444
356,0.591467,2140.85
357,0.593133,2140.85
358,0.5948,2105.906
359,0.596467,2071.261
360,0.598133,2036.989
361,0.5998,2036.989
362,0.601467,2007.186
363,0.603133,1972.839
364,0.6048,1941.919
365,0.606467,1941.919
366,0.60815,1913.086
367,0.6098,1881.421
368,0.61145,1881.421
369,0.613117,1854.599
370,0.614783,1831.427
371,0.6164500000000001,1807.213
372,0.618117,1807.213
373,0.619783,1784.638
374,0.6214499999999999,1762.882
375,0.623117,1740.53
376,0.624783,1740.53
377,0.62645,1719.221
378,0.628117,1700.223
379,0.629783,1679.435
380,0.63145,1679.435
381,0.633117,1663.566
382,0.6348,1649.186
383,0.63645,1649.186
384,0.638117,1634.21
385,0.639783,1618.341
386,0.64145,1598.895
387,0.643117,1598.895
388,0.644783,1580.492
389,0.64645,1563.653
390,0.6481170000000001,1549.497
391,0.649783,1549.497
392,0.65145,1538.992
393,0.6531169999999999,1526.028
394,0.654783,1514.107
395,0.65645,1514.107
396,0.658117,1506.135
397,0.659783,1494.139
398,0.66145,1486.689
399,0.663117,1486.689
400,0.664783,1478.419
401,0.66645,1466.125
402,0.6682169999999999,1457.557
403,0.669783,1457.557
404,0.6714329999999999,1449.212
405,0.6731,1440.942
406,0.674767,1440.942
407,0.676433,1433.417
408,0.6781,1427.01
409,0.679767,1417.622
410,0.681433,1417.622
411,0.6831,1410.246
412,0.684767,1406.148
413,0.686467,1396.984
414,0.6881,1396.984
415,0.689767,1390.353
416,0.691433,1383.573
417,0.6931,1383.573
418,0.694767,1376.048
419,0.696433,1373.515
420,0.6981000000000001,1369.193
421,0.699767,1369.193
422,0.701433,1364.201
423,0.7030999999999999,1359.731
424,0.704767,1353.249
425,0.706433,1353.249
426,0.7081,1349.077
427,0.709767,1346.469
428,0.711433,1341.999
429,0.7131,1341.999
430,0.714767,1336.411
431,0.716433,1332.387
432,0.7181,1328.588
433,0.719767,1328.588
434,0.721433,1324.415
435,0.7231,1322.329
436,0.7247670000000001,1322.329
437,0.726433,1315.996
438,0.7281,1311.004
439,0.7297670000000001,1307.055
440,0.731433,1307.055
441,0.733083,1306.31
442,0.73475,1305.491
443,0.736417,1300.126
444,0.738083,1300.126
445,0.73975,1295.358
446,0.741417,1286.343
447,0.743083,1284.555
448,0.74475,1284.555
449,0.746433,1286.79
450,0.7480830000000001,1287.758
451,0.749733,1287.758
452,0.7514,1288.354
453,0.753117,1285.747
454,0.754733,1281.5
455,0.7564,1281.5
456,0.758067,1277.626
457,0.759733,1275.167
458,0.7614,1271.814
459,0.7630670000000001,1271.814
460,0.764733,1268.61
461,0.7664,1266.301
462,0.7680670000000001,1263.917
463,0.769733,1263.917
464,0.7714,1263.097
465,0.7730669999999999,1263.395
466,0.774733,1262.352
467,0.7764,1262.352
468,0.778067,1261.458
469,0.779733,1260.191
470,0.781417,1260.191
471,0.783067,1259.297
472,0.784733,1257.807
473,0.7865,1256.839
474,0.788067,1256.839
475,0.789733,1253.56
476,0.7914,1251.474
477,0.79305,1248.121
478,0.794717,1248.121
479,0.796383,1246.11
480,0.79805,1248.047
481,0.799717,1243.502
482,0.801383,1243.502
483,0.80305,1244.62
484,0.804717,1243.949
485,0.806383,1243.949
486,0.80805,1242.384
487,0.809717,1242.012
488,0.811383,1239.851
489,0.8130500000000001,1239.851
490,0.814717,1238.584
491,0.816383,1236.722
492,0.8180500000000001,1236.796
493,0.81975,1236.796
494,0.821383,1234.412
495,0.8230499999999999,1233.146
496,0.824717,1235.604
497,0.826383,1235.604
498,0.82805,1235.157
499,0.829717,1235.157
500,0.831383,1235.157
501,0.83305,1233.146
502,0.834717,1229.122
503,0.836383,1229.42
504,0.83805,1229.42
505,0.839717,1230.24
506,0.841383,1229.122
507,0.84305,1226.664
508,0.8447170000000001,1226.664
509,0.846383,1223.609
510,0.84805,1224.13
511,0.8497169999999999,1226.366
512,0.851383,1226.366
513,0.853033,1225.546
514,0.8547,1223.907
515,0.856367,1220.256
516,0.858033,1220.256
517,0.8597,1219.213
518,0.861367,1218.84
519,0.8630330000000001,1218.84
520,0.8647,1220.033
521,0.866367,1220.48
522,0.8680330000000001,1216.307
523,0.8697,1216.307
524,0.871417,1216.829
525,0.8730329999999999,1215.86
526,0.8747,1215.041
527,0.876367,1215.041
528,0.878033,1217.276
529,0.8797,1218.319
530,0.881367,1216.605
531,0.883033,1216.605
532,0.8847,1218.17
533,0.886367,1217.425
534,0.888083,1216.084
535,0.889717,1216.084
536,0.891367,1217.276
537,0.893033,1216.978
538,0.8947000000000001,1216.978
539,0.896367,1219.884
540,0.898033,1219.511
541,0.8997000000000001,1221.97
542,0.901367,1221.97
543,0.903033,1221.299
544,0.9048,1219.66
545,0.906367,1218.095
546,0.908033,1218.095
547,0.9097,1216.307
548,0.911367,1214.147
549,0.913017,1214.519
550,0.914683,1214.519
551,0.91635,1217.35
552,0.918017,1214.37
553,0.919683,1214.37
554,0.92135,1212.656
555,0.923017,1210.496
556,0.924683,1209.08
557,0.92635,1209.08
558,0.928017,1209.378
559,0.929683,1211.315
560,0.93135,1213.476
561,0.933017,1213.476
562,0.934683,1210.347
563,0.93635,1209.974
564,0.938017,1207.59
565,0.939683,1207.59
566,0.94135,1204.088
567,0.943017,1203.343
568,0.9446830000000001,1203.343
569,0.94635,1204.908
570,0.948017,1206.622
571,0.9496830000000001,1205.951
572,0.95135,1205.951
573,0.953017,1208.186
574,0.9546829999999999,1206.696
575,0.95635,1207.665
576,0.958017,1207.665
577,0.959717,1208.931
578,0.96135,1209.08
579,0.963017,1210.421
580,0.964683,1210.421
581,0.96635,1206.994
582,0.968017,1205.727
583,0.969683,1205.727
584,0.97135,1205.727
585,0.973,1205.504
586,0.974667,1207.218
587,0.976333,1207.218
588,0.978,1207.292
589,0.979667,1207.441
590,0.981333,1204.684
591,0.983,1204.684
592,0.984667,1205.653
593,0.986333,1207.963
594,0.988,1207.665
595,0.989683,1207.665
596,0.991333,1208.782
597,0.993,1205.876
598,0.994667,1203.939
599,0.996333,1203.939
600,0.998,1201.108
601,0.999667,1200.214
602,1.001333,1200.214
603,1.003,1201.257
604,1.004667,1200.736
605,1.006417,1200.214
606,1.008,1200.214
607,1.009683,1201.779
608,1.011333,1201.481
609,1.013,1200.81
610,1.014667,1200.81
611,1.016333,1203.641
612,1.018,1205.057
613,1.019667,1205.057
614,1.021333,1205.057
