"ID","sea_time","fid_signal"
1,0,1205.727
2,0.001667,1205.727
3,0.003333,1203.567
4,0.005,1199.171
5,0.006667,1198.202
6,0.008399999999999999,1198.202
7,0.01,1196.116
8,0.011667,1191.124
9,0.013333,1191.124
10,0.015,1187.101
11,0.016667,1183.45
12,0.018333,1184.791
13,0.02,1184.791
14,0.02165,1189.709
15,0.023317,1191.646
16,0.025033,1194.403
17,0.02665,1194.403
18,0.028317,1196.489
19,0.029983,1197.383
20,0.03165,1201.108
21,0.033317,1201.108
22,0.034983,1200.885
23,0.03665,1197.606
24,0.038317,1197.383
25,0.039983,1197.383
26,0.04175,1196.042
27,0.043317,1198.351
28,0.044983,1198.351
29,0.04665,1197.457
30,0.048317,1196.936
31,0.049983,1194.701
32,0.05165,1194.701
33,0.053317,1195.073
34,0.054983,1196.265
35,0.05665,1196.34
36,0.058317,1196.34
37,0.059983,1196.638
38,0.06165,1191.348
39,0.063317,1190.528
40,0.06501700000000001,1190.528
41,0.06665,1188.144
42,0.068317,1186.803
43,0.069983,1186.803
44,0.07165000000000001,1189.634
45,0.07331699999999999,1189.411
46,0.07498299999999999,1192.093
47,0.07663300000000001,1192.093
48,0.078317,1192.242
49,0.079967,1192.838
50,0.081633,1193.657
51,0.0833,1193.657
52,0.084967,1193.434
53,0.086633,1194.328
54,0.0883,1195.297
55,0.08996700000000001,1195.297
56,0.09163300000000001,1193.956
57,0.09329999999999999,1192.316
58,0.094967,1194.179
59,0.09665,1194.179
60,0.0983,1193.136
61,0.099967,1194.03
62,0.101633,1194.03
63,0.1033,1194.03
64,0.104967,1194.328
65,0.106633,1193.434
66,0.1083,1193.434
67,0.109967,1191.348
68,0.111633,1189.783
69,0.1133,1187.995
70,0.114967,1187.995
71,0.116633,1186.505
72,0.1183,1189.187
73,0.119967,1192.465
74,0.121633,1192.465
75,0.1233,1193.434
76,0.124967,1191.571
77,0.126633,1191.571
78,0.1283,1190.826
79,0.129967,1190.752
80,0.131633,1192.167
81,0.1333,1192.167
82,0.134967,1194.701
83,0.136667,1195.595
84,0.1383,1192.167
85,0.13995,1192.167
86,0.141617,1190.379
87,0.143317,1192.614
88,0.14495,1192.242
89,0.146617,1192.242
90,0.148283,1193.881
91,0.14995,1194.477
92,0.151617,1190.752
93,0.153283,1190.752
94,0.15495,1189.932
95,0.156617,1189.262
96,0.158283,1189.262
97,0.160067,1185.462
98,0.161617,1185.015
99,0.163283,1183.748
100,0.16495,1183.748
101,0.166617,1183.152
102,0.168283,1183.078
103,0.16995,1183.748
104,0.171617,1183.748
105,0.173283,1185.387
106,0.174967,1187.995
107,0.176617,1190.23
108,0.178283,1190.23
109,0.17995,1190.379
110,0.181617,1188.517
111,0.183283,1188.517
112,0.18495,1186.729
113,0.186617,1188.07
114,0.188283,1187.026
115,0.18995,1187.026
116,0.191617,1186.207
117,0.193283,1183.525
118,0.19495,1181.588
119,0.196617,1181.588
120,0.198283,1185.089
121,0.199933,1186.505
122,0.2016,1187.772
123,0.203267,1187.772
124,0.204933,1189.932
125,0.2066,1187.846
126,0.208317,1186.952
127,0.209933,1186.952
128,0.2116,1189.634
129,0.213267,1186.877
130,0.214933,1186.877
131,0.2166,1184.642
132,0.218267,1186.579
133,0.219933,1185.834
134,0.2216,1185.834
135,0.22325,1185.76
136,0.224917,1186.281
137,0.226583,1184.717
138,0.22825,1184.717
139,0.229917,1183.823
140,0.231583,1185.536
141,0.23325,1186.43
142,0.234917,1186.43
143,0.236583,1185.462
144,0.23825,1185.462
145,0.239917,1185.462
146,0.241583,1183.152
147,0.24325,1182.109
148,0.244967,1182.333
149,0.246583,1182.333
150,0.24825,1180.172
151,0.249917,1184.121
152,0.251583,1184.046
153,0.25325,1184.046
154,0.254917,1183.078
155,0.256583,1184.642
156,0.25825,1180.992
157,0.2599,1180.992
158,0.261617,1181.29
159,0.263233,1180.47
160,0.2649,1180.47
161,0.266567,1181.811
162,0.268233,1183.45
163,0.2699,1184.94
164,0.271567,1184.94
165,0.273233,1185.685
166,0.2749,1184.121
167,0.276567,1183.45
168,0.278283,1183.45
169,0.2799,1182.705
170,0.281567,1183.525
171,0.283233,1185.313
172,0.2849,1185.313
173,0.286567,1183.674
174,0.288233,1183.748
175,0.2899,1186.207
176,0.291567,1186.207
177,0.293233,1186.505
178,0.2949,1188.144
179,0.296567,1188.144
180,0.298233,1188.517
181,0.2999,1185.834
182,0.301567,1184.419
183,0.303233,1184.419
184,0.3049,1186.952
185,0.306567,1188.74
186,0.308233,1190.826
187,0.3099,1190.826
188,0.311567,1191.646
189,0.313233,1189.336
190,0.3149,1189.262
191,0.316567,1189.262
192,0.318217,1192.54
193,0.319883,1196.191
194,0.32155,1196.191
195,0.323217,1204.535
196,0.324883,1212.06
197,0.32655,1216.903
198,0.328217,1216.903
199,0.329883,1223.609
200,0.33155,1231.283
201,0.333217,1246.333
202,0.334883,1246.333
203,0.33655,1266.077
204,0.338217,1288.95
205,0.3399,1312.345
206,0.341583,1312.345
207,0.343217,1337.23
208,0.344883,1365.021
209,0.34655,1395.047
210,0.348217,1395.047
211,0.3499,1432.076
212,0.35155,1472.235
213,0.353217,1472.235
214,0.354883,1518.875
215,0.35655,1574.233
216,0.358217,1636.073
217,0.359883,1636.073
218,0.36155,1704.618
219,0.363283,1780.54
220,0.364883,1866.296
221,0.36655,1866.296
222,0.368217,1960.099
223,0.369883,2065.524
224,0.37155,2184.734
225,0.373217,2184.734
226,0.374883,2317.205
227,0.37655,2471.06
228,0.378217,2471.06
229,0.379867,2652.407
230,0.381533,2874.136
231,0.3832,3150.776
232,0.384867,3150.776
233,0.386533,3501.773
234,0.3882,3953.054
235,0.389867,4532.486
236,0.391533,4532.486
237,0.3932,5275.756
238,0.394867,6215.498
239,0.3966,7392.317
240,0.3982,7392.317
241,0.399867,8836.538
242,0.401533,10574.013
243,0.4032,10574.013
244,0.404867,12630.97
245,0.406533,15008.226
246,0.4082,17714.352
247,0.409867,17714.352
248,0.411533,20727.738
249,0.4132,24007.559
250,0.414867,27505.309
251,0.416533,27505.309
252,0.418233,31136.051
253,0.419867,34808.738
254,0.421533,38415.566
255,0.4232,38415.566
256,0.424867,41850.359
257,0.426533,45012.086
258,0.4282,47813.059
259,0.429867,47813.059
260,0.431533,50190.391
261,0.4332,52092.672
262,0.434867,52092.672
263,0.436533,53498.746
264,0.4382,54409.207
265,0.43985,54842.531
266,0.441517,54842.531
267,0.443183,54833.145
268,0.44485,54423.809
269,0.446517,53665.863
270,0.448183,53665.863
271,0.44985,52613.02
272,0.451517,51319.523
273,0.453183,49838.797
274,0.45485,49838.797
275,0.456517,48219.414
276,0.458183,46509.578
277,0.45985,46509.578
278,0.461517,44747.59
279,0.463183,42967.125
280,0.46485,41197.984
281,0.466517,41197.984
282,0.468183,39456.711
283,0.46985,37760.289
284,0.471517,36123.172
285,0.473183,36123.172
286,0.47485,34549.684
287,0.476517,33047.051
288,0.478183,31618.178
289,0.47985,31618.178
290,0.481567,30262.471
291,0.4832,28984.322
292,0.4849,27778.67
293,0.486517,27778.67
294,0.488183,26642.383
295,0.48985,25568.529
296,0.491517,25568.529
297,0.493183,24557.859
298,0.49485,23607.238
299,0.496517,22711.232
300,0.498167,22711.232
301,0.499833,21871.254
302,0.5014999999999999,21075.01
303,0.503167,20321.756
304,0.504833,20321.756
305,0.5065,19612.313
306,0.508167,18939.525
307,0.509833,18302.053
308,0.5115,18302.053
309,0.513167,17696.992
310,0.5149,17119.572
311,0.516483,17119.572
312,0.51815,16571.209
313,0.519817,16050.637
314,0.521483,15554.949
315,0.52315,15554.949
316,0.524833,15080.869
317,0.526483,14624.894
318,0.52815,14186.948
319,0.529817,14186.948
320,0.531483,13767.183
321,0.53315,13363.809
322,0.534817,12980.253
323,0.536483,12980.253
324,0.53815,12611.523
325,0.539817,12256.056
326,0.541483,11915.415
327,0.54315,11915.415
328,0.544817,11581.183
329,0.5464830000000001,11259.689
330,0.54815,11259.689
331,0.549817,10949.522
332,0.5514829999999999,10653.287
333,0.55315,10370.984
334,0.554817,10370.984
335,0.5564829999999999,10094.94
336,0.55815,9825.975
337,0.5598,9563.565000000001
338,0.5615,9563.565000000001
339,0.563133,9309.873
340,0.5648,9068.549000000001
341,0.5664670000000001,8833.855
342,0.568133,8833.855
343,0.5698,8607.73
344,0.5714669999999999,8386.82
345,0.573133,8386.82
346,0.5748,8176.938
347,0.576467,7978.231
348,0.578133,7782.579
349,0.5798,7782.579
350,0.581467,7591.993
351,0.583133,7400.811
352,0.5848,7216.036
353,0.586467,7216.036
354,0.588133,7038.936
355,0.5898,6868.318
356,0.591467,6705.15
357,0.593133,6705.15
358,0.5948,6544.292
359,0.596467,6388.128
360,0.598133,6388.128
361,0.5998,6238.147
362,0.601467,6091.893
363,0.603133,5953.908
364,0.6048,5953.908
365,0.606467,5821.958
366,0.608133,5690.977
367,0.6098,5564.689
368,0.611467,5564.689
369,0.613133,5438.328
370,0.6148,5314.797
371,0.616533,5200.133
372,0.618133,5200.133
373,0.619783,5087.778
374,0.6214499999999999,4978.702
375,0.623117,4870.519
376,0.624783,4870.519
377,0.62645,4763.305
378,0.628117,4662.424
379,0.629783,4662.424
380,0.63145,4560.947
381,0.6331830000000001,4466.772
382,0.634783,4376.62
383,0.63645,4376.62
384,0.638117,4288.479
385,0.639783,4206.002
386,0.64145,4121.14
387,0.643117,4121.14
388,0.644783,4040.077
389,0.64645,3958.792
390,0.6481170000000001,3880.486
391,0.649783,3880.486
392,0.65145,3808.811
393,0.6531169999999999,3735.498
394,0.654783,3735.498
395,0.65645,3665.537
396,0.658117,3599.748
397,0.659783,3534.704
398,0.66145,3534.704
399,0.663117,3474.355
400,0.664783,3412.515
401,0.66645,3350.899
402,0.668117,3350.899
403,0.669783,3291.741
404,0.67145,3233.775
405,0.673117,3180.727
406,0.674783,3180.727
407,0.67645,3128.946
408,0.678117,3076.941
409,0.679767,3023.52
410,0.681433,3023.52
411,0.6831,2974.272
412,0.684767,2928.004
413,0.686433,2928.004
414,0.6881,2883.673
415,0.689767,2843.663
416,0.691433,2800.971
417,0.6931,2800.971
418,0.694767,2760.44
419,0.696433,2719.611
420,0.6981000000000001,2677.515
421,0.699767,2677.515
422,0.701433,2637.356
423,0.7031500000000001,2596.304
424,0.704767,2560.765
425,0.706433,2560.765
426,0.7081,2529.696
427,0.709767,2498.254
428,0.711433,2498.254
429,0.7131,2467.036
430,0.714767,2430.901
431,0.716433,2395.064
432,0.718117,2395.064
433,0.719767,2362.207
434,0.721433,2330.989
435,0.7231,2302.974
436,0.7247670000000001,2302.974
437,0.726433,2274.439
438,0.7281,2246.052
439,0.7297670000000001,2219.156
440,0.731433,2219.156
441,0.7331,2194.122
442,0.734833,2168.938
443,0.736433,2148.077
444,0.7381,2148.077
445,0.73975,2127.96
446,0.741417,2104.193
447,0.743083,2104.193
448,0.74475,2081.841
449,0.746417,2060.085
450,0.7480830000000001,2037.063
451,0.74975,2037.063
452,0.751483,2017.245
453,0.7531,1997.501
454,0.75475,1973.957
455,0.756417,1973.957
456,0.758083,1954.734
457,0.75975,1938.194
458,0.761417,1923.218
459,0.763083,1923.218
460,0.76475,1906.678
461,0.766417,1887.605
462,0.7681829999999999,1869.798
463,0.76975,1869.798
464,0.771417,1851.32
465,0.773083,1838.431
466,0.77475,1838.431
467,0.776417,1823.232
468,0.778083,1809.448
469,0.779767,1794.025
470,0.781417,1794.025
471,0.783083,1778.379
472,0.7847499999999999,1765.564
473,0.786417,1747.31
474,0.788083,1747.31
475,0.78975,1731.813
476,0.791417,1715.794
477,0.793083,1715.794
478,0.79475,1699.924
479,0.796417,1689.866
480,0.798083,1680.776
481,0.799733,1680.776
482,0.8014,1671.612
483,0.803067,1664.013
484,0.804733,1656.413
485,0.806383,1656.413
486,0.80805,1643.971
487,0.809717,1633.018
488,0.811383,1621.172
489,0.8130500000000001,1621.172
490,0.814717,1609.027
491,0.816383,1601.502
492,0.8180500000000001,1593.307
493,0.819717,1593.307
494,0.821383,1588.091
495,0.8230499999999999,1581.237
496,0.824717,1581.237
497,0.826383,1576.17
498,0.82805,1566.559
499,0.829717,1553.446
500,0.831383,1553.446
501,0.83305,1542.717
502,0.834717,1530.573
503,0.8364,1524.389
504,0.83805,1524.389
505,0.839717,1520.738
506,0.841383,1515.597
507,0.84305,1511.127
508,0.8447170000000001,1511.127
509,0.846383,1502.559
510,0.84805,1494.959
511,0.8497169999999999,1494.959
512,0.8514,1487.136
513,0.853117,1478.717
514,0.8547169999999999,1473.427
515,0.8564000000000001,1473.427
516,0.85805,1467.764
517,0.8597,1460.91
518,0.861367,1455.024
519,0.8630330000000001,1455.024
520,0.8647,1448.244
521,0.866367,1442.954
522,0.8680330000000001,1436.77
523,0.86975,1436.77
524,0.871367,1431.853
525,0.8730329999999999,1427.308
526,0.8747,1420.379
527,0.876367,1420.379
528,0.878033,1417.026
529,0.8797,1410.246
530,0.881367,1410.246
531,0.883033,1406.67
532,0.8847,1401.752
533,0.886483,1396.686
534,0.888033,1396.686
535,0.8897,1395.419
536,0.891367,1390.576
537,0.893033,1388.192
538,0.8947000000000001,1388.192
539,0.896367,1384.169
540,0.898033,1378.804
541,0.8997000000000001,1374.409
542,0.901367,1374.409
543,0.903033,1368.746
544,0.9046999999999999,1365.915
545,0.906367,1365.915
546,0.908033,1361.892
547,0.9097,1359.954
548,0.911367,1358.464
549,0.913033,1358.464
550,0.9147,1354.888
551,0.916367,1351.908
552,0.918033,1347.735
553,0.919683,1347.735
554,0.92135,1342.967
555,0.923017,1339.838
556,0.9247,1336.485
557,0.92635,1336.485
558,0.928033,1330.078
559,0.929683,1329.035
560,0.93135,1327.693
561,0.933017,1327.693
562,0.934683,1326.874
563,0.93635,1327.172
564,0.938017,1327.172
565,0.939683,1322.925
566,0.94135,1319.721
567,0.943017,1315.102
568,0.9446830000000001,1315.102
569,0.94635,1313.537
570,0.948017,1311.749
571,0.9496830000000001,1307.428
572,0.95135,1307.428
573,0.953017,1304.15
574,0.9546829999999999,1299.903
575,0.95635,1296.476
576,0.958017,1296.476
577,0.959683,1297.742
578,0.96135,1296.476
579,0.963017,1296.476
580,0.964683,1294.538
581,0.96635,1294.687
582,0.968017,1292.974
583,0.969683,1292.974
584,0.971367,1293.793
585,0.973017,1292.527
586,0.974683,1290.888
587,0.9763500000000001,1290.888
588,0.978017,1284.853
589,0.979667,1281.872
590,0.981333,1280.978
591,0.983,1280.978
592,0.984667,1281.351
593,0.986333,1280.159
594,0.988083,1277.328
595,0.989667,1277.328
596,0.991333,1276.284
597,0.993,1273.006
598,0.994683,1273.006
599,0.996333,1272.634
600,0.998,1269.653
601,0.999667,1267.046
602,1.001333,1267.046
603,1.003,1265.183
604,1.004767,1263.097
605,1.006333,1262.724
606,1.008,1262.724
607,1.009667,1261.681
608,1.011333,1257.36
609,1.013,1255.721
610,1.014667,1255.721
611,1.016333,1256.54
612,1.018,1254.752
613,1.019667,1254.752
614,1.021333,1257.36
615,1.023,1258.254
