"ID","sea_time","fid_signal"
1,0,1175.851
2,0.00165,1175.851
3,0.003317,1175.702
4,0.004983,1176.596
5,0.00665,1176.298
6,0.008317,1176.298
7,0.009983000000000001,1176.819
8,0.01165,1175.404
9,0.013317,1170.933
10,0.014983,1170.933
11,0.01665,1170.486
12,0.018317,1169.667
13,0.019983,1168.922
14,0.02165,1168.922
15,0.023317,1168.773
16,0.024983,1167.357
17,0.02665,1167.357
18,0.02835,1170.188
19,0.029983,1172.349
20,0.03165,1176.074
21,0.033317,1176.074
22,0.034967,1178.458
23,0.036633,1178.309
24,0.0383,1180.396
25,0.039967,1180.396
26,0.041633,1179.129
27,0.0433,1179.799
28,0.04505,1178.533
29,0.046617,1178.533
30,0.048283,1175.329
31,0.04995,1177.192
32,0.051617,1177.192
33,0.053283,1175.106
34,0.05495,1174.584
35,0.056617,1174.435
36,0.058283,1174.435
37,0.05995,1171.529
38,0.06165,1169.592
39,0.06328300000000001,1172.274
40,0.06494999999999999,1172.274
41,0.066617,1173.466
42,0.068283,1175.702
43,0.06995,1178.384
44,0.071617,1178.384
45,0.0733,1177.639
46,0.07495,1179.054
47,0.076617,1176.447
48,0.07838299999999999,1176.447
49,0.07994999999999999,1174.435
50,0.081617,1173.541
51,0.083283,1173.541
52,0.08495,1174.882
53,0.086617,1178.607
54,0.088283,1176.372
55,0.08995,1176.372
56,0.091617,1175.776
57,0.093267,1171.529
58,0.094933,1172.349
59,0.09660000000000001,1172.349
60,0.09826699999999999,1175.627
61,0.09993299999999999,1175.553
62,0.1016,1179.203
63,0.103267,1179.203
64,0.104933,1177.639
65,0.1066,1174.137
66,0.108267,1174.137
67,0.109933,1173.094
68,0.1116,1171.827
69,0.113267,1172.647
70,0.114933,1172.647
71,0.1166,1177.713
72,0.118267,1179.501
73,0.119933,1176.149
74,0.1216,1176.149
75,0.123267,1175.106
76,0.124933,1171.902
77,0.1266,1172.274
78,0.128267,1172.274
79,0.129933,1176.074
80,0.1316,1172.423
81,0.133267,1173.243
82,0.134933,1173.243
83,0.1366,1171.976
84,0.138267,1170.71
85,0.139933,1170.71
86,0.1416,1174.36
87,0.143267,1172.051
88,0.144933,1170.337
89,0.1467,1170.337
90,0.148267,1168.4
91,0.149933,1168.698
92,0.1516,1168.922
93,0.15325,1168.922
94,0.154917,1169.369
95,0.1566,1169.89
96,0.15825,1167.879
97,0.159917,1167.879
98,0.161583,1170.039
99,0.163367,1171.157
100,0.164917,1171.157
101,0.166583,1172.423
102,0.16825,1174.137
103,0.169917,1175.478
104,0.171583,1175.478
105,0.17325,1176.447
106,0.174917,1178.533
107,0.176583,1178.458
108,0.17825,1178.458
109,0.180017,1180.992
110,0.181583,1178.384
111,0.18325,1173.839
112,0.184917,1173.839
113,0.186583,1173.541
114,0.18825,1169.22
115,0.189917,1172.349
116,0.191583,1172.349
117,0.19325,1175.404
118,0.194917,1173.541
119,0.196683,1173.541
120,0.19825,1173.392
121,0.199917,1169.816
122,0.201583,1169.22
123,0.20325,1169.22
124,0.204917,1168.102
125,0.206583,1170.933
126,0.20825,1177.043
127,0.209917,1177.043
128,0.211583,1176.521
129,0.213233,1179.576
130,0.2149,1179.129
131,0.216567,1179.129
132,0.218233,1175.702
133,0.219933,1175.851
134,0.221567,1175.851
135,0.223233,1174.435
136,0.2249,1171.529
137,0.226567,1172.572
138,0.228233,1172.572
139,0.2299,1172.721
140,0.231567,1172.349
141,0.233233,1173.243
142,0.2349,1173.243
143,0.236583,1170.114
144,0.238233,1168.624
145,0.2399,1169.071
146,0.241567,1169.071
147,0.243233,1169.294
148,0.2449,1172.647
149,0.246567,1172.647
150,0.248233,1173.466
151,0.2499,1176.968
152,0.251567,1177.564
153,0.253233,1177.564
154,0.2549,1178.309
155,0.256567,1177.415
156,0.258233,1175.106
157,0.2599,1175.106
158,0.261567,1174.286
159,0.263233,1169.741
160,0.2649,1170.263
161,0.266567,1170.263
162,0.268233,1166.463
163,0.2699,1167.357
164,0.271567,1171.38
165,0.273233,1171.38
166,0.274883,1172.572
167,0.27655,1176.074
168,0.278217,1176.074
169,0.279883,1177.862
170,0.28165,1176.074
171,0.283217,1176.67
172,0.284883,1176.67
173,0.28655,1178.011
174,0.288267,1176.372
175,0.289883,1174.957
176,0.29155,1174.957
177,0.293217,1173.019
178,0.294883,1171.231
179,0.29655,1170.859
180,0.298267,1170.859
181,0.299883,1174.36
182,0.30155,1173.466
183,0.303217,1173.466
184,0.304883,1172.2
185,0.30655,1172.423
186,0.308217,1171.976
187,0.309883,1171.976
188,0.31155,1173.69
189,0.313217,1177.341
190,0.314933,1177.788
191,0.31655,1177.788
192,0.318217,1175.18
193,0.319883,1173.69
194,0.32155,1171.38
195,0.323217,1171.38
196,0.3249,1169.443
197,0.32655,1169.071
198,0.328217,1172.498
199,0.329883,1172.498
200,0.33155,1173.317
201,0.333217,1174.882
202,0.334867,1174.882
203,0.336533,1177.192
204,0.338183,1175.702
205,0.33985,1177.341
206,0.341517,1177.341
207,0.343183,1175.776
208,0.34485,1172.051
209,0.346517,1172.125
210,0.348183,1172.125
211,0.34985,1169.294
212,0.351517,1167.506
213,0.353183,1170.784
214,0.35485,1170.784
215,0.356517,1169.518
216,0.358183,1170.71
217,0.359867,1170.71
218,0.361517,1172.945
219,0.363183,1173.988
220,0.36485,1176.447
221,0.366517,1176.447
222,0.368183,1177.937
223,0.36985,1179.948
224,0.371517,1178.682
225,0.373183,1178.682
226,0.37485,1178.011
227,0.376517,1175.478
228,0.378183,1174.584
229,0.37985,1174.584
230,0.381517,1177.341
231,0.383183,1179.874
232,0.384867,1182.482
233,0.386517,1182.482
234,0.388183,1183.45
235,0.38985,1183.823
236,0.391517,1183.823
237,0.393167,1184.27
238,0.394833,1190.081
239,0.3965,1202.673
240,0.398167,1202.673
241,0.3999,1226.291
242,0.4015,1269.728
243,0.403167,1344.606
244,0.404833,1344.606
245,0.406517,1463.965
246,0.408167,1649.931
247,0.409833,1925.453
248,0.4115,1925.453
249,0.413167,2319.217
250,0.414833,2863.109
251,0.416533,2863.109
252,0.418167,3589.466
253,0.419833,4524.514
254,0.4215,5686.283
255,0.423167,5686.283
256,0.424833,7084.906
257,0.4265,8716.807000000001
258,0.428167,10571.107
259,0.429833,10571.107
260,0.4315,12620.538
261,0.433283,14833.808
262,0.434833,17165.094
263,0.4365,17165.094
264,0.438167,19561.35
265,0.439833,21964.834
266,0.4415,21964.834
267,0.443167,24314.82
268,0.444833,26548.729
269,0.4465,28613.434
270,0.448167,28613.434
271,0.449833,30459.24
272,0.4515,32045.768
273,0.45315,33348.352
274,0.454817,33348.352
275,0.456483,34352.539
276,0.45815,35063.773
277,0.459817,35496.801
278,0.461483,35496.801
279,0.46315,35669.73
280,0.464817,35608.262
281,0.466483,35342.352
282,0.46815,35342.352
283,0.469817,34903.512
284,0.471483,34319.164
285,0.47315,34319.164
286,0.474817,33622.758
287,0.476483,32841.637
288,0.47815,31997.189
289,0.479817,31997.189
290,0.481483,31116.754
291,0.48315,30212.328
292,0.484817,29300.525
293,0.486483,29300.525
294,0.48815,28389.469
295,0.489833,27488.246
296,0.491483,26606.918
297,0.49315,26606.918
298,0.494817,25746.523
299,0.496483,24915.039
300,0.49815,24915.039
301,0.499817,24113.133
302,0.501483,23344.383
303,0.50315,22604.465
304,0.504833,22604.465
305,0.506483,21893.83
306,0.50815,21214.113
307,0.509817,20564.049
308,0.511467,20564.049
309,0.513133,19943.715
310,0.5148,19351.691
311,0.516467,18787.682
312,0.51815,18787.682
313,0.5198,18248.037
314,0.521467,17738.641
315,0.523133,17253.607
316,0.5248,17253.607
317,0.526467,16789.586
318,0.528133,16345.456
319,0.5298,16345.456
320,0.531467,15920.997
321,0.533133,15515.983
322,0.5348000000000001,15129.894
323,0.536467,15129.894
324,0.538133,14761.165
325,0.5397999999999999,14404.431
326,0.541467,14065.057
327,0.543133,14065.057
328,0.5448,13740.733
329,0.546467,13433.024
330,0.548133,13141.11
331,0.5498,13141.11
332,0.551583,12861.49
333,0.553133,12592.301
334,0.5548,12592.301
335,0.556467,12327.135
336,0.558133,12074.56
337,0.5598,11829.287
338,0.561467,11829.287
339,0.563133,11592.954
340,0.5648,11369.884
341,0.5664670000000001,11150.018
342,0.568133,11150.018
343,0.5698,10940.656
344,0.5714669999999999,10738.521
345,0.573117,10546.371
346,0.574783,10546.371
347,0.57645,10357.797
348,0.578117,10174.215
349,0.579817,9997.263999999999
350,0.58145,9997.263999999999
351,0.583133,9824.634
352,0.5847830000000001,9662.137000000001
353,0.58645,9662.137000000001
354,0.588117,9501.129000000001
355,0.5897829999999999,9350.031000000001
356,0.59145,9201.243
357,0.593117,9201.243
358,0.594783,9055.436
359,0.59645,8920.654
360,0.598117,8785.352999999999
361,0.599783,8785.352999999999
362,0.60145,8652.583000000001
363,0.603117,8525.178
364,0.604783,8397.475
365,0.60645,8397.475
366,0.608117,8275.807000000001
367,0.609783,8159.354
368,0.61145,8159.354
369,0.613133,8046.627
370,0.614783,7937.401
371,0.6164500000000001,7829.592
372,0.618117,7829.592
373,0.619783,7725.433
374,0.6214499999999999,7624.924
375,0.623117,7529.184
376,0.624783,7529.184
377,0.62645,7430.762
378,0.6281,7333.904
379,0.629767,7241.89
380,0.631417,7241.89
381,0.633083,7149.95
382,0.63475,7063.896
383,0.636467,6983.206
384,0.638083,6983.206
385,0.63975,6901.175
386,0.641417,6819.367
387,0.643083,6819.367
388,0.64475,6738.901
389,0.646417,6659.254
390,0.648083,6581.023
391,0.64975,6581.023
392,0.651417,6508.082
393,0.6531670000000001,6437.451
394,0.6547500000000001,6369.948
395,0.656417,6369.948
396,0.658083,6298.795
397,0.6597499999999999,6228.462
398,0.661417,6159.693
399,0.663083,6159.693
400,0.66475,6091.147
401,0.666417,6031.692
402,0.668083,6031.692
403,0.669867,5971.193
404,0.671417,5913.228
405,0.673083,5854.964
406,0.67475,5854.964
407,0.676417,5798.191
408,0.678083,5744.025
409,0.67975,5687.55
410,0.6814170000000001,5687.55
411,0.683083,5632.564
412,0.68475,5576.685
413,0.6864170000000001,5524.009
414,0.688083,5524.009
415,0.68975,5473.42
416,0.6914169999999999,5423.203
417,0.693067,5423.203
418,0.694733,5375.743
419,0.6964,5328.432
420,0.698067,5282.015
421,0.699733,5282.015
422,0.7014,5234.927
423,0.703067,5189.18
424,0.7047330000000001,5141.869
425,0.7064,5141.869
426,0.708067,5097.985
427,0.7097329999999999,5055.368
428,0.7114,5011.037
429,0.713067,5011.037
430,0.714733,4966.631
431,0.7164,4923.567
432,0.718067,4885.42
433,0.719733,4885.42
434,0.7214,4848.167
435,0.7231,4809.052
436,0.724733,4809.052
437,0.7264,4770.011
438,0.728067,4729.033
439,0.729733,4691.333
440,0.7314000000000001,4691.333
441,0.733067,4655.346
442,0.734733,4617.87
443,0.7364000000000001,4581.884
444,0.738067,4581.884
445,0.739733,4544.407
446,0.7413999999999999,4514.083
447,0.743067,4480.63
448,0.744733,4480.63
449,0.7464,4446.506
450,0.748067,4413.724
451,0.749733,4413.724
452,0.7514,4376.024
453,0.75305,4347.786
454,0.7548,4320.815
455,0.756383,4320.815
456,0.75805,4290.268
457,0.759717,4262.775
458,0.761383,4230.663
459,0.76305,4230.663
460,0.764717,4199.967
461,0.766383,4171.059
462,0.76805,4141.107
463,0.769717,4141.107
464,0.771383,4111.379
465,0.77305,4081.502
466,0.774717,4055.053
467,0.776383,4055.053
468,0.77805,4030.168
469,0.779717,4005.73
470,0.781383,4005.73
471,0.78305,3978.759
472,0.784717,3950.223
473,0.7863830000000001,3919.899
474,0.788167,3919.899
475,0.789717,3891.215
476,0.7913829999999999,3863.424
477,0.79305,3836.751
478,0.794717,3836.751
479,0.796383,3812.537
480,0.79805,3788.844
481,0.799733,3768.206
482,0.801383,3768.206
483,0.80305,3746.301
484,0.804717,3726.035
485,0.806383,3726.035
486,0.80805,3702.641
487,0.809717,3677.085
488,0.8113669999999999,3653.541
489,0.813033,3653.541
490,0.8147,3630.966
491,0.816367,3610.626
492,0.818033,3590.584
493,0.8197,3590.584
494,0.821367,3569.201
495,0.823033,3544.837
496,0.8247,3524.199
497,0.826367,3524.199
498,0.828033,3505.498
499,0.8297,3484.189
500,0.831367,3484.189
501,0.833033,3464.893
502,0.8347,3444.031
503,0.836367,3420.562
504,0.838033,3420.562
505,0.8397,3401.935
506,0.841367,3383.011
507,0.843033,3364.906
508,0.8447,3364.906
509,0.846367,3345.609
510,0.848033,3325.418
511,0.8497,3305.525
512,0.851367,3305.525
513,0.853033,3282.8
514,0.8547,3262.535
515,0.856367,3244.281
516,0.858033,3244.281
517,0.8597,3224.388
518,0.861367,3208.667
519,0.8630330000000001,3208.667
520,0.864717,3191.605
521,0.866367,3173.798
522,0.8680330000000001,3159.046
523,0.8697,3159.046
524,0.871367,3140.42
525,0.8730830000000001,3124.177
526,0.874683,3105.774
527,0.87635,3105.774
528,0.878017,3088.489
529,0.879683,3072.619
530,0.88135,3058.314
531,0.8830170000000001,3058.314
532,0.884683,3042.221
533,0.88635,3027.469
534,0.8880169999999999,3027.469
535,0.889733,3014.505
536,0.89135,2996.996
537,0.8930169999999999,2981.201
538,0.894683,2981.201
539,0.89635,2964.586
540,0.898017,2946.109
541,0.899683,2933.219
542,0.90135,2933.219
543,0.903017,2918.392
544,0.904683,2903.193
545,0.906417,2887.175
546,0.908017,2887.175
547,0.909683,2870.56
548,0.91135,2859.235
549,0.913017,2842.844
550,0.914683,2842.844
551,0.91635,2828.985
552,0.918017,2813.935
553,0.919667,2813.935
554,0.921333,2798.662
555,0.923,2788.603
556,0.924667,2774.969
557,0.926333,2774.969
558,0.928,2763.942
559,0.929667,2748.147
560,0.931333,2733.246
561,0.932983,2733.246
562,0.934683,2721.176
563,0.936317,2706.647
564,0.937983,2695.471
565,0.93965,2695.471
566,0.941317,2681.986
567,0.942983,2669.245
568,0.94465,2669.245
569,0.946317,2656.952
570,0.947983,2644.882
571,0.94965,2631.47
572,0.951317,2631.47
573,0.952983,2619.55
574,0.95465,2608.374
575,0.956317,2597.719
576,0.957983,2597.719
577,0.95965,2586.842
578,0.961317,2573.952
579,0.963,2561.063
580,0.96465,2561.063
581,0.966317,2547.949
582,0.967983,2535.433
583,0.96965,2524.406
584,0.971317,2524.406
585,0.972983,2512.187
586,0.97465,2499.074
587,0.976317,2499.074
588,0.977983,2486.259
589,0.97965,2475.455
590,0.981317,2464.727
591,0.9829830000000001,2464.727
592,0.98465,2455.19
593,0.986317,2444.908
594,0.9879829999999999,2431.795
595,0.98965,2431.795
596,0.991383,2420.47
597,0.992967,2410.039
598,0.994633,2402.812
599,0.9963,2402.812
600,0.997967,2393.275
601,0.999633,2385.452
602,1.0013,2385.452
603,1.003017,2375.096
604,1.004633,2362.952
605,1.0063,2353.34
606,1.0081,2353.34
607,1.009633,2342.835
608,1.0113,2333.373
609,1.012967,2326.295
610,1.014633,2326.295
611,1.0163,2317.727
612,1.017967,2309.904
613,1.019633,2300.59
614,1.0213,2300.59
615,1.022967,2287.775
616,1.024733,2278.164
617,1.0263,2278.164
618,1.027967,2271.31
619,1.029633,2264.455
620,1.0313,2256.706
621,1.032967,2256.706
622,1.034633,2247.617
623,1.0363,2232.194
624,1.037967,2221.465
625,1.039633,2221.465
626,1.041317,2212.003
627,1.042967,2202.839
628,1.044633,2196.506
629,1.0463,2196.506
630,1.047967,2188.161
631,1.049633,2183.616
632,1.0513,2178.401
633,1.052967,2178.401
634,1.054617,2170.652
635,1.056283,2161.935
636,1.05795,2161.935
637,1.059617,2153.814
638,1.061283,2143.085
639,1.06295,2133.772
640,1.064617,2133.772
641,1.066283,2128.631
642,1.06795,2119.467
643,1.069617,2114.326
644,1.071283,2114.326
645,1.07295,2109.036
646,1.074617,2097.935
647,1.076283,2088.77
648,1.07795,2088.77
649,1.079617,2080.873
650,1.081283,2070.814
651,1.08295,2070.814
652,1.084617,2062.768
653,1.086283,2054.274
654,1.08795,2045.706
655,1.089617,2045.706
656,1.091283,2037.883
657,1.09295,2030.283
658,1.094617,2023.28
659,1.096283,2023.28
660,1.09795,2017.617
661,1.099617,2015.01
662,1.101283,2009.422
663,1.10295,2009.422
664,1.104617,2003.685
665,1.106283,1994.893
666,1.10795,1986.921
667,1.109633,1986.921
668,1.111267,1985.133
669,1.112933,1979.992
670,1.1146,1979.992
671,1.1163,1974.404
672,1.117933,1970.455
673,1.1196,1960.769
674,1.121267,1960.769
675,1.122933,1953.766
676,1.1246,1947.582
677,1.126317,1938.343
678,1.127933,1938.343
679,1.1296,1930.743
680,1.131267,1922.548
681,1.132933,1918.45
682,1.1346,1918.45
683,1.136267,1914.203
684,1.137933,1909.956
685,1.1396,1909.956
686,1.141267,1906.455
687,1.14305,1899.004
688,1.1446,1890.361
689,1.146267,1890.361
690,1.147933,1883.581
691,1.1496,1877.099
692,1.151267,1870.841
693,1.152933,1870.841
694,1.1546,1868.382
695,1.156267,1865.253
696,1.157933,1863.539
697,1.159717,1863.539
698,1.161267,1859.143
699,1.162933,1850.501
700,1.1646,1844.764
701,1.166267,1844.764
702,1.167933,1834.184
703,1.1696,1828.671
704,1.171267,1828.671
705,1.172917,1825.914
706,1.174583,1820.698
707,1.17625,1818.612
708,1.177917,1818.612
709,1.179583,1811.981
710,1.18125,1806.021
711,1.182917,1799.017
712,1.184583,1799.017
713,1.18625,1794.621
714,1.187917,1789.555
715,1.189583,1787.543
716,1.191267,1787.543
717,1.192917,1783.073
718,1.194583,1778.156
719,1.19625,1778.156
720,1.197917,1776.442
721,1.199583,1771.227
722,1.20125,1766.607
723,1.202917,1766.607
724,1.2046,1760.349
725,1.20625,1754.686
726,1.207917,1748.428
727,1.209583,1748.428
728,1.211233,1745.075
729,1.2129,1740.53
730,1.214567,1735.464
731,1.216233,1735.464
732,1.2179,1728.982
733,1.219567,1725.853
734,1.221233,1725.853
735,1.2229,1725.182
736,1.224567,1722.351
737,1.226233,1722.351
738,1.2279,1722.351
739,1.229567,1717.806
740,1.231233,1712.143
741,1.232883,1707.003
742,1.23455,1707.003
743,1.236217,1699.626
744,1.237883,1694.784
745,1.23955,1689.121
746,1.241217,1689.121
747,1.242883,1685.768
748,1.2446,1682.639
749,1.246217,1676.902
750,1.247883,1676.902
751,1.24955,1674.965
752,1.251217,1670.644
753,1.252883,1670.644
754,1.25455,1669.973
755,1.256217,1670.569
756,1.257883,1663.938
757,1.25955,1663.938
758,1.261267,1661.107
759,1.262883,1657.754
760,1.26455,1652.613
761,1.266217,1652.613
762,1.267883,1654.178
763,1.26955,1650.527
764,1.271217,1644.567
765,1.272883,1644.567
766,1.27455,1640.767
767,1.276217,1635.03
768,1.27795,1630.783
769,1.27955,1630.783
770,1.281217,1625.791
771,1.282883,1624.823
772,1.28455,1624.823
773,1.286217,1621.842
774,1.287883,1621.172
775,1.28955,1619.905
776,1.291233,1619.905
777,1.292867,1613.721
778,1.294533,1608.953
779,1.2962,1607.239
780,1.297867,1607.239
781,1.299533,1604.333
782,1.3012,1602.769
783,1.302867,1601.353
784,1.304533,1601.353
785,1.3062,1596.51
786,1.307867,1592.86
787,1.309533,1592.86
788,1.3112,1586.601
789,1.312867,1583.472
790,1.314533,1577.437
791,1.3162,1577.437
792,1.317867,1575.127
793,1.319533,1574.68
794,1.3212,1573.861
795,1.322867,1573.861
796,1.324533,1574.159
797,1.3262,1570.21
798,1.327867,1568.72
799,1.329533,1568.72
800,1.3312,1562.461
801,1.332867,1559.258
802,1.334533,1559.258
803,1.3362,1556.203
804,1.337867,1551.434
805,1.339533,1549.423
806,1.3412,1549.423
807,1.342867,1549.199
808,1.344533,1547.188
809,1.346217,1546.07
810,1.347867,1546.07
811,1.349533,1542.047
812,1.351183,1536.757
813,1.35285,1533.553
814,1.35455,1533.553
815,1.356233,1532.137
816,1.35785,1530.722
817,1.359517,1526.624
818,1.361183,1526.624
819,1.362867,1525.953
820,1.364517,1521.036
821,1.3662,1521.036
822,1.36785,1519.993
823,1.369517,1519.024
824,1.371183,1515.895
825,1.37285,1515.895
826,1.374517,1511.499
827,1.376183,1508.966
828,1.37785,1504.943
829,1.379533,1504.943
830,1.381183,1502.782
831,1.38285,1502.112
832,1.384517,1497.79
833,1.386183,1497.79
834,1.38785,1496.598
835,1.389517,1492.649
836,1.391183,1492.649
837,1.39285,1492.277
838,1.394517,1489.893
839,1.3963,1487.508
840,1.39785,1487.508
841,1.399517,1486.242
842,1.401183,1481.324
843,1.40285,1478.717
844,1.404517,1478.717
845,1.406183,1478.344
846,1.40785,1475.885
847,1.409517,1475.364
848,1.411167,1475.364
849,1.412833,1474.693
850,1.4145,1470.819
851,1.416167,1470.819
852,1.417833,1471.49
853,1.4195,1468.509
854,1.421167,1467.168
855,1.422833,1467.168
856,1.4245,1467.764
857,1.426167,1465.38
858,1.427833,1462.698
859,1.429533,1462.698
860,1.431167,1462.102
861,1.432833,1457.334
862,1.4345,1453.236
863,1.436167,1453.236
864,1.437833,1453.683
865,1.4395,1452.044
866,1.441167,1452.267
867,1.442833,1452.267
868,1.4445,1452.714
869,1.446167,1450.926
870,1.447833,1450.926
871,1.4495,1448.393
872,1.451167,1446.009
873,1.452833,1443.326
874,1.4545,1443.326
875,1.456167,1442.134
876,1.457833,1440.272
877,1.4595,1436.994
878,1.461167,1436.994
879,1.462833,1434.684
880,1.4645,1434.088
881,1.466167,1429.319
882,1.467833,1429.319
883,1.4695,1427.233
884,1.471167,1425.147
885,1.472817,1425.147
886,1.474483,1420.304
887,1.47615,1418.963
888,1.477817,1418.74
889,1.479483,1418.74
890,1.481183,1416.504
891,1.482817,1414.269
892,1.484483,1413.375
893,1.48615,1413.375
894,1.487817,1410.022
895,1.489483,1408.16
896,1.49115,1405.478
897,1.492817,1405.478
898,1.494483,1404.136
899,1.49615,1404.658
900,1.497867,1405.478
901,1.499483,1405.478
902,1.501167,1405.254
903,1.5028,1407.191
904,1.504467,1407.191
905,1.506133,1407.266
906,1.5078,1405.925
907,1.509467,1406.372
908,1.511133,1406.372
909,1.5128,1402.348
