"ID","sea_time","fid_signal"
1,0,140.645
2,0.001667,140.972
3,0.003333,141.054
4,0.005,141.054
5,0.006667,141.144
6,0.008333,141.002
7,0.01,141.002
8,0.011667,140.66
9,0.013333,140.086
10,0.015,139.728
11,0.01675,139.728
12,0.018333,139.669
13,0.02,139.691
14,0.021683,140.28
15,0.023333,140.28
16,0.025,140.496
17,0.026667,140.697
18,0.028333,140.667
19,0.03,140.667
20,0.031667,140.51
21,0.033333,140.257
22,0.035,140.257
23,0.036667,140.123
24,0.038333,140.421
25,0.04,140.384
26,0.041667,140.384
27,0.043333,140.734
28,0.045,140.466
29,0.046667,140.168
30,0.048317,140.168
31,0.049983,140.369
32,0.05165,140.227
33,0.053317,140.563
34,0.054983,140.563
35,0.05665,141.174
36,0.058317,141.01
37,0.059983,140.838
38,0.06165,140.838
39,0.063317,140.704
40,0.064983,140.496
41,0.06665,140.496
42,0.068317,140.682
43,0.069983,141.069
44,0.07165000000000001,141.054
45,0.07331699999999999,141.054
46,0.07498299999999999,140.861
47,0.07665,140.607
48,0.078317,140.503
49,0.079983,140.503
50,0.08165,140.615
51,0.083333,140.801
52,0.084983,140.98
53,0.08665,140.98
54,0.08831700000000001,140.689
55,0.09,140.861
56,0.09165,140.861
57,0.093317,140.913
58,0.094983,140.928
59,0.09665,141.114
60,0.098317,141.114
61,0.099983,140.771
62,0.1017,140.794
63,0.103317,140.548
64,0.104983,140.548
65,0.106633,140.563
66,0.1083,140.995
67,0.109967,141.189
68,0.111633,141.189
69,0.1133,141.65
70,0.114967,141.628
71,0.116633,141.248
72,0.1183,141.248
73,0.119967,141.077
74,0.121633,140.771
75,0.1233,140.771
76,0.124967,140.525
77,0.126633,140.525
78,0.1283,140.466
79,0.129967,140.466
80,0.131633,140.302
81,0.133317,140.578
82,0.135017,140.987
83,0.136633,140.987
84,0.1383,140.831
85,0.139967,140.89
86,0.141633,140.786
87,0.143283,140.786
88,0.14495,140.399
89,0.146617,140.399
90,0.148283,140.399
91,0.14995,140.443
92,0.151617,140.578
93,0.153283,140.876
94,0.15495,140.876
95,0.156617,140.838
96,0.158283,140.63
97,0.15995,140.503
98,0.161617,140.503
99,0.163283,140.384
100,0.164967,140.578
101,0.166617,140.682
102,0.168267,140.682
103,0.169933,140.6
104,0.1716,140.697
105,0.173267,140.697
106,0.174933,140.734
107,0.1766,141.256
108,0.178267,141.576
109,0.179933,141.576
110,0.1816,141.397
111,0.183267,141.367
112,0.184933,141.136
113,0.1866,141.136
114,0.188267,140.756
115,0.189933,140.712
116,0.1916,140.57
117,0.193267,140.57
118,0.194933,140.585
119,0.1966,140.823
120,0.198267,140.794
121,0.199933,140.794
122,0.2016,140.801
123,0.203267,140.652
124,0.204933,140.652
125,0.2066,140.689
126,0.208267,141.002
127,0.209933,140.883
128,0.2116,140.883
129,0.213267,140.883
130,0.214933,140.958
131,0.2166,140.861
132,0.218267,140.861
133,0.22,141.01
134,0.2216,141.241
135,0.223267,141.144
136,0.224933,141.144
137,0.2266,141.032
138,0.22825,141.047
139,0.229917,141.047
140,0.231617,141.01
141,0.2333,140.92
142,0.234917,141.054
143,0.236717,141.054
144,0.23825,141.054
145,0.239917,140.913
146,0.241583,140.898
147,0.24325,140.898
148,0.244917,140.779
149,0.246583,140.749
150,0.24825,141.077
151,0.249917,141.077
152,0.251583,141.345
153,0.25335,141.561
154,0.254917,141.405
155,0.256583,141.405
156,0.25825,141.092
157,0.259917,141.01
158,0.261583,141.01
159,0.26325,140.779
160,0.264917,140.943
161,0.266583,141.017
162,0.26825,141.017
163,0.269917,140.868
164,0.271583,140.876
165,0.27325,140.89
166,0.274917,140.89
167,0.276583,140.749
168,0.27825,140.928
169,0.279917,140.697
170,0.281583,140.697
171,0.28325,140.466
172,0.284917,140.361
173,0.286583,140.361
174,0.288233,139.959
175,0.2899,140.332
176,0.291567,140.347
177,0.293233,140.347
178,0.2949,140.421
179,0.296567,140.585
180,0.298233,140.19
181,0.2999,140.19
182,0.301583,140.51
183,0.303233,140.779
184,0.3049,140.801
185,0.306567,140.801
186,0.30825,141.054
187,0.3099,140.876
188,0.311567,140.674
189,0.313233,140.674
190,0.314933,140.384
191,0.316567,140.369
192,0.318233,140.369
193,0.3199,140.265
194,0.321567,140.227
195,0.323233,140.563
196,0.3249,140.563
197,0.326567,140.645
198,0.328233,141.025
199,0.3299,141.114
200,0.331567,141.114
201,0.333233,141.069
202,0.3349,141.144
203,0.336567,141.256
204,0.338267,141.256
205,0.3399,141.516
206,0.341567,141.703
207,0.343233,141.703
208,0.3449,141.874
209,0.34655,142.045
210,0.348217,142.276
211,0.349883,142.276
212,0.35155,143.044
213,0.353217,143.61
214,0.354967,143.856
215,0.35655,143.856
216,0.358217,144.377
217,0.359883,144.929
218,0.36155,145.823
219,0.363217,145.823
220,0.364883,146.97
221,0.36655,147.961
222,0.368217,147.961
223,0.369883,149.153
224,0.37155,150.301
225,0.373217,151.746
226,0.374883,151.746
227,0.37655,153.78
228,0.378217,155.516
229,0.379883,157.475
230,0.38155,157.475
231,0.383217,159.428
232,0.384883,161.208
233,0.38655,162.922
234,0.388217,162.922
235,0.389883,165.075
236,0.39155,167.176
237,0.393217,169.076
238,0.394883,169.076
239,0.39655,171.192
240,0.398217,172.868
241,0.399883,172.868
242,0.40155,174.567
243,0.403217,176.318
244,0.404883,177.935
245,0.40655,177.935
246,0.4082,179.201
247,0.409867,180.431
248,0.411533,181.437
249,0.4132,181.437
250,0.414867,181.988
251,0.416533,182.39
252,0.4182,182.636
253,0.419867,182.636
254,0.421533,182.681
255,0.4232,182.636
256,0.424867,182.636
257,0.426533,182.591
258,0.4282,182.204
259,0.429867,181.802
260,0.431533,181.802
261,0.4332,181.653
262,0.43485,181.139
263,0.436517,180.468
264,0.438183,180.468
265,0.439867,179.47
266,0.441517,178.061
267,0.443183,176.728
268,0.44485,176.728
269,0.446517,175.476
270,0.448183,174.128
271,0.44985,172.965
272,0.451517,172.965
273,0.453183,171.714
274,0.45485,170.603
275,0.456517,170.603
276,0.458183,169.776
277,0.45985,168.957
278,0.461517,168.197
279,0.463183,168.197
280,0.46485,167.169
281,0.4665,165.947
282,0.468167,164.554
283,0.469833,164.554
284,0.4715,163.376
285,0.47325,162.408
286,0.474833,161.409
287,0.4765,161.409
288,0.478167,160.158
289,0.479833,158.891
290,0.4815,158.891
291,0.483183,157.751
292,0.484833,156.939
293,0.4865,156.566
294,0.488167,156.566
295,0.489933,156.373
296,0.4915,155.926
297,0.493167,155.307
298,0.494833,155.307
299,0.4965,154.778
300,0.498167,154.227
301,0.499833,153.735
302,0.5014999999999999,153.735
303,0.503167,153.191
304,0.504833,152.58
305,0.5066000000000001,151.962
306,0.508167,151.962
307,0.509833,151.649
308,0.5115,151.366
309,0.513167,151.366
310,0.514833,150.8
311,0.5165,150.36
312,0.518167,149.637
313,0.51985,149.637
314,0.5215,149.176
315,0.523167,149.019
316,0.524833,148.483
317,0.5265,148.483
318,0.52815,148.416
319,0.529817,148.401
320,0.531483,148.468
321,0.53315,148.468
322,0.534817,148.617
323,0.536483,148.587
324,0.53815,148.587
325,0.539817,148.386
326,0.541483,148.013
327,0.54315,147.73
328,0.544817,147.73
329,0.5464830000000001,147.499
330,0.54815,147.343
331,0.549817,147.492
332,0.5514829999999999,147.492
333,0.55315,147.41
334,0.554817,146.925
335,0.5564829999999999,146.635
336,0.55815,146.635
337,0.559817,146.21
338,0.561483,146.233
339,0.563167,146.59
340,0.564817,146.59
341,0.566483,146.575
342,0.56815,146.367
343,0.569817,146.367
344,0.571483,146.136
345,0.57315,145.577
346,0.574817,145.353
347,0.576483,145.353
348,0.5781500000000001,145.458
349,0.579817,145.562
350,0.581483,145.577
351,0.5831499999999999,145.577
352,0.5848,145.502
353,0.586467,145.532
354,0.588133,145.309
355,0.5898330000000001,145.309
356,0.591533,145.13
357,0.593133,145.175
358,0.5948,145.175
359,0.596467,144.593
360,0.598133,144.176
361,0.5998,144.258
362,0.601467,144.258
363,0.603133,144.213
364,0.6048,144.385
365,0.606467,144.958
366,0.608183,144.958
367,0.6098,145.055
368,0.611467,145.122
369,0.613133,145.413
370,0.6148,145.413
371,0.616467,145.145
372,0.618133,145.167
373,0.6198,145.167
374,0.621467,145.309
375,0.623133,145.406
376,0.6249,145.197
377,0.626467,145.197
378,0.6281330000000001,144.802
379,0.6298,144.526
380,0.631467,144.34
381,0.6331329999999999,144.34
382,0.6348,144.571
383,0.636467,144.958
384,0.638133,144.936
385,0.6398,144.936
386,0.641467,144.921
387,0.643133,145.048
388,0.6448,145.219
389,0.64645,145.219
390,0.6481170000000001,145.294
391,0.649783,144.914
392,0.65145,144.914
393,0.6531169999999999,144.75
394,0.6548,144.526
395,0.65645,144.392
396,0.658117,144.392
397,0.659783,144.504
398,0.661483,144.295
399,0.663117,144.459
400,0.664783,144.459
401,0.66645,144.564
402,0.668117,144.914
403,0.669783,145.517
404,0.67145,145.517
405,0.673117,145.42
406,0.674783,145.562
407,0.67645,145.562
408,0.678117,145.465
409,0.679783,145.51
410,0.68145,145.48
411,0.683117,145.48
412,0.684783,145.473
413,0.68645,145.629
414,0.688117,145.264
415,0.689783,145.264
416,0.69145,145.584
417,0.693117,145.614
418,0.694783,145.629
419,0.69645,145.629
420,0.698117,146.076
421,0.699783,146.27
422,0.70145,146.724
423,0.703117,146.724
424,0.704783,147.015
425,0.706433,146.903
426,0.7081,146.903
427,0.709767,146.791
428,0.71145,146.687
429,0.7131,146.627
430,0.714767,146.627
431,0.716433,147.022
432,0.7181,147.216
433,0.719767,147.238
434,0.721433,147.238
435,0.7231,147.291
436,0.7247670000000001,147.335
437,0.726483,147.529
438,0.728083,147.529
439,0.729783,147.752
440,0.731417,147.916
441,0.733083,147.916
442,0.73475,147.797
443,0.736417,147.864
444,0.738083,148.401
445,0.73975,148.401
446,0.741417,148.691
447,0.743183,149.034
448,0.74475,149.153
449,0.746417,149.153
450,0.7480830000000001,149.034
451,0.74975,149.235
452,0.751417,149.235
453,0.7530829999999999,149.235
454,0.75475,149.354
455,0.756417,149.66
456,0.758083,149.66
457,0.75975,149.66
458,0.761417,150.085
459,0.763083,150.368
460,0.76475,150.368
461,0.766417,150.584
462,0.7680670000000001,151.031
463,0.769733,151.359
464,0.7714,151.359
465,0.7730669999999999,151.552
466,0.774733,151.724
467,0.7764,151.873
468,0.778067,151.873
469,0.779733,152.007
470,0.7814,152.364
471,0.783067,152.685
472,0.784733,152.685
473,0.7864,153.154
474,0.788067,153.542
475,0.789733,153.542
476,0.7914,153.936
477,0.793067,154.115
478,0.794733,154.488
479,0.796417,154.488
480,0.798067,154.823
481,0.799733,155.129
482,0.8014,155.367
483,0.803067,155.367
484,0.804733,155.576
485,0.8064,155.561
486,0.808067,155.814
487,0.809733,155.814
488,0.8114,155.97
489,0.813067,156.224
490,0.814733,156.224
491,0.8164,156.641
492,0.818067,156.924
493,0.819733,157.408
494,0.8214,157.408
495,0.823067,157.796
496,0.824733,158.183
497,0.8264,158.742
498,0.828117,158.742
499,0.829717,159.234
500,0.831383,159.256
501,0.83305,159.644
502,0.834717,159.644
503,0.836383,159.986
504,0.83805,160.292
505,0.839717,161.007
506,0.841383,161.007
507,0.84305,161.424
508,0.8447170000000001,161.961
509,0.846383,161.961
510,0.84805,162.609
511,0.8497169999999999,162.937
512,0.851383,163.272
513,0.85305,163.272
514,0.8547169999999999,163.54
515,0.856383,164.01
516,0.85805,164.635
517,0.859717,164.635
518,0.8615,165.313
519,0.86305,165.604
520,0.864717,166.059
521,0.866383,166.059
522,0.86805,166.349
523,0.869717,166.476
524,0.871383,166.476
525,0.8730830000000001,166.692
526,0.874717,166.848
527,0.876383,167.176
528,0.87805,167.176
529,0.879717,168.011
530,0.881383,168.793
531,0.88305,169.68
532,0.884717,169.68
533,0.886383,170.32
534,0.888033,170.961
535,0.8897,171.751
536,0.891367,171.751
537,0.893033,172.175
538,0.8947000000000001,172.801
539,0.896367,173.338
540,0.898033,173.338
541,0.8997000000000001,173.837
542,0.901367,174.642
543,0.903033,174.642
544,0.9046999999999999,175.342
545,0.906367,175.796
546,0.908033,176.34
547,0.9097,176.34
548,0.911367,176.542
549,0.913033,177.324
550,0.9147,178.039
551,0.916367,178.039
552,0.918033,178.941
553,0.9197,179.596
554,0.921367,179.954
555,0.923033,179.954
556,0.9247,180.341
557,0.9263670000000001,180.967
558,0.928033,180.967
559,0.9297,181.854
560,0.9313669999999999,182.405
561,0.933033,183.374
562,0.934717,183.374
563,0.9363669999999999,183.843
564,0.938033,184.387
565,0.9397,185.117
566,0.941367,185.117
567,0.943033,185.587
568,0.9447,186.257
569,0.946417,187.151
570,0.948017,187.151
571,0.9496830000000001,188.217
572,0.95135,189.006
573,0.953017,189.006
574,0.9546829999999999,189.811
575,0.95635,190.318
576,0.958017,190.988
577,0.959683,190.988
578,0.96135,191.733
579,0.963017,192.285
580,0.964683,192.977
581,0.96635,192.977
582,0.968017,193.588
583,0.969683,194.117
584,0.97135,194.855
585,0.973017,194.855
586,0.974683,195.891
587,0.9763500000000001,196.934
588,0.978017,197.858
589,0.979783,197.858
590,0.9813499999999999,198.714
591,0.983017,199.318
592,0.984683,199.318
593,0.9863499999999999,199.817
594,0.988017,200.771
595,0.989683,201.583
596,0.99135,201.583
597,0.993017,202.514
598,0.994683,203.677
599,0.99635,204.533
600,0.998017,204.533
601,0.999683,205.755
602,1.00135,206.709
603,1.003017,207.379
604,1.004683,207.379
605,1.00635,208.385
606,1.008,209.011
607,1.009667,209.011
608,1.01135,209.577
609,1.013,210.36
610,1.014667,211.164
611,1.016317,211.164
612,1.017983,211.947
613,1.01965,213.198
614,1.021317,214.376
615,1.022983,214.376
616,1.02465,214.986
617,1.026317,215.992
618,1.027983,216.506
619,1.02965,216.506
620,1.031317,217.393
621,1.032983,218.548
622,1.03465,219.531
623,1.036317,219.531
624,1.037983,220.604
625,1.03965,221.409
626,1.041317,221.409
627,1.042983,222.31
628,1.04465,223.264
629,1.046317,224.568
630,1.047983,224.568
631,1.04965,225.566
632,1.051317,226.684
633,1.052983,227.816
634,1.05465,227.816
635,1.056317,228.472
636,1.057983,229.582
637,1.05965,230.767
638,1.061333,230.767
639,1.062983,231.504
640,1.064717,232.54
641,1.0663,232.54
642,1.067967,233.382
643,1.069633,234.477
644,1.0713,236.042
645,1.072967,236.042
646,1.074633,237.368
647,1.0763,238.501
648,1.077983,239.26
649,1.079633,239.26
650,1.0813,239.916
651,1.082967,241.175
652,1.084633,242.181
653,1.0863,242.181
654,1.087967,243.314
655,1.089633,244.409
656,1.0913,245.325
657,1.092967,245.325
658,1.094633,246.54
659,1.0963,247.434
660,1.098067,247.434
661,1.099633,248.581
662,1.1013,249.55
663,1.102967,250.593
664,1.104633,250.593
665,1.1063,252.053
666,1.107967,253.215
667,1.109633,254.37
668,1.1113,254.37
669,1.112967,255.339
670,1.11465,256.218
671,1.1163,257.142
672,1.117967,257.142
673,1.119633,258.192
674,1.1213,259.377
675,1.122967,259.377
676,1.124633,260.726
677,1.126283,262.111
678,1.12795,263.214
679,1.129617,263.214
680,1.131283,264.317
681,1.13295,265.352
682,1.134617,266.589
683,1.136283,266.589
684,1.13795,267.603
685,1.139617,268.832
686,1.141283,270.113
687,1.14295,270.113
688,1.144617,270.955
689,1.146283,272.073
690,1.14795,272.073
691,1.14965,272.952
692,1.151283,273.973
693,1.15295,275.366
694,1.154617,275.366
695,1.156283,277.013
696,1.15795,278.898
697,1.159617,280.164
698,1.161283,280.164
699,1.16295,281.259
700,1.164617,281.908
701,1.166283,282.504
702,1.16795,282.504
703,1.169617,283.45
704,1.171283,284.731
705,1.17295,286.199
706,1.174617,286.199
707,1.176283,287.615
708,1.17795,288.792
709,1.179617,288.792
710,1.181283,289.544
711,1.182983,290.707
712,1.184617,291.772
713,1.186267,291.772
714,1.187933,293.121
715,1.1896,294.514
716,1.191267,295.728
717,1.192933,295.728
718,1.1946,296.764
719,1.196267,297.733
720,1.197933,298.873
721,1.1996,298.873
722,1.201267,300.132
723,1.202933,301.875
724,1.2046,301.875
725,1.206267,303.484
726,1.207933,304.975
727,1.2096,305.884
728,1.211267,305.884
729,1.212933,306.807
730,1.2146,307.94
731,1.216367,309.192
732,1.217933,309.192
733,1.2196,310.622
734,1.221267,311.762
735,1.222933,312.768
736,1.2246,312.768
737,1.226267,313.55
738,1.227933,314.72
739,1.229617,316.016
740,1.231267,316.016
741,1.233,317.618
742,1.2346,319.421
743,1.236267,319.421
744,1.237933,321.008
745,1.2396,322.334
746,1.241267,323.579
747,1.242933,323.579
748,1.2446,324.488
749,1.24625,325.538
750,1.247917,326.768
751,1.249583,326.768
752,1.25125,327.721
753,1.252917,328.876
754,1.254583,329.986
755,1.25625,329.986
756,1.257917,331.327
757,1.259583,332.683
758,1.26125,332.683
759,1.262917,334.144
760,1.264583,335.41
761,1.26625,336.587
762,1.267917,336.587
763,1.269583,337.705
764,1.27125,338.778
765,1.272917,339.94
766,1.274583,339.94
767,1.27625,341.378
768,1.277917,342.935
769,1.279583,344.284
770,1.28125,344.284
771,1.282917,345.632
772,1.284583,346.601
773,1.28625,347.368
774,1.287917,347.368
775,1.289583,348.523
776,1.29125,349.581
777,1.292917,349.581
778,1.294583,350.974
779,1.29625,352.792
780,1.297917,354.163
781,1.2996,354.163
782,1.301317,355.609
783,1.302917,357.084
784,1.304583,358.291
785,1.306233,358.291
786,1.307883,359.826
787,1.30955,361.159
788,1.311217,362.255
789,1.312883,362.255
790,1.31455,363.268
791,1.316217,364.289
792,1.317967,365.6
793,1.31955,365.6
794,1.321217,366.993
795,1.322883,368.163
796,1.32455,368.163
797,1.326217,369.191
798,1.327883,370.115
799,1.32955,370.964
800,1.331217,370.964
801,1.332883,372.313
802,1.33465,373.46
803,1.336217,374.936
804,1.337883,374.936
805,1.33955,376.172
806,1.341217,377.26
807,1.342883,377.26
808,1.34455,378.773
809,1.346217,379.868
810,1.347883,381.388
811,1.34955,381.388
812,1.351333,382.654
813,1.352883,383.63
814,1.35455,385.068
815,1.356217,385.068
816,1.357883,386.357
817,1.35955,387.616
818,1.361217,389.136
819,1.362883,389.136
820,1.364533,390.053
821,1.3662,391.036
822,1.367867,392.534
823,1.369533,392.534
824,1.3712,393.704
825,1.372867,394.799
826,1.374533,394.799
827,1.3762,395.656
828,1.377883,396.14
829,1.379583,397.161
830,1.3812,397.161
831,1.382867,398.926
832,1.384533,400.32
833,1.3862,401.519
834,1.387867,401.519
835,1.389533,402.495
836,1.3912,403.173
837,1.392867,404.336
838,1.394533,404.336
839,1.3962,405.721
840,1.397867,406.764
841,1.399533,406.764
842,1.4012,407.882
843,1.402867,408.97
844,1.404533,410.229
845,1.4062,410.229
846,1.407867,411.287
847,1.409533,412.196
848,1.4112,413.097
849,1.412867,413.097
850,1.414533,413.85
851,1.4162,415.131
852,1.417867,416.212
853,1.419533,416.212
854,1.4212,417.307
855,1.422867,418.223
856,1.424533,419.207
857,1.426183,419.207
858,1.42785,420.399
859,1.429517,421.576
860,1.431183,421.576
861,1.43285,422.768
862,1.434517,423.707
863,1.43625,424.765
864,1.43785,424.765
865,1.439517,425.696
866,1.441183,426.553
867,1.44285,427.38
868,1.444517,427.38
869,1.446183,428.267
870,1.44785,429.176
871,1.44955,430.003
872,1.45125,430.003
873,1.452883,431.135
874,1.454517,431.992
875,1.456183,431.992
876,1.45785,432.961
877,1.459517,434.145
878,1.461183,434.913
879,1.46285,434.913
880,1.464517,435.613
881,1.466183,436.112
882,1.46785,436.895
883,1.469617,436.895
884,1.471183,437.714
885,1.47285,438.586
886,1.474517,439.607
887,1.476183,439.607
888,1.47785,440.426
889,1.479517,441.134
890,1.481183,441.7
891,1.48285,441.7
892,1.484517,442.348
893,1.486167,443.198
894,1.487833,443.198
895,1.4895,444.151
896,1.491167,445.113
897,1.492833,445.91
898,1.4945,445.91
899,1.496167,446.387
900,1.497833,447.392
901,1.4995,448.093
902,1.501167,448.093
903,1.502833,448.786
904,1.5045,449.747
905,1.506167,450.03
906,1.507833,450.03
907,1.5095,450.961
908,1.511167,451.729
909,1.512833,451.729
910,1.5145,452.213
911,1.516167,452.876
912,1.517867,453.413
913,1.5195,453.413
914,1.521167,453.934
915,1.522833,454.426
916,1.5245,455.186
917,1.526167,455.186
918,1.527833,455.678
919,1.5295,456.341
920,1.531167,456.937
921,1.532833,456.937
922,1.5345,457.697
923,1.536167,458.449
924,1.537833,458.449
925,1.5395,459.12
926,1.541167,459.686
927,1.542833,460.342
928,1.5445,460.342
929,1.54615,460.856
930,1.547817,461.288
931,1.549483,461.891
932,1.55115,461.891
933,1.552817,462.055
934,1.554517,462.405
935,1.55615,462.979
936,1.557817,462.979
937,1.559483,463.635
938,1.56115,464.141
939,1.562817,464.641
940,1.564483,464.641
941,1.56615,465.095
942,1.567817,465.453
943,1.569483,465.453
944,1.57115,465.952
945,1.572817,466.362
946,1.574483,466.57
947,1.57615,466.57
948,1.577817,467.017
949,1.579483,467.718
950,1.58115,468.254
951,1.582817,468.254
952,1.584483,468.604
953,1.58615,468.962
954,1.587917,469.059
955,1.589483,469.059
956,1.59115,469.387
957,1.592817,470.02
958,1.594483,470.02
959,1.596183,470.571
960,1.597817,471.003
961,1.599467,471.443
962,1.601133,471.443
963,1.6028,471.763
964,1.604467,472.203
965,1.606117,472.575
966,1.607783,472.575
