"ID","sea_time","fid_signal"
1,0,141.524
2,0.001667,141.68
3,0.003333,141.68
4,0.004983,141.74
5,0.00665,141.941
6,0.008317,141.509
7,0.009983000000000001,141.509
8,0.01165,140.92
9,0.013317,140.771
10,0.015,140.771
11,0.01665,140.421
12,0.018317,140.786
13,0.019983,141.151
14,0.02165,141.151
15,0.023317,141.211
16,0.024983,141.338
17,0.02665,141.419
18,0.028317,141.419
19,0.029983,141.397
20,0.031683,141.338
21,0.033317,141.546
22,0.034967,141.546
23,0.036633,141.3
24,0.0383,141.33
25,0.039967,141.33
26,0.041633,141.68
27,0.0433,141.323
28,0.044967,141.174
29,0.046633,141.174
30,0.0483,141.084
31,0.049967,140.861
32,0.051633,141.338
33,0.0533,141.338
34,0.054967,141.68
35,0.056633,141.673
36,0.0583,141.464
37,0.059967,141.464
38,0.061633,141.33
39,0.06328300000000001,141.099
40,0.065067,141.136
41,0.066617,141.136
42,0.068283,141.457
43,0.06995,141.308
44,0.071617,141.308
45,0.073283,141.203
46,0.07495,141.203
47,0.076617,141.166
48,0.07828300000000001,141.166
49,0.07994999999999999,141.189
50,0.081617,141.352
51,0.083283,141.568
52,0.08495,141.568
53,0.086617,141.464
54,0.088283,141.427
55,0.08995,141.397
56,0.091617,141.397
57,0.093283,141.352
58,0.09495000000000001,141.643
59,0.09661699999999999,141.643
60,0.098283,141.725
61,0.09995,142.023
62,0.101617,142.276
63,0.1033,142.276
64,0.10495,142.239
65,0.106633,142.545
66,0.108283,142.075
67,0.10995,142.075
68,0.111617,141.494
69,0.113283,141.256
70,0.11495,141.166
71,0.116617,141.166
72,0.118283,141.226
73,0.11995,141.256
74,0.121617,141.256
75,0.123267,141.218
76,0.124933,141.263
77,0.1266,141.174
78,0.128267,141.174
79,0.129933,141.308
80,0.1316,141.554
81,0.133267,141.405
82,0.134933,141.405
83,0.1366,141.621
84,0.138267,141.971
85,0.139933,141.74
86,0.1416,141.74
87,0.143267,141.531
88,0.144933,141.673
89,0.1466,141.338
90,0.148267,141.338
91,0.149983,141.27
92,0.1516,141.338
93,0.153267,141.338
94,0.154933,141.092
95,0.1566,141.166
96,0.158267,141.189
97,0.159933,141.189
98,0.1616,141.136
99,0.163267,141.174
100,0.164933,141.062
101,0.166617,141.062
102,0.168267,141.33
103,0.169933,141.36
104,0.1716,141.449
105,0.173267,141.449
106,0.174933,141.591
107,0.1766,141.345
108,0.178267,141.345
109,0.179933,141.487
110,0.1816,141.375
111,0.183383,141.114
112,0.184917,141.114
113,0.186583,141.121
114,0.18825,141.047
115,0.189917,141.054
116,0.191583,141.054
117,0.19325,141.151
118,0.194917,141.174
119,0.196583,141.054
120,0.19825,141.054
121,0.199917,140.965
122,0.201583,141.084
123,0.20325,141.144
124,0.204917,141.144
125,0.206583,141.367
126,0.20825,141.621
127,0.209917,141.621
128,0.211583,141.822
129,0.21325,142.001
130,0.214917,142.15
131,0.216583,142.15
132,0.21825,142.038
133,0.219917,141.74
134,0.221583,141.293
135,0.223267,141.293
136,0.224917,140.831
137,0.226583,140.794
138,0.22825,140.853
139,0.229917,140.853
140,0.231583,141.062
141,0.23325,141.077
142,0.234917,141.077
143,0.236583,141.077
144,0.23825,141.256
145,0.239917,141.546
146,0.241583,141.546
147,0.24325,141.65
148,0.2449,141.621
149,0.246567,141.367
150,0.248267,141.367
151,0.2499,140.898
152,0.2516,140.935
153,0.253233,141.218
154,0.2549,141.218
155,0.256567,141.531
156,0.258233,141.621
157,0.2599,141.621
158,0.261567,141.814
159,0.263233,141.799
160,0.2649,141.68
161,0.266567,141.68
162,0.268283,141.844
163,0.2699,141.688
164,0.271567,141.717
165,0.273233,141.717
166,0.2749,141.829
167,0.276567,142.053
168,0.278233,141.874
169,0.2799,141.874
170,0.281567,141.524
171,0.283233,141.442
172,0.284967,141.375
173,0.286567,141.375
174,0.288233,141.583
175,0.2899,141.613
176,0.291567,141.613
177,0.293233,141.531
178,0.2949,141.367
179,0.296567,141.181
180,0.298233,141.181
181,0.2999,141.479
182,0.301683,141.36
183,0.303217,141.233
184,0.304883,141.233
185,0.30655,141.494
186,0.308217,141.323
187,0.309883,141.412
188,0.31155,141.412
189,0.313217,141.524
190,0.314883,141.36
191,0.31655,141.36
192,0.318217,141.226
193,0.319883,141.002
194,0.32155,140.823
195,0.323217,140.823
196,0.324883,140.816
197,0.326583,140.943
198,0.3282,141.181
199,0.329867,141.181
200,0.331533,141.256
201,0.3332,141.338
202,0.334867,141.636
203,0.336533,141.636
204,0.3382,141.755
205,0.339867,142.068
206,0.341533,142.679
207,0.3432,142.679
208,0.344867,142.522
209,0.346533,142.835
210,0.3482,142.835
211,0.349867,143.252
212,0.351533,143.416
213,0.3532,143.901
214,0.354867,143.901
215,0.356533,144.362
216,0.3582,145.07
217,0.359867,145.845
218,0.361533,145.845
219,0.363183,147.06
220,0.36485,148.505
221,0.366517,149.697
222,0.368183,149.697
223,0.36985,151.068
224,0.371517,152.521
225,0.373183,152.521
226,0.37485,153.944
227,0.376517,155.725
228,0.378183,157.677
229,0.37985,157.677
230,0.381517,159.793
231,0.383183,162.147
232,0.38485,164.3
233,0.38655,164.3
234,0.388183,166.371
235,0.38985,168.294
236,0.391517,169.948
237,0.393183,169.948
238,0.39485,172.056
239,0.396517,174.217
240,0.398217,176.497
241,0.39985,176.497
242,0.401567,178.598
243,0.40325,180.252
244,0.40485,180.252
245,0.406517,181.675
246,0.408183,182.912
247,0.40985,184.111
248,0.411517,184.111
249,0.413183,184.998
250,0.41485,185.825
251,0.416517,186.294
252,0.418183,186.294
253,0.41995,186.838
254,0.421517,186.987
255,0.423183,186.794
256,0.424833,186.794
257,0.4265,186.771
258,0.428167,186.071
259,0.429833,186.071
260,0.4315,185.646
261,0.433167,185.281
262,0.434833,184.38
263,0.436633,184.38
264,0.438167,183.888
265,0.439833,183.068
266,0.4415,181.846
267,0.443167,181.846
268,0.444833,180.833
269,0.4465,179.708
270,0.448167,178.434
271,0.449833,178.434
272,0.4515,177.07
273,0.453167,175.625
274,0.454833,175.625
275,0.4565,174.113
276,0.458167,172.846
277,0.459833,171.646
278,0.4615,171.646
279,0.463167,170.35
280,0.464833,169.203
281,0.4665,167.899
282,0.468167,167.899
283,0.469833,166.833
284,0.471517,166.111
285,0.473167,165.15
286,0.474833,165.15
287,0.4765,164.36
288,0.478167,163.54
289,0.479833,162.438
290,0.4815,162.438
291,0.48315,161.402
292,0.484817,160.605
293,0.486483,160.605
294,0.48815,159.927
295,0.489817,159.338
296,0.491483,159.07
297,0.49315,159.07
298,0.494817,158.288
299,0.496483,157.759
300,0.49815,157.051
301,0.499817,157.051
302,0.501483,156.112
303,0.50315,155.583
304,0.504817,154.823
305,0.506483,154.823
306,0.50815,154.518
307,0.509817,153.884
308,0.511483,153.884
309,0.51315,153.296
310,0.514817,153.095
311,0.516483,152.61
312,0.51815,152.61
313,0.519817,152.268
314,0.52155,151.91
315,0.52315,151.575
316,0.524817,151.575
317,0.526483,151.105
318,0.52815,151.165
319,0.529817,151.105
320,0.531483,151.105
321,0.53315,150.643
322,0.534817,150.673
323,0.536483,150.129
324,0.5382169999999999,150.129
325,0.539817,150.017
326,0.541483,150.174
327,0.54315,150.174
328,0.544817,149.876
329,0.546467,149.876
330,0.548133,149.585
331,0.5498,149.585
332,0.551517,149.138
333,0.553133,149.153
334,0.554867,148.989
335,0.556467,148.989
336,0.558133,148.9
337,0.5598,148.803
338,0.561467,148.55
339,0.563133,148.55
340,0.5648,148.416
341,0.5664670000000001,148.371
342,0.568133,148.371
343,0.5698,147.969
344,0.5714669999999999,147.715
345,0.573133,147.529
346,0.5748,147.529
347,0.576467,147.283
348,0.578133,147.752
349,0.5798,147.693
350,0.581467,147.693
351,0.583133,148.103
352,0.5848,148.252
353,0.586467,148.073
354,0.588133,148.073
355,0.5898,148.229
356,0.591467,148.028
357,0.593133,148.103
358,0.5948,148.103
359,0.596467,148.147
360,0.598133,148.222
361,0.5998,148.222
362,0.601467,148.199
363,0.603117,148.073
364,0.604783,148.125
365,0.60645,148.125
366,0.608117,148.229
367,0.609783,148.08
368,0.61145,148.222
369,0.613117,148.222
370,0.614783,148.036
371,0.616467,148.259
372,0.6181,148.766
373,0.619767,148.766
374,0.621433,148.952
375,0.6231,149.518
376,0.624767,149.518
377,0.626433,149.414
378,0.6281,149.116
379,0.629767,149.295
380,0.631433,149.295
381,0.6331,149.228
382,0.634767,149.399
383,0.636433,149.548
384,0.6381,149.548
385,0.639783,149.503
386,0.641433,149.392
387,0.6431,149.541
388,0.644767,149.541
389,0.646433,149.906
390,0.6481,150.397
391,0.649767,150.397
392,0.651433,150.934
393,0.6531,151.254
394,0.654767,151.627
395,0.656517,151.627
396,0.6581,151.694
397,0.659767,151.776
398,0.661433,152.111
399,0.6631,152.111
400,0.66475,152.379
401,0.666417,152.834
402,0.668083,153.258
403,0.66975,153.258
404,0.671417,153.266
405,0.6732,153.72
406,0.67475,153.877
407,0.676417,153.877
408,0.678083,154.421
409,0.67975,155.255
410,0.6814170000000001,155.255
411,0.683083,155.278
412,0.68475,155.449
413,0.6864170000000001,155.792
414,0.688083,155.792
415,0.68975,156.373
416,0.6914169999999999,157.364
417,0.693083,158.153
418,0.69475,158.153
419,0.696417,158.504
420,0.698083,158.623
421,0.69975,158.928
422,0.701417,158.928
423,0.703083,159.703
424,0.70475,160.605
425,0.706417,160.605
426,0.708083,161.484
427,0.70975,162.043
428,0.711417,162.438
429,0.713083,162.438
430,0.71475,162.832
431,0.716417,163.235
432,0.718083,164.129
433,0.71975,164.129
434,0.721417,164.986
435,0.723083,165.701
436,0.724733,166.468
437,0.7264,166.468
438,0.728067,166.953
439,0.729733,167.698
440,0.7314000000000001,168.696
441,0.733067,168.696
442,0.734733,169.359
443,0.7364000000000001,170.156
444,0.738067,170.156
445,0.739733,171.199
446,0.7413999999999999,172.108
447,0.743067,173.226
448,0.744733,173.226
449,0.7464,174.351
450,0.748067,175.23
451,0.749733,176.191
452,0.7514,176.191
453,0.753067,177.532
454,0.754733,178.613
455,0.7564,179.924
456,0.758067,179.924
457,0.759733,181.451
458,0.7614,182.42
459,0.7630670000000001,182.42
460,0.764733,183.821
461,0.7664,184.745
462,0.7680670000000001,185.899
463,0.769733,185.899
464,0.7714,187.486
465,0.7730669999999999,188.805
466,0.774767,190.452
467,0.7764,190.452
468,0.778067,191.823
469,0.779733,193.171
470,0.7814,194.572
471,0.78305,194.572
472,0.784717,196.189
473,0.786417,197.671
474,0.78805,199.258
475,0.789717,199.258
476,0.791517,201.121
477,0.79305,202.842
478,0.794717,202.842
479,0.796383,204.302
480,0.79805,205.822
481,0.799717,207.327
482,0.8014,207.327
483,0.80305,209.145
484,0.804717,211.38
485,0.806383,213.429
486,0.80805,213.429
487,0.809717,215.56
488,0.811383,217.17
489,0.8130500000000001,218.868
490,0.814717,218.868
491,0.816383,220.746
492,0.8180500000000001,222.631
493,0.819717,222.631
494,0.821383,224.747
495,0.8230499999999999,226.825
496,0.824717,229.239
497,0.826383,229.239
498,0.82805,231.519
499,0.829717,233.829
500,0.831383,236.385
501,0.833067,236.385
502,0.834717,238.627
503,0.836383,241.093
504,0.83805,243.485
505,0.839717,243.485
506,0.841383,245.772
507,0.84305,248.052
508,0.8447,248.052
509,0.846367,250.384
510,0.848033,253.096
511,0.8497,255.451
512,0.851367,255.451
513,0.853033,258.148
514,0.8547,260.718
515,0.856367,263.363
516,0.858033,263.363
517,0.8597,266.202
518,0.861367,268.765
519,0.8630330000000001,271.484
520,0.8647,271.484
521,0.866367,274.04
522,0.8680330000000001,276.662
523,0.8697,279.658
524,0.871367,279.658
525,0.8730329999999999,282.414
526,0.8747,285.074
527,0.876417,285.074
528,0.878033,288.092
529,0.8797,290.826
530,0.881367,293.754
531,0.883033,293.754
532,0.8847,296.898
533,0.886367,299.618
534,0.888033,302.635
535,0.8897,302.635
536,0.891367,305.705
537,0.893033,308.73
538,0.8947000000000001,312.284
539,0.896367,312.284
540,0.898033,315.391
541,0.8997000000000001,318.46
542,0.901367,318.46
543,0.903033,321.761
544,0.904683,324.719
545,0.90635,327.93
546,0.908017,327.93
547,0.909767,331.119
548,0.9113329999999999,333.92
549,0.913,336.885
550,0.914667,336.885
551,0.916333,340.089
552,0.918,343.33
553,0.919667,346.765
554,0.921333,346.765
555,0.923,350.14
556,0.924667,353.776
557,0.926333,357.144
558,0.928,357.144
559,0.929667,360.772
560,0.931333,364.549
561,0.9330000000000001,364.549
562,0.934667,367.694
563,0.936333,371.091
564,0.9379999999999999,374.727
565,0.939667,374.727
566,0.941333,378.333
567,0.9429999999999999,382.245
568,0.944667,386.395
569,0.946333,386.395
570,0.948,389.837
571,0.949667,393.264
572,0.951333,396.803
573,0.953,396.803
574,0.954667,400.297
575,0.956333,403.874
576,0.958,403.874
577,0.959667,407.353
578,0.961333,411.13
579,0.963,414.707
580,0.96465,414.707
581,0.966317,418.387
582,0.967983,422.321
583,0.96965,425.868
584,0.971333,425.868
585,0.972983,429.951
586,0.97465,433.758
587,0.976333,437.528
588,0.977983,437.528
589,0.97965,441.447
590,0.981317,445.142
591,0.9829830000000001,449.307
592,0.98465,449.307
593,0.986317,453.696
594,0.9879829999999999,457.734
595,0.98965,457.734
596,0.991317,461.541
597,0.9929829999999999,465.207
598,0.994717,468.746
599,0.996317,468.746
600,0.997983,472.62
601,0.99965,476.822
602,1.001317,481.002
603,1.002983,481.002
604,1.00465,485.294
605,1.006317,489.481
606,1.007983,493.444
607,1.00965,493.444
608,1.011317,497.58
609,1.012983,501.513
610,1.01465,501.513
611,1.016317,505.358
612,1.017983,509.217
613,1.01965,513.352
614,1.021317,513.352
615,1.022983,517.502
616,1.024633,521.526
617,1.0263,525.497
618,1.028083,525.497
619,1.029633,529.736
620,1.0313,533.76
621,1.032967,537.88
622,1.034633,537.88
623,1.0363,542.1559999999999
624,1.037967,545.919
625,1.039633,545.919
626,1.0413,549.756
627,1.042967,553.794
628,1.04465,558.168
629,1.04635,558.168
630,1.047967,562.266
631,1.049633,566.4299999999999
632,1.0513,570.491
633,1.052967,570.491
634,1.054633,574.417
635,1.0563,578.247
636,1.057967,582.188
637,1.059633,582.188
638,1.0613,586.2859999999999
639,1.062967,589.855
640,1.064633,593.841
641,1.0663,593.841
642,1.067967,597.574
643,1.069633,601.1799999999999
644,1.0713,601.1799999999999
645,1.072967,605.188
646,1.074633,608.742
647,1.0763,612.564
648,1.077967,612.564
649,1.079633,615.954
650,1.0813,619.2329999999999
651,1.08295,622.675
652,1.084617,622.675
653,1.086283,625.931
654,1.08795,629.596
655,1.089617,632.823
656,1.091283,632.823
657,1.09295,636.309
658,1.094617,639.759
659,1.096283,639.759
660,1.09795,643
661,1.099617,646.405
662,1.101283,649.616
663,1.10295,649.616
664,1.104617,652.879
665,1.106283,656.1799999999999
666,1.10795,659.451
667,1.109617,659.451
668,1.111283,662.5650000000001
669,1.113033,665.4109999999999
670,1.114617,668.496
671,1.116283,668.496
672,1.11795,671.208
673,1.119617,674.002
674,1.121283,676.7140000000001
675,1.12295,676.7140000000001
676,1.124617,679.016
677,1.126283,682.011
678,1.12795,682.011
679,1.129617,684.708
680,1.131283,687.376
681,1.13295,690.326
682,1.134617,690.326
683,1.136283,692.755
684,1.13795,695.147
685,1.139617,697.59
686,1.141283,697.59
687,1.14295,699.654
688,1.1446,701.748
689,1.146383,704.139
690,1.147933,704.139
691,1.1496,706.397
692,1.151267,708.833
693,1.152933,708.833
694,1.1546,711.389
695,1.156267,713.557
696,1.157933,715.896
697,1.1596,715.896
698,1.161267,717.878
699,1.162933,719.495
700,1.1646,721.097
701,1.166267,721.097
702,1.167933,722.431
703,1.1696,723.898
704,1.171267,725.582
705,1.172933,725.582
706,1.1746,727.475
707,1.176267,729.658
708,1.177933,731.751
709,1.1796,731.751
710,1.181267,733.502
711,1.182933,734.836
712,1.1846,734.836
713,1.186267,736.169
714,1.187933,737.384
715,1.1896,738.6950000000001
716,1.191267,738.6950000000001
717,1.192933,740.126
718,1.1946,741.385
719,1.196267,742.592
720,1.19795,742.592
721,1.199583,743.933
722,1.20125,745.49
723,1.2029,746.585
724,1.204567,746.585
725,1.206233,747.763
726,1.2079,748.91
727,1.209567,748.91
728,1.211233,749.804
729,1.2129,750.735
730,1.214567,751.533
731,1.216233,751.533
732,1.2179,752.501
733,1.219567,753.313
734,1.221233,754.736
735,1.2229,754.736
736,1.224567,756.167
737,1.226233,757.143
738,1.2279,758.037
739,1.229567,758.037
740,1.2313,758.559
741,1.2329,759.2809999999999
742,1.234567,759.2809999999999
743,1.236233,759.803
744,1.2379,760.6
745,1.239567,761.263
746,1.241233,761.263
747,1.2429,761.807
748,1.244567,762.5890000000001
749,1.246233,763.103
750,1.24795,763.103
751,1.249567,763.655
752,1.251233,763.833
753,1.2529,764.266
754,1.254567,764.266
755,1.256233,764.668
756,1.2579,765.0549999999999
757,1.259567,765.48
758,1.261233,765.48
759,1.262883,765.86
760,1.264683,766.099
761,1.266217,766.099
762,1.267883,766.136
763,1.26955,766.441
764,1.271217,766.3440000000001
765,1.272883,766.3440000000001
766,1.27455,766.553
767,1.276217,766.8440000000001
768,1.277883,767.015
769,1.27955,767.015
770,1.281217,767.097
771,1.282883,767.097
772,1.28455,767.3869999999999
773,1.286217,767.3869999999999
774,1.287883,767.723
775,1.28955,768.237
776,1.291217,768.237
777,1.292883,768.84
778,1.29455,768.6609999999999
779,1.296217,768.602
780,1.297883,768.602
781,1.29955,768.751
782,1.301217,768.542
783,1.302883,768.52
784,1.30455,768.52
785,1.306217,768.431
786,1.307883,768.103
787,1.30955,767.693
788,1.311217,767.693
789,1.312883,767.678
790,1.31455,767.365
791,1.316217,767.38
792,1.317883,767.38
793,1.31955,767.782
794,1.321217,767.715
795,1.3229,767.715
796,1.324533,767.954
797,1.3262,767.872
798,1.327867,767.261
799,1.329533,767.261
800,1.3312,766.799
801,1.332867,766.352
802,1.334533,765.979
803,1.3362,765.979
804,1.337867,765.86
805,1.339533,766.009
806,1.3412,765.689
807,1.342867,765.689
808,1.344533,764.929
809,1.3462,764.184
810,1.347867,764.184
811,1.349533,763.543
812,1.3512,763.379
813,1.352867,763.2670000000001
814,1.354533,763.2670000000001
815,1.3562,763.252
816,1.357867,762.984
817,1.359533,762.433
818,1.3612,762.433
819,1.362867,762.023
820,1.364533,761.591
821,1.3663,761.077
822,1.367867,761.077
823,1.369533,760.727
824,1.3712,760.3390000000001
825,1.372867,759.84
826,1.374533,759.84
827,1.3762,759.385
828,1.377867,758.663
829,1.379533,758.663
830,1.3812,758.052
831,1.38295,757.553
832,1.384517,757.091
833,1.386183,757.091
834,1.38785,756.927
835,1.389517,756.39
836,1.391183,755.735
837,1.39285,755.735
838,1.394517,755.131
839,1.396183,754.431
840,1.39785,754.1180000000001
841,1.399533,754.1180000000001
842,1.401183,753.723
843,1.40285,753.134
844,1.404517,753.134
845,1.406183,752.524
846,1.40785,751.682
847,1.409517,751.272
848,1.411183,751.272
849,1.41285,750.855
850,1.414517,750.251
851,1.416183,749.759
852,1.41785,749.759
853,1.419517,749.059
854,1.421183,748.239
855,1.42285,747.5170000000001
856,1.424517,747.5170000000001
857,1.426183,746.995
858,1.42785,746.198
859,1.429517,745.699
860,1.431183,745.699
861,1.432867,744.991
862,1.434517,743.985
863,1.436183,743.985
864,1.43785,743.21
865,1.439517,742.51
866,1.441183,741.787
867,1.442833,741.787
868,1.444517,741.4589999999999
869,1.446167,741.191
870,1.447833,740.588
871,1.4495,740.588
872,1.451167,740.0359999999999
873,1.452833,739.187
874,1.4545,738.36
875,1.456167,738.36
876,1.457833,737.6369999999999
877,1.4595,736.8099999999999
878,1.461167,736.8099999999999
879,1.462833,735.946
880,1.4645,735.141
881,1.466183,734.463
882,1.467833,734.463
883,1.4695,733.8
884,1.471167,733.398
885,1.472833,732.467
886,1.4745,732.467
887,1.476167,731.543
888,1.477833,730.8869999999999
889,1.4795,729.896
890,1.481167,729.896
891,1.482833,729.471
892,1.48455,728.905
893,1.486167,728.905
894,1.487833,728.346
895,1.4895,727.922
896,1.49115,727.184
897,1.492817,727.184
898,1.494483,726.327
899,1.49615,725.597
900,1.497817,724.8819999999999
901,1.499483,724.8819999999999
902,1.50125,723.787
903,1.502817,723.183
904,1.504467,722.423
905,1.506133,722.423
906,1.5078,721.686
907,1.509467,721.0599999999999
908,1.511133,720.061
909,1.5128,720.061
910,1.514467,718.921
911,1.516133,717.819
912,1.517883,717.819
913,1.519467,717.0069999999999
914,1.521133,716.1799999999999
915,1.5228,715.636
916,1.524467,715.636
917,1.526133,715.114
918,1.5278,714.645
919,1.529467,714.123
920,1.531133,714.123
921,1.5328,713.438
922,1.534467,712.529
923,1.53615,711.657
924,1.5378,711.657
925,1.539467,710.681
926,1.541133,709.534
927,1.542817,709.534
928,1.544467,708.789
929,1.546133,708.014
930,1.5478,707.269
931,1.549467,707.269
932,1.551133,706.6799999999999
933,1.5528,705.7190000000001
934,1.554467,704.773
935,1.556133,704.773
936,1.5578,704.035
937,1.559467,703.298
938,1.561133,702.843
939,1.5628,702.843
940,1.56445,702.4109999999999
941,1.566117,701.8150000000001
942,1.567783,701.085
943,1.56945,701.085
944,1.571117,699.699
945,1.572783,698.216
946,1.57445,698.216
