"ID","sea_time","fid_signal"
1,0,1173.615
2,0.001667,1171.827
3,0.003333,1171.827
4,0.005,1171.604
5,0.006667,1172.945
6,0.008333,1173.243
7,0.01,1173.243
8,0.011667,1173.019
9,0.013333,1172.274
10,0.015,1172.274
11,0.016667,1168.326
12,0.018333,1170.412
13,0.020083,1169.741
14,0.021667,1169.741
15,0.023333,1174.51
16,0.025,1178.458
17,0.026667,1179.427
18,0.028317,1179.427
19,0.029983,1183.376
20,0.03165,1182.035
21,0.033317,1182.705
22,0.034983,1182.705
23,0.03675,1180.545
24,0.038317,1179.278
25,0.039983,1179.278
26,0.04165,1177.937
27,0.043317,1177.415
28,0.044983,1177.937
29,0.04665,1177.937
30,0.048317,1176.149
31,0.049983,1177.192
32,0.05165,1176.521
33,0.053417,1176.521
34,0.054983,1175.106
35,0.05665,1171.455
36,0.058317,1173.168
37,0.059983,1173.168
38,0.06165,1173.392
39,0.063317,1173.243
40,0.064983,1173.243
41,0.06665,1177.266
42,0.068317,1171.976
43,0.069983,1171.529
44,0.07165000000000001,1171.529
45,0.07331699999999999,1171.827
46,0.07498299999999999,1172.2
47,0.07665,1176.447
48,0.078317,1176.447
49,0.079983,1179.799
50,0.08165,1181.662
51,0.083317,1180.097
52,0.084983,1180.097
53,0.08665,1176.372
54,0.08831700000000001,1175.329
55,0.08996700000000001,1173.988
56,0.09163300000000001,1173.988
57,0.09329999999999999,1176.372
58,0.094967,1177.862
59,0.096633,1177.862
60,0.0983,1177.341
61,0.099967,1179.874
62,0.101633,1177.639
63,0.1033,1177.639
64,0.104967,1175.627
65,0.106633,1173.765
66,0.1083,1169.518
67,0.109967,1169.518
68,0.11165,1171.306
69,0.1133,1175.925
70,0.114967,1174.733
71,0.116633,1174.733
72,0.1183,1176.67
73,0.119967,1173.913
74,0.121633,1173.913
75,0.1233,1171.753
76,0.124967,1172.349
77,0.126633,1172.721
78,0.1283,1172.721
79,0.129967,1172.2
80,0.131633,1170.71
81,0.1333,1170.412
82,0.134967,1170.412
83,0.136633,1167.432
84,0.1384,1166.761
85,0.139967,1165.047
86,0.141633,1165.047
87,0.1433,1169.89
88,0.144967,1172.572
89,0.146617,1177.117
90,0.148283,1177.117
91,0.14995,1181.066
92,0.151617,1178.831
93,0.153283,1178.831
94,0.155017,1177.713
95,0.156617,1176.67
96,0.158283,1175.553
97,0.15995,1175.553
98,0.161617,1176.819
99,0.163283,1177.49
100,0.16495,1178.086
101,0.166617,1178.086
102,0.168283,1178.533
103,0.16995,1175.776
104,0.171733,1176.372
105,0.173283,1176.372
106,0.17495,1173.466
107,0.176617,1171.753
108,0.178283,1171.753
109,0.17995,1170.561
110,0.181617,1168.027
111,0.183283,1169.145
112,0.18495,1169.145
113,0.186617,1169.667
114,0.188283,1169.965
115,0.18995,1172.498
116,0.191617,1172.498
117,0.193283,1174.36
118,0.19495,1174.063
119,0.196617,1173.094
120,0.198283,1173.094
121,0.19995,1173.168
122,0.2016,1173.839
123,0.203267,1173.839
124,0.204933,1174.733
125,0.2066,1179.427
126,0.208283,1180.023
127,0.209917,1180.023
128,0.211583,1176.223
129,0.21325,1177.713
130,0.214917,1174.584
131,0.216583,1174.584
132,0.21825,1171.753
133,0.219917,1172.796
134,0.221583,1173.988
135,0.22325,1173.988
136,0.224917,1174.659
137,0.226583,1176.447
138,0.22825,1178.309
139,0.229917,1178.309
140,0.231583,1177.117
141,0.23325,1174.212
142,0.234917,1174.212
143,0.236583,1174.659
144,0.23825,1174.212
145,0.239917,1172.572
146,0.241583,1172.572
147,0.24325,1179.501
148,0.244917,1180.619
149,0.246583,1181.066
150,0.24825,1181.066
151,0.249917,1183.376
152,0.251583,1180.843
153,0.25325,1179.129
154,0.254917,1179.129
155,0.256683,1177.266
156,0.25825,1175.553
157,0.259917,1175.553
158,0.261583,1175.329
159,0.26325,1174.51
160,0.264917,1174.212
161,0.266583,1174.212
162,0.268233,1175.925
163,0.2699,1175.776
164,0.271567,1173.615
165,0.273317,1173.615
166,0.2749,1175.18
167,0.276567,1173.019
168,0.27825,1169.592
169,0.279967,1169.592
170,0.281567,1170.188
171,0.283233,1167.133
172,0.2849,1165.941
173,0.286567,1165.941
174,0.288233,1169.741
175,0.29,1171.157
176,0.291567,1171.157
177,0.293233,1174.212
178,0.2949,1176.223
179,0.296567,1171.604
180,0.298233,1171.604
181,0.2999,1170.486
182,0.301567,1168.027
183,0.303233,1167.208
184,0.3049,1167.208
185,0.306567,1169.22
186,0.308233,1171.306
187,0.3099,1175.553
188,0.311567,1175.553
189,0.313233,1176.968
190,0.3149,1179.948
191,0.316567,1179.948
192,0.318233,1183.003
193,0.3199,1182.109
194,0.321567,1178.458
195,0.323233,1178.458
196,0.3249,1174.212
197,0.326567,1171.529
198,0.328217,1172.796
199,0.329883,1172.796
200,0.33155,1176.372
201,0.333217,1180.023
202,0.334883,1181.811
203,0.33655,1181.811
204,0.338217,1181.29
205,0.339883,1181.513
206,0.34155,1180.246
207,0.343217,1180.246
208,0.344883,1177.788
209,0.346583,1176.596
210,0.3483,1176.596
211,0.349883,1176.223
212,0.35155,1176.596
213,0.353217,1175.18
214,0.354883,1175.18
215,0.35655,1174.435
216,0.358217,1175.404
217,0.359883,1178.458
218,0.36155,1178.458
219,0.363217,1184.046
220,0.364883,1185.909
221,0.36655,1187.176
222,0.368217,1187.176
223,0.369883,1189.187
224,0.37155,1188.74
225,0.373217,1188.74
226,0.374883,1190.379
227,0.37655,1190.677
228,0.378217,1190.975
229,0.379883,1190.975
230,0.38155,1193.881
231,0.383217,1197.01
232,0.384883,1203.641
233,0.38655,1203.641
234,0.3882,1204.759
235,0.389867,1208.708
236,0.39155,1209.304
237,0.3932,1209.304
238,0.394867,1207.069
239,0.396533,1210.049
240,0.3982,1211.986
241,0.399867,1211.986
242,0.401533,1214.743
243,0.4032,1221.15
244,0.404867,1221.15
245,0.406533,1224.056
246,0.408317,1224.577
247,0.409867,1231.059
248,0.411533,1231.059
249,0.4132,1229.048
250,0.414867,1228.154
251,0.416533,1228.377
252,0.4182,1228.377
253,0.419867,1227.111
254,0.42155,1227.781
255,0.4232,1227.93
256,0.424867,1227.93
257,0.426533,1226.366
258,0.4282,1222.864
259,0.429867,1222.864
260,0.431533,1225.546
261,0.4332,1228.973
262,0.434867,1229.718
263,0.436533,1229.718
264,0.438217,1230.538
265,0.439867,1229.346
266,0.441533,1224.652
267,0.4432,1224.652
268,0.444867,1228.005
269,0.446517,1227.036
270,0.448183,1225.993
271,0.44985,1225.993
272,0.451517,1225.248
273,0.453183,1221.895
274,0.45485,1221.895
275,0.456517,1221.821
276,0.458183,1216.754
277,0.45985,1215.935
278,0.461517,1215.935
279,0.463183,1213.402
280,0.46485,1210.123
281,0.466517,1213.774
282,0.468183,1213.774
283,0.46985,1212.359
284,0.471517,1210.57
285,0.473183,1208.782
286,0.47485,1208.782
287,0.476517,1206.026
288,0.478183,1208.41
289,0.47985,1211.315
290,0.481517,1211.315
291,0.483183,1213.178
292,0.48485,1211.39
293,0.486517,1211.39
294,0.488183,1209.676
295,0.48985,1205.727
296,0.491517,1204.61
297,0.493167,1204.61
298,0.494833,1205.131
299,0.4965,1204.684
300,0.498167,1203.567
301,0.499833,1203.567
302,0.5014999999999999,1204.014
303,0.503167,1203.939
304,0.504833,1201.704
305,0.5065,1201.704
306,0.50815,1204.535
307,0.509817,1205.429
308,0.511483,1205.429
309,0.51315,1207.367
310,0.514817,1208.708
311,0.516483,1207.367
312,0.51815,1207.367
313,0.519817,1205.206
314,0.521483,1201.108
315,0.52315,1197.159
316,0.524817,1197.159
317,0.526483,1194.701
318,0.52815,1192.391
319,0.529817,1192.912
320,0.531483,1192.912
321,0.53315,1196.265
322,0.534817,1200.81
323,0.536483,1206.547
324,0.53815,1206.547
325,0.539817,1208.037
326,0.541483,1207.888
327,0.54315,1207.888
328,0.544817,1209.602
329,0.5464830000000001,1210.719
330,0.54815,1215.339
331,0.549817,1215.339
332,0.5514829999999999,1222.566
333,0.55315,1226.44
334,0.554817,1231.879
335,0.5564829999999999,1231.879
336,0.55815,1236.349
337,0.559833,1241.341
338,0.561517,1249.76
339,0.56315,1249.76
340,0.564817,1259.148
341,0.566483,1270.697
342,0.568133,1270.697
343,0.5698,1283.884
344,0.5714669999999999,1297.146
345,0.573133,1310.855
346,0.5748,1310.855
347,0.576467,1325.309
348,0.578133,1344.159
349,0.5798,1363.903
350,0.581467,1363.903
351,0.583133,1385.808
352,0.5848,1411.959
353,0.586467,1438.633
354,0.588133,1438.633
355,0.5898,1466.87
356,0.591467,1496.3
357,0.593133,1527.965
358,0.5948,1527.965
359,0.596467,1563.653
360,0.598133,1597.405
361,0.5998,1597.405
362,0.601467,1636.594
363,0.603133,1678.467
364,0.6048,1717.955
365,0.606467,1717.955
366,0.608133,1766.458
367,0.6098,1813.546
368,0.611517,1862.049
369,0.61315,1862.049
370,0.6148,1913.384
371,0.616467,1965.463
372,0.618133,2024.993
373,0.6198,2024.993
374,0.621467,2082.288
375,0.623133,2141.52
376,0.6248,2141.52
377,0.62645,2203.882
378,0.628117,2263.114
379,0.629817,2331.883
380,0.63145,2331.883
381,0.633117,2397.895
382,0.634783,2463.758
383,0.63645,2534.911
384,0.638117,2534.911
385,0.639783,2601.37
386,0.64145,2674.982
387,0.643117,2749.264
388,0.6449,2749.264
389,0.64645,2821.386
390,0.6481170000000001,2898.946
391,0.649783,2898.946
392,0.65145,2970.696
393,0.6531169999999999,3043.413
394,0.654783,3114.194
395,0.65645,3114.194
396,0.658117,3182.963
397,0.659783,3261.194
398,0.66145,3334.507
399,0.663117,3334.507
400,0.664783,3407.97
401,0.66645,3479.868
402,0.668117,3546.253
403,0.669783,3546.253
404,0.67145,3613.531
405,0.673117,3680.065
406,0.674783,3744.066
407,0.67645,3744.066
408,0.678117,3805.458
409,0.679783,3864.914
410,0.68145,3864.914
411,0.683117,3920.943
412,0.684783,3971.681
413,0.68645,4023.463
414,0.6881,4023.463
415,0.689767,4074.35
416,0.691433,4119.724
417,0.6931,4166.514
418,0.694767,4166.514
419,0.696433,4203.543
420,0.6981000000000001,4240.498
421,0.699767,4279.315
422,0.701433,4279.315
423,0.7030999999999999,4311.651
424,0.704767,4344.434
425,0.706433,4344.434
426,0.7081,4368.573
427,0.709767,4392.713
428,0.711433,4414.692
429,0.7131,4414.692
430,0.714767,4434.362
431,0.716433,4454.702
432,0.7181,4468.709
433,0.719767,4468.709
434,0.721433,4481.897
435,0.7231,4494.414
436,0.7247670000000001,4503.057
437,0.726433,4503.057
438,0.7281,4512.146
439,0.729817,4520.64
440,0.731433,4529.208
441,0.7331,4529.208
442,0.7347669999999999,4537.478
443,0.736433,4542.47
444,0.7381,4542.47
445,0.739767,4546.27
446,0.741433,4545.152
447,0.7431,4545.152
448,0.744767,4545.152
449,0.746433,4541.799
450,0.7480830000000001,4536.957
451,0.74975,4537.329
452,0.751417,4537.329
453,0.7530829999999999,4536.137
454,0.75475,4535.615
455,0.756417,4532.486
456,0.758083,4532.486
457,0.75975,4524.738
458,0.761417,4517.511
459,0.7632,4509.985
460,0.76475,4509.985
461,0.766417,4504.77
462,0.768083,4495.084
463,0.76975,4495.084
464,0.771417,4484.579
465,0.773083,4475.564
466,0.77475,4466.325
467,0.776417,4466.325
468,0.778083,4458.204
469,0.7797500000000001,4448.369
470,0.781417,4439.95
471,0.783083,4439.95
472,0.784733,4427.657
473,0.7864,4416.928
474,0.788083,4404.56
475,0.789733,4404.56
476,0.7914,4389.882
477,0.793067,4375.8
478,0.794733,4375.8
479,0.7964,4364.103
480,0.798067,4349.574
481,0.799733,4334.971
482,0.8014,4334.971
483,0.803067,4322.38
484,0.804733,4308.671
485,0.8064,4297.123
486,0.80805,4297.123
487,0.809717,4284.531
488,0.811383,4272.014
489,0.8130500000000001,4258.007
490,0.814717,4258.007
491,0.816383,4244
492,0.8180500000000001,4228.8
493,0.819717,4228.8
494,0.821383,4212.931
495,0.8230499999999999,4197.285
496,0.824717,4185.215
497,0.826383,4185.215
498,0.82805,4171.356
499,0.829717,4156.753
500,0.831383,4142.746
501,0.83305,4142.746
502,0.834717,4126.951
503,0.836383,4115.999
504,0.83805,4104.45
505,0.839717,4104.45
506,0.841383,4092.008
507,0.84305,4076.138
508,0.8447170000000001,4076.138
509,0.846383,4062.354
510,0.8481,4048.869
511,0.8497169999999999,4033.372
512,0.851383,4033.372
513,0.85305,4020.035
514,0.8547169999999999,4000.962
515,0.856383,3985.986
516,0.85805,3985.986
517,0.859717,3973.991
518,0.861383,3963.485
519,0.86305,3952.086
520,0.864767,3952.086
521,0.866383,3938.302
522,0.86805,3923.252
523,0.8697,3906.042
524,0.871367,3906.042
525,0.8730329999999999,3893.897
526,0.8747,3879.517
527,0.876367,3879.517
528,0.878033,3864.914
529,0.8797,3849.938
530,0.881483,3831.908
531,0.883033,3831.908
532,0.8847,3816.709
533,0.886367,3803
534,0.888033,3791.079
535,0.8897,3791.079
536,0.891367,3782.585
537,0.893033,3769.77
538,0.8947000000000001,3757.849
539,0.896367,3757.849
540,0.898133,3743.097
541,0.8997000000000001,3725.588
542,0.901367,3725.588
543,0.903033,3711.954
544,0.9046999999999999,3697.649
545,0.906367,3685.951
546,0.908033,3685.951
547,0.9097,3675.446
548,0.911367,3665.09
549,0.913033,3651.231
550,0.9147,3651.231
551,0.916367,3636.777
552,0.918033,3622.1
553,0.919717,3607.497
554,0.921367,3607.497
555,0.923033,3595.874
556,0.9247,3584.623
557,0.92635,3573.596
558,0.928017,3573.596
559,0.929683,3563.464
560,0.93135,3550.723
561,0.933017,3550.723
562,0.934683,3540.74
563,0.93635,3530.16
564,0.938017,3516.45
565,0.939683,3516.45
566,0.94135,3504.53
567,0.943017,3488.511
568,0.9446830000000001,3474.876
569,0.94635,3474.876
570,0.948017,3466.234
571,0.9496830000000001,3455.505
572,0.95135,3445.745
573,0.953017,3445.745
574,0.9546829999999999,3435.09
575,0.95635,3421.009
576,0.958017,3421.009
577,0.959683,3406.778
578,0.96135,3393.74
579,0.963017,3383.085
580,0.964683,3383.085
581,0.966383,3375.486
582,0.968017,3365.502
583,0.969683,3357.232
584,0.97135,3357.232
585,0.973017,3348.44
586,0.974683,3336.072
587,0.9763500000000001,3329.888
588,0.978017,3329.888
589,0.979683,3319.755
590,0.9813499999999999,3306.791
591,0.983083,3294.721
592,0.984683,3294.721
593,0.9863499999999999,3279.969
594,0.988,3271.252
595,0.9897,3271.252
596,0.991333,3261.864
597,0.993,3253.073
598,0.994667,3248.453
599,0.996333,3248.453
600,0.998,3237.501
601,0.999733,3225.803
602,1.001333,3217.012
603,1.003,3217.012
604,1.004667,3204.197
605,1.006333,3193.244
606,1.008,3184.676
607,1.009667,3184.676
608,1.011333,3172.234
609,1.013,3163.219
610,1.014667,3163.219
611,1.01645,3155.396
612,1.018,3146.529
613,1.019667,3139.526
614,1.021333,3139.526
615,1.023,3129.095
616,1.024667,3119.111
617,1.026333,3110.245
618,1.028,3110.245
619,1.029667,3099.74
620,1.031333,3091.991
621,1.033,3084.615
622,1.034667,3084.615
623,1.036333,3076.494
624,1.038,3067.18
625,1.039667,3067.18
626,1.041333,3058.91
627,1.043,3048.107
628,1.044667,3037.006
629,1.046317,3037.006
630,1.047983,3028.065
631,1.04965,3019.05
632,1.051317,3010.631
633,1.052983,3010.631
634,1.05465,3002.137
635,1.056317,2994.239
636,1.057983,2985.597
637,1.05965,2985.597
638,1.061333,2977.326
639,1.062983,2970.099
640,1.06465,2960.935
641,1.066317,2960.935
642,1.067983,2951.995
643,1.06965,2945.662
644,1.071317,2945.662
645,1.072983,2940.223
646,1.074667,2935.082
647,1.0763,2928.749
648,1.077967,2928.749
649,1.079633,2918.318
650,1.0813,2910.197
651,1.082967,2901.927
652,1.084683,2901.927
653,1.0863,2892.911
654,1.087967,2887.771
655,1.089633,2877.563
656,1.0913,2877.563
657,1.092967,2867.952
658,1.094633,2860.65
659,1.0963,2860.65
660,1.097967,2851.784
661,1.099633,2847.537
662,1.101333,2843.142
663,1.102967,2843.142
664,1.104633,2835.468
665,1.106283,2828.166
666,1.10795,2817.363
667,1.109617,2817.363
668,1.111283,2810.657
669,1.11295,2804.026
670,1.114617,2799.556
671,1.116283,2799.556
672,1.118,2794.862
673,1.119617,2787.262
674,1.121283,2781.451
675,1.12295,2781.451
676,1.124617,2773.479
677,1.126283,2767.22
678,1.12795,2767.22
679,1.129617,2762.601
680,1.131283,2755.523
681,1.13295,2749.786
682,1.134733,2749.786
683,1.136283,2743.751
684,1.13795,2735.63
685,1.139617,2732.128
686,1.141283,2732.128
687,1.14295,2728.03
688,1.144617,2721.623
689,1.146283,2716.184
690,1.14795,2716.184
691,1.149617,2709.553
692,1.151283,2703.592
693,1.15295,2703.592
694,1.154617,2700.314
695,1.156283,2695.396
696,1.15795,2688.542
697,1.159617,2688.542
698,1.161283,2682.135
699,1.16295,2675.056
700,1.164617,2668.649
701,1.166283,2668.649
702,1.167933,2664.253
703,1.1696,2654.791
704,1.171267,2647.787
705,1.172933,2647.787
706,1.1746,2641.007
707,1.176267,2632.439
708,1.177933,2624.84
709,1.1796,2624.84
710,1.181267,2615.675
711,1.182933,2608.672
712,1.1846,2608.672
713,1.186267,2604.35
714,1.187933,2602.115
715,1.1896,2601.892
716,1.191283,2601.892
717,1.192933,2596.229
718,1.1946,2589.747
719,1.196267,2586.171
720,1.197933,2586.171
721,1.1996,2578.348
722,1.201267,2574.697
723,1.202933,2570.525
724,1.2046,2570.525
725,1.206267,2562.106
726,1.207933,2555.326
727,1.2096,2555.326
728,1.211267,2550.632
729,1.212933,2545.416
730,1.2146,2540.573
731,1.216267,2540.573
732,1.217933,2535.135
733,1.219617,2527.088
734,1.221267,2521.276
735,1.222933,2521.276
736,1.2246,2517.626
737,1.22625,2513.23
738,1.227917,2508.834
739,1.229583,2508.834
740,1.23125,2501.979
741,1.232917,2496.242
742,1.234583,2496.242
743,1.236283,2492.368
744,1.237917,2488.568
745,1.239583,2483.279
746,1.24125,2483.279
747,1.242917,2477.318
748,1.244583,2471.73
749,1.24625,2465.025
750,1.247917,2465.025
751,1.249583,2464.28
752,1.25125,2459.958
753,1.253017,2459.064
754,1.254583,2459.064
755,1.25625,2457.872
756,1.257917,2452.88
757,1.259583,2449.825
758,1.26125,2449.825
759,1.262917,2441.257
760,1.264583,2434.03
761,1.26625,2434.03
762,1.267917,2430.156
763,1.269583,2426.431
764,1.27125,2424.121
765,1.272917,2424.121
766,1.274583,2421.737
767,1.27625,2417.49
768,1.277917,2414.286
769,1.279583,2414.286
770,1.28125,2409.518
771,1.282917,2402.738
772,1.284583,2394.617
773,1.28625,2394.617
774,1.2879,2389.401
775,1.289567,2384.633
776,1.291233,2384.633
777,1.2929,2382.547
778,1.294567,2381.131
779,1.296233,2377.927
780,1.2979,2377.927
781,1.299567,2375.469
782,1.301233,2372.712
783,1.3029,2368.316
784,1.304567,2368.316
785,1.306233,2363.548
786,1.3079,2358.556
787,1.309567,2351.999
788,1.311233,2351.999
789,1.3129,2347.604
790,1.314567,2341.419
791,1.316233,2337.694
792,1.3179,2337.694
793,1.319567,2336.577
794,1.321233,2333.745
795,1.3229,2333.745
796,1.324567,2331.808
797,1.326233,2328.232
798,1.3279,2321.303
799,1.329567,2321.303
800,1.331233,2315.268
801,1.3329,2311.245
802,1.334567,2306.402
803,1.336233,2306.402
804,1.337917,2305.359
805,1.339583,2303.421
806,1.341233,2300.888
807,1.3429,2300.888
808,1.344567,2296.716
809,1.346217,2294.481
810,1.347883,2294.481
811,1.34955,2290.159
812,1.351217,2282.783
813,1.352883,2278.984
814,1.35455,2278.984
815,1.356217,2270.416
816,1.357883,2266.467
817,1.35955,2263.933
818,1.361217,2263.933
819,1.362883,2259.761
820,1.36455,2258.494
821,1.366217,2257.675
822,1.367867,2257.675
823,1.369533,2255.514
824,1.3713,2253.652
825,1.372867,2250.299
826,1.374533,2250.299
827,1.3762,2246.946
828,1.377867,2244.338
829,1.379533,2244.338
830,1.3812,2238.676
831,1.382867,2232.492
832,1.384533,2228.32
833,1.3862,2228.32
834,1.387867,2223.775
835,1.389533,2223.924
836,1.3912,2225.19
837,1.392867,2225.19
838,1.394533,2222.21
839,1.3962,2217.591
840,1.397867,2214.089
841,1.399533,2214.089
842,1.4012,2212.003
843,1.402867,2209.023
844,1.404533,2209.023
845,1.406183,2206.638
846,1.40785,2203.137
847,1.409517,2195.016
848,1.411183,2195.016
849,1.412867,2190.396
850,1.414517,2186.149
851,1.41625,2184.138
852,1.41785,2184.138
853,1.419517,2183.691
854,1.421183,2182.052
855,1.42285,2181.381
856,1.424517,2181.381
857,1.426183,2175.793
858,1.42785,2172.068
859,1.429517,2172.068
860,1.431183,2167.374
861,1.43285,2163.425
862,1.434517,2163.425
863,1.436183,2163.425
864,1.43785,2160.445
865,1.439517,2157.241
866,1.441183,2154.931
867,1.44285,2154.931
868,1.444517,2151.877
869,1.446183,2148.151
870,1.44785,2146.587
871,1.449517,2146.587
872,1.451183,2143.01
873,1.45285,2138.987
874,1.454517,2138.019
875,1.456267,2138.019
876,1.45785,2134.815
877,1.459517,2132.58
878,1.461183,2132.58
879,1.46285,2131.313
880,1.464517,2130.643
881,1.466167,2130.27
882,1.467833,2130.27
883,1.4695,2130.121
884,1.471167,2125.353
885,1.472833,2119.914
886,1.4745,2119.914
887,1.476167,2110.526
888,1.477833,2107.099
889,1.4795,2105.459
890,1.481167,2105.459
891,1.482833,2102.703
892,1.4845,2103.522
893,1.486167,2103.522
894,1.487833,2101.436
895,1.489617,2097.562
896,1.491167,2092.794
897,1.492833,2092.794
898,1.4945,2089.515
899,1.496167,2085.343
900,1.497833,2084.449
901,1.4995,2084.449
902,1.501167,2087.057
903,1.502833,2087.727
904,1.5045,2087.802
905,1.506167,2087.802
906,1.507833,2086.312
907,1.5095,2080.873
908,1.511167,2077.892
909,1.512833,2077.892
910,1.5145,2070.963
911,1.516167,2068.728
912,1.517833,2068.728
913,1.5195,2069.697
914,1.521167,2065.674
915,1.522833,2063.811
916,1.5245,2063.811
917,1.526167,2059.042
918,1.527817,2055.317
919,1.529483,2053.156
920,1.53115,2053.156
921,1.532817,2051.368
