"ID","sea_time","fid_signal"
1,0,1176.745
2,0.001683,1176.745
3,0.003333,1173.615
4,0.005,1172.423
5,0.006667,1172.423
6,0.008333,1168.027
7,0.01,1164.451
8,0.011667,1166.09
9,0.013333,1166.09
10,0.015,1166.984
11,0.016667,1171.678
12,0.0184,1172.2
13,0.02,1172.2
14,0.021667,1168.698
15,0.023333,1167.953
16,0.025,1164.6
17,0.026667,1164.6
18,0.028333,1165.122
19,0.03,1162.365
20,0.031667,1162.365
21,0.033333,1161.918
22,0.035083,1161.322
23,0.03665,1163.557
24,0.038317,1163.557
25,0.039983,1168.326
26,0.0417,1167.282
27,0.043333,1169.89
28,0.044983,1169.89
29,0.04665,1170.039
30,0.048317,1170.933
31,0.049983,1173.019
32,0.051783,1173.019
33,0.053317,1172.87
34,0.054983,1171.827
35,0.05665,1172.721
36,0.058317,1172.721
37,0.059983,1172.87
38,0.06165,1173.168
39,0.063317,1173.168
40,0.064983,1172.274
41,0.06665,1169.518
42,0.068317,1171.827
43,0.069983,1171.827
44,0.07165000000000001,1168.996
45,0.07331699999999999,1167.953
46,0.07498299999999999,1170.784
47,0.07665,1170.784
48,0.078317,1167.506
49,0.079983,1169.145
50,0.08165,1169.22
51,0.083317,1169.22
52,0.084983,1165.494
53,0.08665,1165.42
54,0.08831700000000001,1165.42
55,0.08998299999999999,1167.432
56,0.09165,1170.71
57,0.093317,1172.721
58,0.094967,1172.721
59,0.096633,1172.2
60,0.0983,1168.549
61,0.099967,1165.122
62,0.101633,1165.122
63,0.1033,1165.941
64,0.104967,1165.42
65,0.106633,1164.526
66,0.108317,1164.526
67,0.109967,1167.432
68,0.111633,1166.537
69,0.1133,1166.537
70,0.114967,1169.071
71,0.116633,1171.306
72,0.1183,1168.549
73,0.119967,1168.549
74,0.121633,1169.071
75,0.1233,1166.984
76,0.124967,1166.761
77,0.126633,1166.761
78,0.1283,1168.027
79,0.129967,1168.922
80,0.131633,1173.243
81,0.1333,1173.243
82,0.134967,1174.659
83,0.136633,1175.478
84,0.1383,1173.168
85,0.139967,1173.168
86,0.141633,1169.369
87,0.1433,1168.326
88,0.144967,1168.326
89,0.146633,1166.686
90,0.1483,1165.643
91,0.149967,1167.58
92,0.151633,1167.58
93,0.153367,1166.463
94,0.154967,1170.188
95,0.156617,1173.243
96,0.158283,1173.243
97,0.15995,1173.019
98,0.161617,1176.596
99,0.163283,1174.063
100,0.16495,1174.063
101,0.166617,1172.87
102,0.168267,1173.466
103,0.17005,1169.741
104,0.1716,1169.741
105,0.173267,1168.177
106,0.174933,1166.388
107,0.1766,1166.388
108,0.178267,1165.271
109,0.179933,1165.718
110,0.181633,1168.4
111,0.183267,1168.4
112,0.184933,1170.337
113,0.1866,1172.2
114,0.188267,1171.455
115,0.189933,1171.455
116,0.1916,1170.039
117,0.193267,1169.294
118,0.194933,1164.749
119,0.1966,1164.749
120,0.198267,1165.047
121,0.199933,1166.761
122,0.2016,1166.761
123,0.203267,1166.314
124,0.204933,1167.282
125,0.2066,1167.953
126,0.208267,1167.953
127,0.209933,1167.729
128,0.2116,1167.506
129,0.213267,1167.357
130,0.214933,1167.357
131,0.216583,1164.675
132,0.218267,1160.13
133,0.219917,1162.142
134,0.221583,1162.142
135,0.22325,1162.291
136,0.224917,1164.898
137,0.226583,1164.898
138,0.22825,1165.643
139,0.229917,1164.228
140,0.231583,1166.016
141,0.23325,1166.016
142,0.234917,1165.867
143,0.236583,1166.91
144,0.238283,1167.357
145,0.239917,1167.357
146,0.241583,1166.165
147,0.24325,1165.122
148,0.244917,1165.122
149,0.246583,1165.122
150,0.24825,1164.675
151,0.249917,1166.984
152,0.251583,1170.263
153,0.25325,1170.263
154,0.254967,1172.572
155,0.256583,1172.423
156,0.25825,1172.423
157,0.259917,1170.337
158,0.261583,1168.177
159,0.26325,1167.208
160,0.264917,1167.208
161,0.266583,1169.592
162,0.26825,1168.996
163,0.269917,1169.071
164,0.271633,1169.071
165,0.27325,1168.251
166,0.274917,1167.58
167,0.276567,1171.529
168,0.278233,1171.529
169,0.2799,1171.753
170,0.281567,1171.008
171,0.283233,1171.008
172,0.2849,1168.624
173,0.286567,1164.675
174,0.288367,1164.675
175,0.2899,1164.675
176,0.291567,1164.004
177,0.293233,1167.133
178,0.2949,1169.592
179,0.296567,1169.592
180,0.298233,1172.796
181,0.2999,1173.541
182,0.301567,1170.486
183,0.303233,1170.486
184,0.3049,1167.879
185,0.306567,1164.675
186,0.308233,1164.675
187,0.3099,1164.6
188,0.311567,1167.133
189,0.313233,1170.859
190,0.3149,1170.859
191,0.316567,1172.572
192,0.31825,1174.063
193,0.3199,1170.114
194,0.321567,1170.114
195,0.323233,1166.314
196,0.3249,1164.824
197,0.326567,1163.11
198,0.328233,1163.11
199,0.3299,1163.11
200,0.331567,1163.11
201,0.333233,1161.695
202,0.3349,1161.695
203,0.33655,1162.589
204,0.338217,1165.643
205,0.339883,1165.643
206,0.34155,1166.761
207,0.343217,1167.208
208,0.344883,1168.922
209,0.34655,1168.922
210,0.348217,1167.506
211,0.349883,1170.114
212,0.35155,1171.082
213,0.353217,1171.082
214,0.354883,1169.741
215,0.35655,1169.965
216,0.358217,1165.941
217,0.359883,1165.941
218,0.36155,1168.4
219,0.363217,1171.231
220,0.364883,1171.231
221,0.36655,1172.2
222,0.368217,1173.317
223,0.369883,1172.349
224,0.37155,1172.349
225,0.37325,1173.317
226,0.374883,1174.807
227,0.37655,1179.65
228,0.378217,1179.65
229,0.379883,1178.98
230,0.38155,1175.478
231,0.383217,1172.87
232,0.384883,1172.87
233,0.38655,1168.624
234,0.388233,1166.761
235,0.38995,1166.239
236,0.39155,1166.239
237,0.393217,1166.984
238,0.394883,1168.922
239,0.396533,1168.922
240,0.3982,1170.486
241,0.399867,1172.498
242,0.401533,1175.106
243,0.4032,1175.106
244,0.404867,1174.659
245,0.406667,1175.851
246,0.4082,1177.192
247,0.409867,1177.192
248,0.411533,1177.266
249,0.4132,1179.203
250,0.414867,1179.427
251,0.416533,1179.427
252,0.4182,1178.533
253,0.419867,1176.968
254,0.421533,1176.968
255,0.4232,1175.776
256,0.424867,1174.286
257,0.426533,1176
258,0.4282,1176
259,0.429867,1175.553
260,0.431533,1176.521
261,0.4332,1180.619
262,0.434867,1180.619
263,0.436533,1176.596
264,0.4382,1178.309
265,0.439867,1177.117
266,0.441533,1177.117
267,0.4432,1173.168
268,0.444867,1176.968
269,0.446533,1178.16
270,0.4482,1178.16
271,0.449867,1179.65
272,0.451533,1183.078
273,0.4532,1183.078
274,0.454867,1185.685
275,0.456517,1187.474
276,0.458183,1188.293
277,0.459833,1188.293
278,0.461533,1192.54
279,0.463233,1194.924
280,0.464833,1201.63
281,0.4665,1201.63
282,0.468167,1211.39
283,0.469833,1224.279
284,0.4715,1239.404
285,0.473167,1239.404
286,0.474833,1258.925
287,0.4765,1282.17
288,0.478167,1282.17
289,0.479833,1305.416
290,0.4815,1334.25
291,0.483167,1364.052
292,0.484833,1364.052
293,0.4865,1397.133
294,0.488167,1440.272
295,0.489833,1491.234
296,0.491533,1491.234
297,0.493167,1550.615
298,0.494833,1624.897
299,0.4965,1703.352
300,0.498167,1703.352
301,0.499833,1791.567
302,0.5014999999999999,1892.373
303,0.503167,1892.373
304,0.504833,1998.991
305,0.5065,2112.314
306,0.508167,2235.249
307,0.509833,2235.249
308,0.5115,2364.442
309,0.513167,2506.152
310,0.514833,2661.72
311,0.516483,2661.72
312,0.51815,2825.037
313,0.519817,2997.816
314,0.521483,3172.681
315,0.52315,3172.681
316,0.524933,3354.773
317,0.526483,3542.006
318,0.52815,3731.102
319,0.529817,3731.102
320,0.531483,3924.146
321,0.53315,4112.125
322,0.534817,4112.125
323,0.536483,4300.55
324,0.53815,4488.155
325,0.539817,4670.471
326,0.541483,4670.471
327,0.54315,4849.136
328,0.544817,5019.68
329,0.5464830000000001,5179.569
330,0.54815,5179.569
331,0.549817,5334.02
332,0.5514829999999999,5476.326
333,0.55315,5603.433
334,0.554817,5603.433
335,0.5564829999999999,5721.897
336,0.55815,5827.695
337,0.559817,5827.695
338,0.561483,5926.564
339,0.56315,6021.559
340,0.564817,6105.602
341,0.566483,6105.602
342,0.56815,6176.01
343,0.569817,6236.658
344,0.571483,6286.204
345,0.57315,6286.204
346,0.574817,6328.001
347,0.576467,6363.615
348,0.578133,6390.884
349,0.5798,6390.884
350,0.581467,6411.299
351,0.583133,6427.542
352,0.5848,6438.494
353,0.586467,6438.494
354,0.588133,6446.391
355,0.5898,6449.595
356,0.591467,6449.595
357,0.593133,6444.976
358,0.5948,6436.333
359,0.596467,6422.773
360,0.598133,6422.773
361,0.5998,6407.127
362,0.601483,6390.735
363,0.60315,6372.705
364,0.6048,6372.705
365,0.606467,6353.855
366,0.608133,6330.386
367,0.609867,6302.223
368,0.611467,6302.223
369,0.613133,6270.409
370,0.6148,6237.701
371,0.616467,6237.701
372,0.618133,6204.322
373,0.6198,6172.21
374,0.621467,6143.674
375,0.623133,6143.674
376,0.6248,6113.127
377,0.626467,6080.046
378,0.6281330000000001,6043.911
379,0.6298,6043.911
380,0.631467,6004.572
381,0.6331329999999999,5967.84
382,0.634783,5931.929
383,0.63645,5931.929
384,0.638117,5898.103
385,0.639783,5861.67
386,0.64145,5825.385
387,0.64325,5825.385
388,0.644783,5788.207
389,0.64645,5751.178
390,0.6481170000000001,5751.178
391,0.649783,5714.595
392,0.65145,5673.766
393,0.6531169999999999,5633.831
394,0.654783,5633.831
395,0.65645,5593.226
396,0.658117,5556.345
397,0.659783,5519.167
398,0.66145,5519.167
399,0.663117,5483.255
400,0.664783,5446.896
401,0.66645,5412.549
402,0.668117,5412.549
403,0.669783,5379.021
404,0.67145,5345.345
405,0.673117,5345.345
406,0.6748,5311.072
407,0.67645,5273.745
408,0.678133,5239.546
409,0.679783,5239.546
410,0.68145,5202.964
411,0.683117,5170.777
412,0.684783,5135.983
413,0.68645,5135.983
414,0.688117,5101.71
415,0.689783,5068.332
416,0.69145,5030.558
417,0.693117,5030.558
418,0.694783,4996.21
419,0.696433,4960.597
420,0.6981000000000001,4960.597
421,0.699767,4928.187
422,0.701433,4897.639
423,0.7030999999999999,4866.943
424,0.704767,4866.943
425,0.706433,4838.854
426,0.7081,4808.307
427,0.709767,4777.461
428,0.711433,4777.461
429,0.7131,4749.745
430,0.714767,4717.782
431,0.716433,4687.235
432,0.7181,4687.235
433,0.719767,4657.433
434,0.721433,4624.874
435,0.7231,4592.538
436,0.7247670000000001,4592.538
437,0.726433,4562.885
438,0.728167,4536.584
439,0.7297670000000001,4536.584
440,0.731433,4512.37
441,0.7331,4487.708
442,0.7347669999999999,4460.886
443,0.736433,4460.886
444,0.7381,4435.256
445,0.739767,4408.285
446,0.741433,4383.102
447,0.7431,4383.102
448,0.744767,4357.025
449,0.746433,4329.682
450,0.7481,4303.157
451,0.7498,4303.157
452,0.751417,4275.963
453,0.7530829999999999,4252.866
454,0.75475,4252.866
455,0.7564,4228.13
456,0.758067,4205.555
457,0.759733,4183.874
458,0.761517,4183.874
459,0.7630670000000001,4160.106
460,0.764733,4134.029
461,0.7664,4106.834
462,0.7680670000000001,4106.834
463,0.769733,4081.95
464,0.7714,4058.108
465,0.7730669999999999,4036.501
466,0.774733,4036.501
467,0.7764,4019.365
468,0.778067,3999.248
469,0.779733,3976.822
470,0.7814,3976.822
471,0.783067,3956.035
472,0.784733,3934.205
473,0.7864,3934.205
474,0.788067,3911.853
475,0.789733,3894.567
476,0.7914,3874.972
477,0.793067,3874.972
478,0.794733,3853.887
479,0.7964,3836.378
480,0.798067,3817.379
481,0.799733,3817.379
482,0.8014,3800.094
483,0.803067,3779.679
484,0.804733,3761.053
485,0.8064,3761.053
486,0.808067,3739.819
487,0.809733,3721.714
488,0.8114,3721.714
489,0.813067,3704.95
490,0.814733,3685.43
491,0.816383,3669.783
492,0.8180500000000001,3669.783
493,0.81975,3651.604
494,0.821433,3631.264
495,0.8230499999999999,3611.967
496,0.824717,3611.967
497,0.826383,3595.427
498,0.82805,3577.322
499,0.829717,3561.899
500,0.831383,3561.899
501,0.83305,3547.817
502,0.834717,3533.959
503,0.836383,3519.058
504,0.83805,3519.058
505,0.839717,3504.455
506,0.841383,3491.342
507,0.84305,3491.342
508,0.8447170000000001,3474.28
509,0.846433,3458.038
510,0.84805,3442.69
511,0.849733,3442.69
512,0.851383,3425.553
513,0.85305,3410.503
514,0.8547169999999999,3397.241
515,0.856383,3397.241
516,0.85805,3384.054
517,0.859717,3369.972
518,0.861383,3356.412
519,0.8631,3356.412
520,0.864717,3339.797
521,0.866383,3325.567
522,0.86805,3325.567
523,0.869717,3314.465
524,0.871383,3300.458
525,0.87305,3288.91
526,0.8747,3288.91
527,0.876367,3277.51
528,0.878033,3264.546
529,0.879833,3252.477
530,0.881367,3252.477
531,0.883033,3239.438
532,0.8847,3226.698
533,0.886367,3209.859
534,0.888033,3209.859
535,0.8897,3197.491
536,0.891367,3184.676
537,0.893033,3184.676
538,0.8947000000000001,3173.202
539,0.8965,3165.081
540,0.898083,3152.043
541,0.8997000000000001,3152.043
542,0.901367,3141.016
543,0.903033,3125.593
544,0.9046999999999999,3110.319
545,0.906367,3110.319
546,0.908033,3098.697
547,0.9097,3090.501
548,0.911367,3081.113
549,0.913033,3081.113
550,0.9147,3073.066
551,0.916367,3061.593
552,0.918033,3049.523
553,0.9197,3049.523
554,0.921367,3037.751
555,0.923033,3025.01
556,0.9247,3025.01
557,0.9263670000000001,3015.548
558,0.928033,3007.203
559,0.9297,2997.592
560,0.9313669999999999,2997.592
561,0.933033,2989.918
562,0.9347,2979.86
563,0.93635,2969.205
564,0.938017,2969.205
565,0.939683,2960.712
566,0.94135,2948.418
567,0.943017,2938.36
568,0.9446830000000001,2938.36
569,0.94635,2929.047
570,0.948017,2919.436
571,0.9496830000000001,2919.436
572,0.95135,2911.165
573,0.953017,2899.319
574,0.9546829999999999,2886.728
575,0.95635,2886.728
576,0.958017,2876.967
577,0.959683,2867.654
578,0.96135,2861.097
579,0.963017,2861.097
580,0.96475,2853.945
581,0.96635,2846.047
582,0.968017,2837.777
583,0.969683,2837.777
584,0.97135,2831.519
585,0.973017,2823.174
586,0.974683,2814.457
587,0.9763500000000001,2814.457
588,0.978017,2809.688
589,0.979683,2798.289
590,0.9813499999999999,2798.289
591,0.983017,2789.944
592,0.984683,2781.674
593,0.9863499999999999,2769.753
594,0.988017,2769.753
595,0.989683,2763.867
596,0.99135,2755.523
597,0.993017,2748.817
598,0.994683,2748.817
599,0.996333,2740.696
600,0.9981,2732.575
601,0.999667,2724.454
602,1.001333,2724.454
603,1.003,2715.141
604,1.004667,2708.137
605,1.006333,2708.137
606,1.008,2697.259
607,1.009667,2691.82
608,1.011333,2683.252
609,1.013,2683.252
610,1.014733,2678.633
611,1.016333,2671.555
612,1.018,2660.751
613,1.019667,2660.751
614,1.021333,2656.579
615,1.023,2650.544
616,1.024667,2648.905
617,1.026333,2648.905
618,1.028,2643.689
619,1.029667,2635.866
620,1.031333,2628.863
621,1.033,2628.863
622,1.034667,2623.349
623,1.036333,2618.208
624,1.038,2618.208
625,1.039667,2613.738
626,1.04135,2607.48
627,1.043,2597.943
628,1.04465,2597.943
629,1.046317,2591.014
630,1.047983,2585.053
631,1.04965,2576.634
632,1.051317,2576.634
633,1.052983,2571.792
634,1.05465,2565.98
635,1.0563,2557.933
636,1.057967,2557.933
637,1.059633,2553.835
638,1.0613,2546.981
639,1.062967,2546.981
640,1.064633,2540.35
641,1.0663,2532.676
642,1.067967,2524.778
643,1.069633,2524.778
644,1.0713,2518.445
645,1.072967,2512.708
646,1.074633,2509.877
647,1.0763,2509.877
648,1.077967,2506.152
649,1.079633,2501.085
650,1.0813,2497.584
651,1.083,2497.584
652,1.084633,2490.655
653,1.0863,2482.832
654,1.087967,2482.832
655,1.089633,2476.349
656,1.0913,2470.538
657,1.092967,2466.068
658,1.094633,2466.068
659,1.0963,2458.915
660,1.097967,2453.104
661,1.099683,2446.473
662,1.1013,2446.473
663,1.102967,2440.214
664,1.104633,2435.446
665,1.1063,2433.285
666,1.107967,2433.285
667,1.109633,2426.431
668,1.1113,2422.854
669,1.112967,2420.917
670,1.114667,2420.917
671,1.1164,2413.243
672,1.11795,2410.933
673,1.119617,2410.933
674,1.121283,2406.24
675,1.12295,2400.428
676,1.124617,2398.64
677,1.126283,2398.64
678,1.12795,2393.126
679,1.129617,2389.476
680,1.131283,2384.707
681,1.133067,2384.707
682,1.134617,2379.79
683,1.136283,2375.916
684,1.13795,2369.732
685,1.139617,2369.732
686,1.141283,2366.081
687,1.14295,2361.238
688,1.144617,2361.238
689,1.146283,2355.725
690,1.14795,2351.105
691,1.149617,2347.901
692,1.151283,2347.901
693,1.15295,2342.686
694,1.154617,2341.419
695,1.156283,2335.236
696,1.15795,2335.236
697,1.159617,2331.734
698,1.161283,2328.008
699,1.16295,2323.166
700,1.164617,2323.166
701,1.166283,2318.919
702,1.16795,2313.405
703,1.169617,2310.574
704,1.171283,2310.574
705,1.17295,2304.837
706,1.174617,2302.677
707,1.176267,2302.677
708,1.177933,2298.728
709,1.1796,2292.022
710,1.181267,2288.967
711,1.182933,2288.967
712,1.184633,2284.125
713,1.186267,2277.643
714,1.187933,2272.8
715,1.1896,2272.8
716,1.191267,2267.435
717,1.192933,2263.188
718,1.1946,2261.773
719,1.196283,2261.773
720,1.197933,2260.432
721,1.1996,2258.047
722,1.201267,2258.047
723,1.202933,2255.589
724,1.2046,2252.012
725,1.206267,2247.989
726,1.207933,2247.989
727,1.2096,2242.029
728,1.211267,2237.111
729,1.212933,2232.716
730,1.2146,2232.716
731,1.216267,2228.767
732,1.21795,2227.202
733,1.2196,2225.116
734,1.221267,2225.116
735,1.222933,2220.869
736,1.2246,2217.665
737,1.226267,2216.846
738,1.227933,2216.846
739,1.2296,2212.077
740,1.231267,2207.384
741,1.232933,2207.384
742,1.234617,2200.752
743,1.23625,2195.686
744,1.237917,2193.078
745,1.239583,2193.078
746,1.24125,2190.471
747,1.242917,2188.012
748,1.244583,2180.71
749,1.24625,2180.71
750,1.247917,2176.911
751,1.249583,2173.856
752,1.251383,2172.142
753,1.252933,2172.142
754,1.254583,2173.185
755,1.25625,2168.193
756,1.257917,2168.193
757,1.2596,2166.033
758,1.26125,2164.543
759,1.262917,2160.445
760,1.264583,2160.445
761,1.26625,2160.296
762,1.267917,2155.751
763,1.269583,2152.249
764,1.27125,2152.249
765,1.272917,2147.257
766,1.274583,2146.363
767,1.27625,2143.83
768,1.277917,2143.83
769,1.279583,2139.136
770,1.28125,2137.497
771,1.282917,2131.909
772,1.284583,2131.909
773,1.28625,2127.96
774,1.287917,2125.725
775,1.289583,2125.725
776,1.29125,2123.49
777,1.292917,2122.894
778,1.294583,2121.478
779,1.296233,2121.478
780,1.2979,2115.741
781,1.299567,2109.334
782,1.301233,2105.609
783,1.3029,2105.609
784,1.304567,2106.205
785,1.306233,2105.832
786,1.3079,2105.906
787,1.309567,2105.906
788,1.311233,2104.342
789,1.3129,2096.444
790,1.314567,2096.444
791,1.316233,2091.527
792,1.3179,2088.919
793,1.319583,2082.512
794,1.321233,2082.512
795,1.3229,2080.724
796,1.324567,2081.022
797,1.326233,2080.426
798,1.3279,2080.426
799,1.329567,2080.798
800,1.331233,2079.234
801,1.3329,2076.253
802,1.33455,2076.253
803,1.336233,2071.559
804,1.337883,2065.748
805,1.33955,2065.748
806,1.341217,2063.438
807,1.342883,2061.054
808,1.34455,2059.266
809,1.346217,2059.266
810,1.347883,2054.721
811,1.34955,2052.635
812,1.351217,2052.337
813,1.352867,2052.337
814,1.35455,2050.772
815,1.3562,2050.996
816,1.357867,2047.42
817,1.359533,2047.42
818,1.3612,2044.29
819,1.362867,2042.726
820,1.364533,2043.098
821,1.3662,2043.098
822,1.367867,2042.428
823,1.3696,2039
824,1.3712,2039
825,1.372867,2038.553
826,1.374533,2033.263
827,1.376217,2029.315
828,1.377867,2029.315
829,1.379533,2025.738
830,1.3812,2019.48
831,1.382867,2018.064
832,1.384533,2018.064
833,1.3862,2015.755
834,1.387867,2014.041
835,1.389533,2010.092
836,1.3912,2010.092
837,1.392867,2008.006
838,1.394533,2007.335
839,1.3962,2007.335
840,1.397867,2007.261
841,1.399533,2005.845
842,1.4012,2003.908
843,1.402867,2003.908
844,1.404533,2003.536
845,1.4062,2001.3
846,1.407867,2001.151
847,1.409533,2001.151
848,1.4112,2001.449
849,1.412867,1997.873
850,1.414517,1995.191
851,1.416183,1995.191
852,1.41785,1993.254
853,1.419517,1989.752
854,1.421183,1989.901
855,1.42285,1989.901
856,1.424517,1989.007
857,1.426183,1984.686
858,1.427867,1984.686
859,1.429517,1981.035
860,1.431183,1975.074
861,1.43285,1971.871
862,1.434517,1971.871
863,1.436183,1973.137
864,1.43785,1971.871
865,1.439517,1970.083
866,1.441183,1970.083
867,1.44285,1966.804
868,1.444517,1960.024
869,1.446183,1957.119
870,1.44785,1957.119
871,1.449517,1955.33
872,1.451183,1951.456
873,1.45285,1951.456
874,1.454567,1951.754
875,1.4562,1950.264
876,1.45785,1947.805
877,1.459517,1947.805
878,1.461183,1948.103
879,1.46285,1943.484
880,1.464533,1939.833
881,1.466183,1939.833
882,1.46785,1936.331
883,1.469517,1934.618
884,1.471183,1934.841
885,1.47285,1934.841
886,1.4745,1936.331
887,1.476167,1934.99
888,1.477833,1934.99
889,1.4795,1931.265
890,1.481167,1929.849
891,1.482833,1925.305
892,1.4845,1925.305
893,1.486167,1923.516
894,1.487967,1922.771
895,1.4895,1922.324
896,1.491167,1922.324
897,1.492833,1921.43
898,1.4945,1922.771
899,1.496167,1922.175
900,1.497833,1922.175
901,1.4995,1919.866
902,1.501167,1917.928
903,1.502833,1914.799
904,1.5045,1914.799
905,1.506167,1912.266
906,1.507833,1910.776
907,1.5095,1910.776
908,1.511167,1908.913
909,1.512833,1906.082
910,1.5145,1906.604
911,1.516167,1906.604
912,1.517833,1906.827
913,1.5195,1904.89
914,1.521167,1905.561
915,1.522833,1905.561
916,1.5245,1901.835
917,1.526167,1898.631
918,1.527833,1896.694
919,1.5295,1896.694
920,1.531167,1893.193
921,1.532833,1892.075
922,1.534533,1892.075
923,1.5362,1887.53
