"ID","sea_time","fid_signal"
1,0,37.121
2,0.001667,37.118
3,0.003333,37.129
4,0.005,37.122
5,0.006667,37.122
6,0.008333,37.019
7,0.01,36.873
8,0.011667,36.873
9,0.013383,36.743
10,0.015,36.71
11,0.016667,36.822
12,0.018333,36.822
13,0.02,37.005
14,0.021667,37.143
15,0.023333,37.2
16,0.025,37.2
17,0.026667,37.204
18,0.028333,37.184
19,0.030017,37.175
20,0.031667,37.175
21,0.033333,37.183
22,0.035,37.187
23,0.036667,37.187
24,0.038333,37.191
25,0.04,37.196
26,0.041667,37.169
27,0.043333,37.169
28,0.044983,37.128
29,0.046783,37.115
30,0.048317,37.111
31,0.049983,37.111
32,0.05165,37.137
33,0.053317,37.166
34,0.054983,37.181
35,0.05665,37.181
36,0.058317,37.207
37,0.059983,37.193
38,0.061633,37.19
39,0.0633,37.19
40,0.064967,37.196
41,0.066633,37.167
42,0.0683,37.167
43,0.069967,37.154
44,0.07165000000000001,37.158
45,0.0733,37.17
46,0.07496700000000001,37.17
47,0.07663300000000001,37.195
48,0.07829999999999999,37.193
49,0.079967,37.166
50,0.081633,37.166
51,0.0833,37.127
52,0.084967,37.138
53,0.086633,37.146
54,0.0883,37.146
55,0.08996700000000001,37.167
56,0.09163300000000001,37.162
57,0.09329999999999999,37.162
58,0.094967,37.125
59,0.096633,37.149
60,0.098317,37.157
61,0.099967,37.157
62,0.101633,37.19
63,0.103317,37.184
64,0.104967,37.133
65,0.106617,37.133
66,0.108283,37.105
67,0.10995,37.115
68,0.111617,37.132
69,0.113283,37.132
70,0.11495,37.16
71,0.116617,37.155
72,0.118283,37.155
73,0.11995,37.122
74,0.121617,37.117
75,0.123283,37.09
76,0.12495,37.09
77,0.126617,37.087
78,0.128283,37.087
79,0.12995,37.088
80,0.131617,37.088
81,0.133283,37.143
82,0.13495,37.151
83,0.136617,37.151
84,0.138283,37.151
85,0.13995,37.154
86,0.141617,37.136
87,0.143283,37.146
88,0.14495,37.146
89,0.146617,37.124
90,0.1483,37.111
91,0.14995,37.111
92,0.151617,37.126
93,0.153283,37.137
94,0.15495,37.194
95,0.156617,37.194
96,0.158283,37.231
97,0.15995,37.208
98,0.161617,37.183
99,0.163283,37.183
100,0.165067,37.174
101,0.1666,37.144
102,0.168267,37.132
103,0.169933,37.132
104,0.1716,37.122
105,0.173267,37.096
106,0.17495,37.096
107,0.1766,37.095
108,0.178267,37.098
109,0.179933,37.092
110,0.1816,37.092
111,0.183267,37.083
112,0.184933,37.111
113,0.1866,37.118
114,0.188267,37.118
115,0.189933,37.125
116,0.1916,37.151
117,0.193267,37.134
118,0.194933,37.134
119,0.1966,37.154
120,0.198267,37.187
121,0.199933,37.184
122,0.2016,37.184
123,0.203267,37.196
124,0.204933,37.164
125,0.2066,37.164
126,0.208267,37.14
127,0.209933,37.141
128,0.2116,37.1
129,0.213267,37.1
130,0.214933,37.119
131,0.2166,37.12
132,0.218267,37.115
133,0.219933,37.115
134,0.2216,37.138
135,0.223267,37.127
136,0.224933,37.135
137,0.226583,37.135
138,0.22825,37.154
139,0.229917,37.166
140,0.231583,37.166
141,0.23325,37.197
142,0.234917,37.19
143,0.236633,37.146
144,0.23825,37.146
145,0.239917,37.128
146,0.241583,37.127
147,0.24325,37.146
148,0.244917,37.146
149,0.246583,37.142
150,0.24825,37.131
151,0.249917,37.077
152,0.251583,37.077
153,0.25325,37.057
154,0.254917,37.082
155,0.256583,37.087
156,0.25825,37.087
157,0.259917,37.098
158,0.261583,37.093
159,0.26325,37.093
160,0.264917,37.079
161,0.2666,37.075
162,0.26825,37.099
163,0.269917,37.099
164,0.271583,37.122
165,0.27325,37.158
166,0.274933,37.163
167,0.276583,37.163
168,0.27825,37.155
169,0.279917,37.149
170,0.281583,37.148
171,0.283367,37.148
172,0.2849,37.162
173,0.286567,37.164
174,0.288233,37.164
175,0.2899,37.161
176,0.291567,37.138
177,0.293233,37.117
178,0.2949,37.117
179,0.296567,37.141
180,0.298233,37.129
181,0.299917,37.158
182,0.301567,37.158
183,0.303233,37.183
184,0.3049,37.147
185,0.306567,37.149
186,0.30825,37.149
187,0.3099,37.112
188,0.311567,37.097
189,0.313233,37.097
190,0.3149,37.097
191,0.316567,37.089
192,0.318233,37.102
193,0.3199,37.102
194,0.321567,37.096
195,0.323233,37.108
196,0.3249,37.127
197,0.326567,37.127
198,0.328233,37.121
199,0.3299,37.161
200,0.331567,37.162
201,0.333233,37.162
202,0.3349,37.156
203,0.336567,37.15
204,0.338233,37.143
205,0.3399,37.143
206,0.341567,37.176
207,0.343233,37.243
208,0.3449,37.243
209,0.346583,37.305
210,0.348217,37.324
211,0.349883,37.335
212,0.35155,37.335
213,0.3532,37.344
214,0.354867,37.366
215,0.356533,37.408
216,0.3582,37.408
217,0.359867,37.466
218,0.361533,37.52
219,0.3632,37.563
220,0.364867,37.563
221,0.366533,37.654
222,0.36825,37.728
223,0.369867,37.728
224,0.371533,37.795
225,0.3732,37.894
226,0.374867,37.959
227,0.376533,37.959
228,0.3782,38.039
229,0.379883,38.143
230,0.381533,38.245
231,0.3832,38.245
232,0.384867,38.358
233,0.386533,38.487
234,0.3882,38.607
235,0.389867,38.607
236,0.391533,38.752
237,0.3932,38.872
238,0.394867,38.996
239,0.396533,38.996
240,0.3982,39.126
241,0.399867,39.236
242,0.401633,39.363
243,0.4032,39.363
244,0.404867,39.436
245,0.406517,39.496
246,0.408183,39.496
247,0.40985,39.562
248,0.411517,39.592
249,0.413183,39.639
250,0.41485,39.639
251,0.416517,39.686
252,0.418183,39.721
253,0.41985,39.731
254,0.421517,39.731
255,0.423183,39.753
256,0.42485,39.735
257,0.426517,39.735
258,0.428183,39.7
259,0.42985,39.679
260,0.431517,39.62
261,0.433183,39.62
262,0.43485,39.577
263,0.436517,39.504
264,0.438183,39.453
265,0.43985,39.453
266,0.441517,39.414
267,0.443183,39.356
268,0.44485,39.335
269,0.446517,39.335
270,0.448183,39.306
271,0.44985,39.259
272,0.451517,39.181
273,0.453183,39.181
274,0.45485,39.092
275,0.456517,39.02
276,0.458183,39.02
277,0.45985,38.923
278,0.461517,38.826
279,0.463183,38.736
280,0.46485,38.736
281,0.4665,38.636
282,0.468167,38.592
283,0.469833,38.574
284,0.4715,38.574
285,0.473167,38.538
286,0.47485,38.487
287,0.4765,38.447
288,0.478167,38.447
289,0.479833,38.418
290,0.4815,38.368
291,0.483167,38.368
292,0.484833,38.359
293,0.4865,38.307
294,0.488167,38.251
295,0.489833,38.251
296,0.4915,38.242
297,0.493167,38.208
298,0.494833,38.196
299,0.4965,38.196
300,0.498167,38.205
301,0.499833,38.206
302,0.5014999999999999,38.204
303,0.503167,38.204
304,0.504833,38.207
305,0.5065,38.201
306,0.508167,38.18
307,0.509833,38.18
308,0.5115,38.161
309,0.513167,38.205
310,0.514833,38.205
311,0.5165,38.257
312,0.518167,38.325
313,0.519917,38.403
314,0.52155,38.403
315,0.523167,38.445
316,0.524817,38.476
317,0.526483,38.531
318,0.52815,38.531
319,0.529817,38.628
320,0.531483,38.712
321,0.53315,38.829
322,0.534817,38.829
323,0.536483,38.969
324,0.53815,39.102
325,0.539817,39.102
326,0.541483,39.233
327,0.54315,39.361
328,0.544817,39.526
329,0.5464830000000001,39.526
330,0.54815,39.692
331,0.549817,39.936
332,0.5514829999999999,40.194
333,0.55315,40.194
334,0.554817,40.414
335,0.5564829999999999,40.691
336,0.55815,40.932
337,0.559817,40.932
338,0.561483,41.229
339,0.56315,41.598
340,0.564817,41.598
341,0.566483,41.943
342,0.56815,42.285
343,0.569817,42.649
344,0.571483,42.649
345,0.57315,43.04
346,0.574817,43.46
347,0.576483,43.943
348,0.5781500000000001,43.943
349,0.579817,44.426
350,0.581483,44.917
351,0.5831499999999999,45.468
352,0.584817,45.468
353,0.586467,46.018
354,0.588167,46.616
355,0.589817,47.23
356,0.591467,47.23
357,0.593133,47.858
358,0.5948,48.531
359,0.596467,48.531
360,0.598133,49.224
361,0.5998,49.968
362,0.601467,50.712
363,0.603133,50.712
364,0.6048,51.527
365,0.606467,52.374
366,0.608133,53.218
367,0.6098,53.218
368,0.611467,54.118
369,0.613133,55.037
370,0.6148,55.982
371,0.616467,55.982
372,0.618133,56.983
373,0.6198,58.03
374,0.621517,59.085
375,0.623133,59.085
376,0.6248,60.196
377,0.626467,61.312
378,0.6281330000000001,61.312
379,0.6298,62.449
380,0.631467,63.639
381,0.6331329999999999,64.81999999999999
382,0.6348,64.81999999999999
383,0.636467,66.042
384,0.63825,67.28100000000001
385,0.6398,68.551
386,0.641467,68.551
387,0.643133,69.866
388,0.644783,71.23099999999999
389,0.646433,72.636
390,0.6481,72.636
391,0.649783,74.048
392,0.651433,75.495
393,0.6531,75.495
394,0.654767,76.959
395,0.656433,78.431
396,0.6581,79.94799999999999
397,0.659767,79.94799999999999
398,0.661433,81.509
399,0.6631,83.10899999999999
400,0.664767,84.729
401,0.6664330000000001,84.729
402,0.6681,86.407
403,0.669767,88.07599999999999
404,0.6714329999999999,89.768
405,0.6731,89.768
406,0.674767,91.512
407,0.676433,93.23699999999999
408,0.6781,93.23699999999999
409,0.679767,95.01000000000001
410,0.681433,96.82299999999999
411,0.6831,98.65600000000001
412,0.684767,98.65600000000001
413,0.686433,100.509
414,0.6881,102.381
415,0.689767,104.264
416,0.691433,104.264
417,0.6931,106.164
418,0.694767,108.095
419,0.696433,110.096
420,0.6981000000000001,110.096
421,0.699767,112.063
422,0.701433,114.043
423,0.7030999999999999,114.043
424,0.704767,116.055
425,0.706417,118.037
426,0.708083,120.114
427,0.70975,120.114
428,0.711417,122.183
429,0.713083,124.274
430,0.71475,126.354
431,0.716417,126.354
432,0.718083,128.454
433,0.71975,130.637
434,0.721417,132.807
435,0.723083,132.807
436,0.72475,134.996
437,0.726417,137.167
438,0.728083,139.333
439,0.72975,139.333
440,0.731417,141.533
441,0.733083,143.781
442,0.734783,143.781
443,0.736433,146.014
444,0.738083,148.244
445,0.739833,150.494
446,0.741417,150.494
447,0.743083,152.726
448,0.74475,154.98
449,0.746417,157.246
450,0.7480830000000001,157.246
451,0.74975,159.552
452,0.751417,161.88
453,0.7530829999999999,164.226
454,0.75475,164.226
455,0.756517,166.564
456,0.758083,168.864
457,0.75975,168.864
458,0.761417,171.178
459,0.763083,173.47
460,0.764733,175.806
461,0.7664,175.806
462,0.7680670000000001,178.128
463,0.769733,180.46
464,0.7714,182.84
465,0.773183,182.84
466,0.774733,185.183
467,0.7764,187.561
468,0.778067,189.936
469,0.779733,189.936
470,0.7814,192.297
471,0.783067,194.654
472,0.784733,197.024
473,0.7864,197.024
474,0.788067,199.389
475,0.789733,201.759
476,0.7914,201.759
477,0.793067,204.145
478,0.794733,206.528
479,0.7964,208.893
480,0.798067,208.893
481,0.799733,211.258
482,0.8014,213.632
483,0.803067,215.985
484,0.804733,215.985
485,0.8064,218.368
486,0.8081,220.727
487,0.809733,223.096
488,0.8114,223.096
489,0.813067,225.454
490,0.814733,227.824
491,0.8164,227.824
492,0.818067,230.213
493,0.819733,232.55
494,0.8214,234.915
495,0.823067,234.915
496,0.824717,237.232
497,0.826383,239.535
498,0.82805,241.857
499,0.829717,241.857
500,0.831383,244.166
501,0.83305,246.49
502,0.834717,248.796
503,0.836383,248.796
504,0.83805,251.12
505,0.839717,253.432
506,0.841383,255.743
507,0.84305,255.743
508,0.8447170000000001,258.063
509,0.846383,260.33
510,0.84805,260.33
511,0.8497169999999999,262.577
512,0.851383,264.793
513,0.85305,267.01
514,0.8547169999999999,267.01
515,0.856383,269.235
516,0.858083,271.478
517,0.859717,273.727
518,0.861383,273.727
519,0.86305,275.975
520,0.864717,278.225
521,0.866383,280.447
522,0.86805,280.447
523,0.869717,282.639
524,0.871383,284.818
525,0.87305,284.818
526,0.874767,286.992
527,0.876383,289.17
528,0.87805,291.34
529,0.879717,291.34
530,0.881383,293.495
531,0.88305,295.623
532,0.884717,297.721
533,0.8864,297.721
534,0.888083,299.816
535,0.8897,301.914
536,0.891483,304.007
537,0.893033,304.007
538,0.8947000000000001,306.088
539,0.896367,308.182
540,0.898033,310.241
541,0.8997000000000001,310.241
542,0.901367,312.274
543,0.903033,314.299
544,0.9046999999999999,314.299
545,0.906367,316.307
546,0.908033,318.32
547,0.9097,320.33
548,0.911367,320.33
549,0.913033,322.32
550,0.9147,324.275
551,0.916367,326.193
552,0.918033,326.193
553,0.9197,328.11
554,0.921367,330.051
555,0.923033,331.983
556,0.9247,331.983
557,0.9263670000000001,333.906
558,0.928033,335.805
559,0.9297,335.805
560,0.931383,337.699
561,0.933033,339.561
562,0.9347,341.397
563,0.93635,341.397
564,0.938017,343.233
565,0.939683,345.016
566,0.94135,346.816
567,0.943017,346.816
568,0.9446830000000001,348.62
569,0.946333,350.395
570,0.948,352.143
571,0.949667,352.143
572,0.951333,353.868
573,0.953,355.573
574,0.954667,355.573
575,0.956333,357.299
576,0.958,359.026
577,0.959683,360.768
578,0.961367,360.768
579,0.963,362.482
580,0.9646670000000001,364.15
581,0.966333,365.815
582,0.968,365.815
583,0.9696669999999999,367.43
584,0.971333,369.037
585,0.973,370.625
586,0.974667,370.625
587,0.9763500000000001,372.189
588,0.978,373.763
589,0.979667,375.322
590,0.981333,375.322
591,0.983,376.846
592,0.984667,378.366
593,0.986333,378.366
594,0.988,379.846
595,0.989667,381.314
596,0.991333,382.796
597,0.993017,382.796
598,0.994667,384.229
599,0.996333,385.665
600,0.998,387.092
601,0.999667,387.092
602,1.001333,388.491
603,1.003,389.883
604,1.004667,391.228
605,1.006317,391.228
606,1.007983,392.532
607,1.009767,393.848
608,1.011317,393.848
609,1.012983,395.184
610,1.01465,396.524
611,1.016317,397.876
612,1.017983,397.876
613,1.01965,399.227
614,1.021317,400.536
615,1.022983,401.828
616,1.02465,401.828
617,1.026317,403.071
618,1.027983,404.232
619,1.02965,405.392
620,1.031317,405.392
621,1.033,406.563
622,1.034667,407.753
623,1.036317,408.985
624,1.037983,408.985
625,1.03965,410.156
626,1.041317,411.332
627,1.042983,411.332
628,1.04465,412.486
629,1.046317,413.603
630,1.047983,414.716
631,1.04965,414.716
632,1.051317,415.761
633,1.052983,416.773
634,1.05465,417.804
635,1.056317,417.804
636,1.057983,418.829
637,1.05965,419.83
638,1.061317,420.849
639,1.062983,420.849
640,1.06465,421.865
641,1.0663,422.864
642,1.067967,422.864
643,1.069633,423.844
644,1.0713,424.799
645,1.072967,425.693
646,1.074633,425.693
647,1.0763,426.577
648,1.077967,427.475
649,1.079633,428.35
650,1.0813,428.35
651,1.082967,429.223
652,1.084633,430.095
653,1.0863,430.945
654,1.087967,430.945
655,1.089633,431.769
656,1.0913,432.603
657,1.092967,433.388
658,1.094683,433.388
659,1.0963,434.171
660,1.097967,435.001
661,1.099633,435.001
662,1.1013,435.758
663,1.102967,436.523
664,1.10465,437.281
665,1.10635,437.281
666,1.107967,437.962
667,1.109633,438.667
668,1.1113,439.38
669,1.112967,439.38
670,1.114633,440.048
671,1.1163,440.727
672,1.117967,441.357
673,1.119633,441.357
674,1.1213,442.008
675,1.122967,442.658
676,1.124617,442.658
677,1.126283,443.296
678,1.128067,443.945
679,1.129617,444.541
680,1.131283,444.541
681,1.13295,445.126
682,1.134617,445.701
683,1.136283,446.281
684,1.13795,446.281
685,1.139617,446.859
686,1.141283,447.419
687,1.14295,447.948
688,1.144617,447.948
689,1.146283,448.445
690,1.14795,448.923
691,1.149617,448.923
692,1.151283,449.397
693,1.15295,449.878
694,1.154617,450.325
695,1.156283,450.325
696,1.15795,450.779
697,1.159617,451.182
698,1.161283,451.564
699,1.16295,451.564
700,1.164617,451.963
701,1.166283,452.345
702,1.16795,452.723
703,1.169617,452.723
704,1.171283,453.142
705,1.17295,453.545
706,1.17465,453.937
707,1.176283,453.937
708,1.17795,454.371
709,1.179617,454.704
710,1.181283,454.704
711,1.18295,455.029
712,1.184617,455.333
713,1.186267,455.602
714,1.187933,455.602
715,1.1896,455.925
716,1.191267,456.236
717,1.192933,456.517
718,1.1946,456.517
719,1.196267,456.796
720,1.197933,457.06
721,1.1996,457.291
722,1.201267,457.291
723,1.202933,457.526
724,1.2046,457.75
725,1.206267,457.75
726,1.207933,457.992
727,1.2096,458.223
728,1.211267,458.476
729,1.212983,458.476
730,1.2146,458.737
731,1.216267,458.942
732,1.217933,459.167
733,1.2196,459.167
734,1.221267,459.359
735,1.222933,459.527
736,1.2246,459.675
737,1.226267,459.675
738,1.227917,459.812
739,1.229583,459.949
740,1.23125,460.044
741,1.232917,460.044
742,1.234583,460.152
743,1.23625,460.266
744,1.237917,460.266
745,1.239583,460.34
746,1.24125,460.476
747,1.242917,460.581
748,1.244567,460.581
749,1.246317,460.645
750,1.2479,460.747
751,1.249567,460.795
752,1.251233,460.795
753,1.2529,460.876
754,1.254567,460.967
755,1.256233,461.031
756,1.2579,461.031
757,1.259567,461.085
758,1.261233,461.119
759,1.2629,461.119
760,1.264567,461.145
761,1.266233,461.141
762,1.2679,461.167
763,1.269567,461.167
764,1.271233,461.167
765,1.2729,461.145
766,1.274567,461.128
767,1.276233,461.128
768,1.2779,461.08
769,1.279567,461.037
770,1.28125,460.985
771,1.2829,460.985
772,1.284567,460.94
773,1.286233,460.911
774,1.2879,460.879
775,1.289567,460.879
776,1.291233,460.821
777,1.2929,460.771
778,1.294567,460.771
779,1.296233,460.655
780,1.2979,460.521
781,1.299567,460.448
782,1.301233,460.448
783,1.3029,460.354
784,1.30455,460.304
785,1.306217,460.216
786,1.307883,460.216
787,1.30955,460.096
788,1.311217,460.002
789,1.312883,459.854
790,1.314583,459.854
791,1.316217,459.719
792,1.317883,459.606
793,1.31955,459.606
794,1.321217,459.436
795,1.322883,459.302
796,1.32455,459.197
797,1.326233,459.197
798,1.327883,459.055
799,1.32955,458.888
800,1.331267,458.723
801,1.332883,458.723
802,1.33455,458.507
803,1.336217,458.311
804,1.337883,458.14
805,1.33955,458.14
806,1.341217,457.92
807,1.342883,457.731
808,1.34455,457.731
809,1.346217,457.5
810,1.347883,457.306
811,1.34955,457.132
812,1.351217,457.132
813,1.352883,456.942
814,1.35455,456.773
815,1.356217,456.569
816,1.357883,456.569
817,1.35955,456.335
818,1.361217,456.075
819,1.362883,455.838
820,1.36465,455.838
821,1.3662,455.602
822,1.367867,455.371
823,1.369533,455.133
824,1.3712,455.133
825,1.372867,454.838
826,1.374533,454.538
827,1.3762,454.538
828,1.377867,454.27
829,1.379533,454.028
830,1.3812,453.766
831,1.382867,453.766
832,1.384533,453.509
833,1.3862,453.241
834,1.387867,452.922
835,1.389567,452.922
836,1.3912,452.61
837,1.392867,452.267
838,1.394533,451.913
839,1.3962,451.913
840,1.397867,451.594
841,1.399533,451.303
842,1.4012,451.303
843,1.402867,450.996
844,1.404533,450.682
845,1.4062,450.37
846,1.407867,450.37
847,1.409533,450.065
848,1.4112,449.786
849,1.412867,449.505
850,1.41455,449.505
851,1.4162,449.214
852,1.417867,448.901
853,1.419533,448.556
854,1.4212,448.556
855,1.422867,448.227
856,1.424533,447.873
857,1.426183,447.499
858,1.42785,447.499
859,1.429517,447.167
860,1.431183,446.817
861,1.43285,446.817
862,1.434517,446.509
863,1.436183,446.188
864,1.43785,445.845
865,1.439517,445.845
866,1.441183,445.485
867,1.44285,445.139
868,1.444517,444.811
869,1.446183,444.811
870,1.44785,444.465
871,1.449583,444.137
872,1.451183,443.761
873,1.45285,443.761
874,1.454533,443.403
875,1.456183,443.033
876,1.45785,443.033
877,1.459517,442.647
878,1.461183,442.287
879,1.46285,441.891
880,1.464517,441.891
881,1.46625,441.539
882,1.46785,441.169
883,1.469517,440.767
884,1.471183,440.767
885,1.47285,440.361
886,1.474517,439.932
887,1.476183,439.528
888,1.47785,439.528
889,1.479517,439.125
890,1.481183,438.754
891,1.48295,438.362
892,1.484517,438.362
893,1.486167,437.947
894,1.487833,437.561
895,1.4895,437.561
896,1.491167,437.125
897,1.492833,436.711
898,1.4945,436.313
899,1.496167,436.313
900,1.497833,435.878
901,1.4995,435.469
902,1.501167,435.042
903,1.502833,435.042
904,1.5045,434.618
905,1.506167,434.224
906,1.507833,433.826
907,1.509517,433.826
908,1.511167,433.428
909,1.512833,432.999
910,1.5145,432.999
911,1.516167,432.55
912,1.517817,432.073
913,1.519483,431.594
914,1.52115,431.594
915,1.522817,431.131
916,1.524483,430.711
917,1.52615,430.302
918,1.527817,430.302
919,1.529483,429.881
920,1.53115,429.467
921,1.532817,428.998
922,1.534483,428.998
923,1.53615,428.513
924,1.537817,428.031
925,1.539483,428.031
926,1.54115,427.563
927,1.542817,427.102
928,1.544467,426.693
929,1.546133,426.693
930,1.5478,426.257
931,1.549467,425.794
932,1.551133,425.344
933,1.5528,425.344
934,1.554467,424.859
935,1.556133,424.396
936,1.5578,423.939
937,1.559467,423.939
938,1.561133,423.472
939,1.5628,423.037
940,1.564467,422.613
941,1.566133,422.613
942,1.5678,422.188
943,1.569467,421.756
944,1.571133,421.756
945,1.5728,421.3
946,1.574467,420.836
947,1.576133,420.345
948,1.5778,420.345
949,1.579467,419.86
950,1.581133,419.371
951,1.5828,418.898
952,1.5845,418.898
953,1.586133,418.427
954,1.5878,417.966
955,1.589467,417.499
956,1.591133,417.499
957,1.5928,417.009
958,1.594467,416.557
959,1.596133,416.557
960,1.5978,416.092
961,1.599483,415.632
962,1.601217,415.2
963,1.6028,415.2
964,1.60445,414.719
965,1.606117,414.219
966,1.607783,413.69
967,1.60945,413.69
968,1.611117,413.185
969,1.612783,412.688
970,1.61445,412.172
971,1.616117,412.172
972,1.6179,411.729
973,1.61945,411.247
974,1.621117,410.776
975,1.622783,410.776
976,1.62445,410.302
977,1.626117,409.757
978,1.627783,409.757
979,1.62945,409.228
980,1.631117,408.702
981,1.632783,408.218
