"ID","sea_time","fid_signal"
1,0,140.019
2,0.001667,140.093
3,0.003333,140.294
4,0.005,140.294
5,0.006667,140.376
6,0.008366999999999999,140.049
7,0.01,139.795
8,0.011667,139.795
9,0.013333,139.222
10,0.015,139.296
11,0.016667,139.512
12,0.018333,139.512
13,0.02,139.743
14,0.021667,140.063
15,0.023333,140.063
16,0.025,140.011
17,0.026667,139.803
18,0.028333,139.683
19,0.03,139.683
20,0.031667,139.676
21,0.033333,139.706
22,0.035,139.698
23,0.036667,139.698
24,0.038333,139.624
25,0.039983,139.549
26,0.041667,139.4
27,0.043317,139.4
28,0.044983,139.497
29,0.04665,139.564
30,0.048317,139.564
31,0.049983,139.922
32,0.05165,139.982
33,0.053317,140.227
34,0.054983,140.227
35,0.05665,140.466
36,0.0583,140.287
37,0.059967,140.54
38,0.06165,140.54
39,0.0633,140.227
40,0.064967,139.922
41,0.066633,139.944
42,0.0683,139.944
43,0.069967,139.952
44,0.071633,140.019
45,0.073367,140.086
46,0.07496700000000001,140.086
47,0.07663300000000001,140.071
48,0.07829999999999999,140.011
49,0.079967,140.011
50,0.081633,140.093
51,0.0833,140.265
52,0.084967,140.354
53,0.086633,140.354
54,0.0883,140.384
55,0.08996700000000001,140.212
56,0.09163300000000001,139.929
57,0.09329999999999999,139.929
58,0.094967,139.616
59,0.096633,139.497
60,0.0983,139.661
61,0.09995,139.661
62,0.101617,139.818
63,0.103283,139.832
64,0.10495,139.832
65,0.106733,139.9
66,0.108283,139.803
67,0.10995,139.795
68,0.111617,139.795
69,0.113283,139.929
70,0.11495,140.004
71,0.116617,140.063
72,0.118283,140.063
73,0.11995,139.982
74,0.121617,140.183
75,0.123283,140.004
76,0.12495,140.004
77,0.126633,139.974
78,0.128283,140.019
79,0.12995,139.929
80,0.131617,139.929
81,0.133283,139.959
82,0.13495,140.101
83,0.136617,140.101
84,0.138283,140.28
85,0.13995,140.309
86,0.141617,140.369
87,0.143283,140.369
88,0.144967,140.093
89,0.146617,140.101
90,0.1483,139.989
91,0.14995,139.989
92,0.151617,139.87
93,0.153283,139.825
94,0.15495,139.423
95,0.156617,139.423
96,0.158283,139.482
97,0.159933,139.698
98,0.1616,139.698
99,0.163267,140.086
100,0.164933,140.369
101,0.1666,140.302
102,0.168267,140.302
103,0.169933,140.078
104,0.1716,140.026
105,0.173267,140.235
106,0.174933,140.235
107,0.1766,140.399
108,0.178267,140.637
109,0.179933,140.667
110,0.1816,140.667
111,0.183267,140.63
112,0.184933,140.525
113,0.1866,140.525
114,0.188267,140.354
115,0.189933,140.183
116,0.191667,139.922
117,0.193267,139.922
118,0.194933,139.758
119,0.1966,139.795
120,0.198267,139.855
121,0.199933,139.855
122,0.2016,139.892
123,0.203267,140.131
124,0.204933,140.049
125,0.2066,140.049
126,0.208267,140.212
127,0.209933,140.458
128,0.2116,140.488
129,0.213267,140.488
130,0.214933,140.622
131,0.2166,140.51
132,0.218267,140.51
133,0.219917,140.317
134,0.221617,139.996
135,0.22325,139.847
136,0.225,139.847
137,0.226583,139.944
138,0.22825,140.145
139,0.229917,140.347
140,0.231583,140.347
141,0.23325,140.667
142,0.234917,140.451
143,0.236583,140.399
144,0.23825,140.399
145,0.239917,140.406
146,0.241583,140.339
147,0.24325,140.339
148,0.244917,140.54
149,0.246583,140.414
150,0.24825,140.481
151,0.249917,140.481
152,0.251583,140.414
153,0.25325,140.458
154,0.254917,140.429
155,0.256583,140.429
156,0.25825,140.525
157,0.259917,140.734
158,0.261583,140.369
159,0.26325,140.369
160,0.264917,140.265
161,0.266583,139.885
162,0.26825,139.624
163,0.269917,139.624
164,0.271583,139.982
165,0.27325,140.049
166,0.274917,140.049
167,0.276583,140.034
168,0.278233,139.907
169,0.2799,139.728
170,0.281567,139.728
171,0.283233,139.84
172,0.2849,139.974
173,0.286567,140.16
174,0.288233,140.16
175,0.2899,140.071
176,0.291567,140.175
177,0.293283,140.116
178,0.2949,140.116
179,0.296567,139.885
180,0.298233,140.071
181,0.299933,140.071
182,0.301567,140.302
183,0.303233,140.518
184,0.3049,140.697
185,0.306567,140.697
186,0.308233,140.749
187,0.309933,140.727
188,0.311567,141.256
189,0.313233,141.256
190,0.3149,141.941
191,0.316567,143.051
192,0.318233,144.243
193,0.3199,144.243
194,0.321567,145.331
195,0.323233,146.739
196,0.3249,148.185
197,0.326617,148.185
198,0.328233,150.085
199,0.3299,152.513
200,0.331567,152.513
201,0.333233,155.084
202,0.3349,158.064
203,0.336567,161.536
204,0.338233,161.536
205,0.339883,165.813
206,0.34155,171.348
207,0.34335,178.017
208,0.344883,178.017
209,0.34655,185.274
210,0.348217,193.425
211,0.349867,202.701
212,0.351533,202.701
213,0.3532,212.997
214,0.354867,224.933
215,0.356533,224.933
216,0.3582,238.113
217,0.359867,252.94
218,0.361533,269.51
219,0.3632,269.51
220,0.364867,288.129
221,0.366533,308.7
222,0.368217,331.357
223,0.369867,331.357
224,0.371533,356.48
225,0.3732,383.817
226,0.374867,414.006
227,0.376533,414.006
228,0.3782,446.603
229,0.379867,482.403
230,0.381533,482.403
231,0.3832,521.354
232,0.384867,563.927
233,0.386533,610.225
234,0.388217,610.225
235,0.389867,660.405
236,0.391533,715.01
237,0.3932,774.115
238,0.394867,774.115
239,0.396533,838.056
240,0.3982,906.669
241,0.39985,980.556
242,0.401517,980.556
243,0.403183,1059.786
244,0.40485,1144.61
245,0.406517,1234.852
246,0.408183,1234.852
247,0.40985,1330.085
248,0.411517,1430.295
249,0.413183,1430.295
250,0.41485,1535.274
251,0.416517,1644.865
252,0.418183,1758.501
253,0.41985,1758.501
254,0.421517,1875.192
255,0.423183,1994.17
256,0.42485,2114.639
257,0.426517,2114.639
258,0.428217,2235.897
259,0.42985,2356.835
260,0.431517,2476.737
261,0.433183,2476.737
262,0.43485,2593.86
263,0.436517,2707.385
264,0.438217,2817.154
265,0.43985,2817.154
266,0.441517,2921.447
267,0.443183,3020.19
268,0.4449,3020.19
269,0.446517,3112.264
270,0.448183,3197.096
271,0.44985,3274.21
272,0.451517,3274.21
273,0.453183,3343.15
274,0.45485,3403.492
275,0.456517,3454.737
276,0.458167,3454.737
277,0.459833,3497.698
278,0.461633,3531.836
279,0.463167,3558.032
280,0.464833,3558.032
281,0.4665,3576.234
282,0.468167,3586.017
283,0.469833,3586.017
284,0.4715,3588.393
285,0.473167,3583.789
286,0.474833,3572.702
287,0.4765,3572.702
288,0.478167,3555.447
289,0.479833,3532.618
290,0.4815,3503.911
291,0.483167,3503.911
292,0.484833,3470.786
293,0.4865,3433.391
294,0.488167,3391.922
295,0.489833,3391.922
296,0.4915,3347.68
297,0.493167,3299.929
298,0.494833,3299.929
299,0.4965,3249.936
300,0.498167,3197.849
301,0.499833,3144.003
302,0.5014999999999999,3144.003
303,0.503167,3088.765
304,0.504833,3032.386
305,0.5065,2975.441
306,0.508167,2975.441
307,0.509833,2917.588
308,0.5115,2859.25
309,0.513167,2800.688
310,0.514833,2800.688
311,0.5165,2742.223
312,0.518167,2683.774
313,0.519817,2625.793
314,0.521483,2625.793
315,0.52315,2568.215
316,0.524817,2511.092
317,0.526483,2511.092
318,0.52815,2454.937
319,0.529833,2399.824
320,0.531483,2345.443
321,0.53315,2345.443
322,0.534817,2291.843
323,0.536483,2239.123
324,0.53815,2187.282
325,0.539817,2187.282
326,0.541483,2136.595
327,0.54315,2086.684
328,0.544817,2037.51
329,0.5464830000000001,2037.51
330,0.54815,1989.29
331,0.549817,1942.128
332,0.5514829999999999,1942.128
333,0.55315,1896.337
334,0.554817,1851.738
335,0.5564829999999999,1808.017
336,0.558167,1808.017
337,0.559817,1765.81
338,0.561483,1724.817
339,0.563233,1684.614
340,0.564817,1684.614
341,0.566483,1645.2
342,0.56815,1606.494
343,0.569817,1568.571
344,0.571483,1568.571
345,0.57315,1531.72
346,0.574817,1496.188
347,0.576483,1496.188
348,0.578133,1461.603
349,0.579883,1428.142
350,0.581467,1395.546
351,0.583133,1395.546
352,0.584833,1363.538
353,0.586467,1332.32
354,0.588133,1301.631
355,0.5898,1301.631
356,0.591467,1271.792
357,0.593133,1242.891
358,0.5948,1214.847
359,0.596583,1214.847
360,0.598133,1187.757
361,0.5998,1161.247
362,0.601467,1135.685
363,0.603133,1135.685
364,0.6048,1110.539
365,0.606467,1085.907
366,0.608133,1085.907
367,0.6098,1062.646
368,0.611467,1039.632
369,0.613133,1017.399
370,0.6148,1017.399
371,0.616467,995.487
372,0.618133,973.739
373,0.6198,953.056
374,0.621467,953.056
375,0.623133,932.7380000000001
376,0.6248,913.3
377,0.626467,894.524
378,0.6281330000000001,894.524
379,0.6298,875.756
380,0.631467,858.128
381,0.6331329999999999,858.128
382,0.6348,840.552
383,0.63645,823.349
384,0.638117,806.674
385,0.639767,806.674
386,0.641433,789.985
387,0.643133,774.086
388,0.644767,758.715
389,0.646433,758.715
390,0.6481,743.9400000000001
391,0.649767,729.3
392,0.651467,715.092
393,0.6531,715.092
394,0.654767,701.465
395,0.656433,687.897
396,0.6581,674.888
397,0.659767,674.888
398,0.661433,662.3339999999999
399,0.6631,649.728
400,0.664767,649.728
401,0.6664330000000001,637.516
402,0.6681,625.8339999999999
403,0.669767,614.39
404,0.6714329999999999,614.39
405,0.6731,603.504
406,0.674767,592.7910000000001
407,0.676433,582.36
408,0.6781,582.36
409,0.679767,571.907
410,0.6814829999999999,561.818
411,0.6831,552.066
412,0.684767,552.066
413,0.686433,542.6849999999999
414,0.6881,533.64
415,0.689767,533.64
416,0.691433,524.722
417,0.6931,515.893
418,0.694767,507.072
419,0.696433,507.072
420,0.698117,498.258
421,0.69975,489.965
422,0.701417,482.112
423,0.703083,482.112
424,0.704767,474.356
425,0.706417,466.883
426,0.708083,459.358
427,0.70975,459.358
428,0.711417,452.25
429,0.713083,445.314
430,0.714883,438.727
431,0.716417,438.727
432,0.718083,432.007
433,0.71975,425.421
434,0.721417,425.421
435,0.723083,419.095
436,0.724783,412.762
437,0.726417,406.779
438,0.728083,406.779
439,0.72975,400.767
440,0.731417,394.985
441,0.733083,389.688
442,0.73475,389.688
443,0.736417,384.39
444,0.738083,379.533
445,0.73975,374.25
446,0.741417,374.25
447,0.743083,369.266
448,0.74475,364.736
449,0.746417,364.736
450,0.7480830000000001,359.878
451,0.74975,355.177
452,0.751417,350.744
453,0.7530829999999999,350.744
454,0.75475,346.132
455,0.756417,341.93
456,0.758083,337.966
457,0.759733,337.966
458,0.7614,333.674
459,0.7630670000000001,329.517
460,0.764733,325.471
461,0.7664,325.471
462,0.7680670000000001,321.5
463,0.769733,317.79
464,0.7714,317.79
465,0.7730669999999999,314.035
466,0.774733,310.369
467,0.7764,307.173
468,0.778067,307.173
469,0.779733,303.671
470,0.7814,300.437
471,0.783067,297.114
472,0.784733,297.114
473,0.7864,293.985
474,0.788067,291.049
475,0.78975,288.27
476,0.791417,288.27
477,0.793067,285.454
478,0.794733,282.571
479,0.7964,279.769
480,0.798067,279.769
481,0.79975,277.184
482,0.8014,274.777
483,0.803067,274.777
484,0.804733,272.185
485,0.8064,269.823
486,0.808067,267.26
487,0.809733,267.26
488,0.8114,264.786
489,0.813067,262.558
490,0.814733,260.226
491,0.8164,260.226
492,0.818067,258.029
493,0.819717,255.801
494,0.821383,253.528
495,0.8230499999999999,253.528
496,0.824717,251.278
497,0.826383,248.924
498,0.82805,248.924
499,0.829717,246.726
500,0.831383,244.752
501,0.833167,242.844
502,0.834717,242.844
503,0.836383,241.049
504,0.83805,239.238
505,0.839717,237.525
506,0.841383,237.525
507,0.84305,235.625
508,0.8447170000000001,233.755
509,0.846383,231.989
510,0.84805,231.989
511,0.8497169999999999,230.074
512,0.851383,228.353
513,0.85305,226.595
514,0.8547169999999999,226.595
515,0.856383,225.052
516,0.85805,223.525
517,0.859717,223.525
518,0.861383,222.057
519,0.86305,220.634
520,0.864717,218.965
521,0.866383,218.965
522,0.86805,217.333
523,0.869733,215.97
524,0.871383,214.89
525,0.87305,214.89
526,0.874717,213.921
527,0.876383,212.967
528,0.87805,211.984
529,0.8797,211.984
530,0.881367,210.606
531,0.883033,209.436
532,0.8847,209.436
533,0.886367,208.43
534,0.888033,207.037
535,0.8897,206.023
536,0.891367,206.023
537,0.893033,205.107
538,0.8947000000000001,203.781
539,0.896367,203.043
540,0.898033,203.043
541,0.8997000000000001,201.918
542,0.901367,200.666
543,0.903033,199.646
544,0.9046999999999999,199.646
545,0.906367,198.357
546,0.908033,197.522
547,0.9097,196.896
548,0.911367,196.896
549,0.913033,196.047
550,0.9147,195.213
551,0.916367,195.213
552,0.918067,194.274
553,0.9197,193.022
554,0.921367,192.255
555,0.923033,192.255
556,0.9247,191.808
557,0.9263670000000001,191.033
558,0.928033,190.444
559,0.9297,190.444
560,0.93135,189.93
561,0.933017,188.746
562,0.93475,187.814
563,0.93635,187.814
564,0.9379999999999999,187.062
565,0.9397,186.227
566,0.94135,186.227
567,0.9429999999999999,185.765
568,0.944667,185.199
569,0.946333,184.35
570,0.948,184.35
571,0.949667,183.426
572,0.95145,182.629
573,0.953,182.219
574,0.954667,182.219
575,0.956333,182.01
576,0.958,181.69
577,0.959667,181.012
578,0.961333,181.012
579,0.963,180.066
580,0.9646670000000001,179.157
581,0.966333,179.157
582,0.968,178.501
583,0.9696669999999999,177.987
584,0.971333,177.801
585,0.973,177.801
586,0.974667,177.242
587,0.976333,176.564
588,0.978,175.975
589,0.979667,175.975
590,0.981333,175.178
591,0.983,174.515
592,0.984667,174.142
593,0.986333,174.142
594,0.988,173.733
595,0.989667,173.323
596,0.991333,173.301
597,0.993,173.301
598,0.994667,172.846
599,0.996333,172.518
600,0.997983,172.518
601,0.99965,172.108
602,1.001317,171.266
603,1.002983,170.618
604,1.00465,170.618
605,1.006317,170.052
606,1.007983,169.933
607,1.00965,169.761
608,1.01135,169.761
609,1.012983,169.463
610,1.01465,169.337
611,1.016317,168.853
612,1.017983,168.853
613,1.01965,168.093
614,1.021317,167.564
615,1.022983,167.564
616,1.02465,167.139
617,1.026317,166.588
618,1.027983,166.401
619,1.02965,166.401
620,1.031317,166.327
621,1.032983,165.895
622,1.03465,165.671
623,1.036367,165.671
624,1.037983,165.619
625,1.03965,165.448
626,1.041317,165.328
627,1.042983,165.328
628,1.04465,164.866
629,1.046317,164.427
630,1.047983,163.846
631,1.04965,163.846
632,1.051317,163.399
633,1.052983,163.205
634,1.05465,163.205
635,1.056317,162.914
636,1.057983,162.706
637,1.059633,162.132
638,1.0613,162.132
639,1.062967,161.789
640,1.064633,161.909
641,1.0663,162.072
642,1.067967,162.072
643,1.069767,162.348
644,1.0713,162.244
645,1.072967,161.491
646,1.074633,161.491
647,1.0763,160.813
648,1.077967,160.292
649,1.079633,160.292
650,1.0813,160.024
651,1.082967,159.696
652,1.08465,159.726
653,1.0863,159.726
654,1.087967,159.658
655,1.089633,159.226
656,1.0913,159.144
657,1.092967,159.144
658,1.094633,158.63
659,1.0963,158.526
660,1.097967,158.533
661,1.099633,158.533
662,1.1013,158.064
663,1.102967,157.654
664,1.104633,157.058
665,1.1063,157.058
666,1.108,156.611
667,1.109633,156.879
668,1.1113,156.879
669,1.112967,157.073
670,1.114633,157.14
671,1.1163,157.081
672,1.11795,157.081
673,1.119617,156.939
674,1.121283,156.671
675,1.12295,156.276
676,1.124617,156.276
677,1.126283,156.306
678,1.12795,156.052
679,1.129617,155.956
680,1.131283,155.956
681,1.13295,155.993
682,1.134617,155.985
683,1.136283,155.985
684,1.13795,155.978
685,1.139617,156.015
686,1.141283,155.784
687,1.14295,155.784
688,1.144617,155.412
689,1.146283,155.173
690,1.14795,154.607
691,1.149617,154.607
692,1.151283,154.354
693,1.15295,154.249
694,1.154667,154.108
695,1.156283,154.108
696,1.15795,154.428
697,1.159617,154.324
698,1.1613,153.929
699,1.16295,153.929
700,1.164617,153.81
701,1.166283,153.206
702,1.16795,153.206
703,1.169617,153.132
704,1.17135,153.124
705,1.17295,152.931
706,1.174617,152.931
707,1.176283,153.005
708,1.17795,152.856
709,1.1796,152.841
710,1.181267,152.841
711,1.182933,152.819
712,1.1846,152.372
713,1.186267,152.364
714,1.188,152.364
715,1.1896,152.402
716,1.191267,152.439
717,1.192933,152.439
718,1.1946,152.603
719,1.196267,152.573
720,1.197933,152.424
721,1.1996,152.424
722,1.201267,151.88
723,1.202933,151.739
724,1.2046,151.433
725,1.206267,151.433
726,1.207933,151.15
727,1.2096,151.172
728,1.211267,151.09
729,1.212933,151.09
730,1.2146,151.031
731,1.216267,150.882
732,1.217933,150.882
733,1.2196,150.777
734,1.221267,150.733
735,1.222917,150.591
736,1.2246,150.591
737,1.22625,150.613
738,1.227917,150.569
739,1.229583,150.681
740,1.23125,150.681
741,1.232917,150.613
742,1.234583,150.524
743,1.23625,150.405
744,1.237917,150.405
745,1.239567,149.935
746,1.241233,150.092
747,1.2429,150.166
748,1.244567,150.166
749,1.246233,150.271
750,1.2479,150.472
751,1.249567,150.472
752,1.251233,150.293
753,1.2529,150.003
754,1.254567,149.846
755,1.256233,149.846
756,1.2579,149.779
757,1.259567,149.801
758,1.261233,149.794
759,1.2629,149.794
760,1.264567,149.712
761,1.266233,149.444
762,1.2679,149.168
763,1.269567,149.168
764,1.271233,148.952
765,1.272983,148.721
766,1.274567,148.721
767,1.276233,148.252
768,1.2779,148.207
769,1.279567,148.177
770,1.281233,148.177
771,1.2829,148.319
772,1.284567,148.691
773,1.286233,148.579
774,1.2879,148.579
775,1.289617,148.721
776,1.291233,148.751
777,1.2929,148.825
778,1.294567,148.825
779,1.296233,148.781
780,1.2979,148.505
781,1.29955,148.274
782,1.301217,148.274
783,1.302883,148.043
784,1.30455,148.103
785,1.306333,148.103
786,1.307883,147.916
787,1.30955,147.79
788,1.311217,147.901
789,1.312883,147.901
790,1.31455,147.484
791,1.316217,147.618
792,1.317883,147.454
793,1.31955,147.454
794,1.321217,147.112
795,1.322883,147.291
796,1.32455,147.134
797,1.326217,147.134
798,1.327883,147.112
799,1.32955,146.955
800,1.331217,146.955
801,1.332883,146.94
802,1.33455,147.097
803,1.336233,147.119
804,1.337883,147.119
805,1.33955,147.343
806,1.341217,147.112
807,1.342883,146.724
808,1.34455,146.724
809,1.346217,146.881
810,1.347883,146.762
811,1.34955,146.843
812,1.351217,146.843
813,1.352883,146.851
814,1.35455,146.709
815,1.356217,146.858
816,1.357917,146.858
817,1.359533,146.501
818,1.3612,146.665
819,1.362867,146.665
820,1.364533,146.255
821,1.36625,145.756
822,1.367867,146.121
823,1.369533,146.121
824,1.3712,145.808
825,1.372867,146.054
826,1.374533,146.404
827,1.3762,146.404
828,1.377867,146.165
829,1.379533,146.352
830,1.3812,146.344
831,1.382867,146.344
832,1.384533,146.136
833,1.3862,146.24
834,1.387867,146.24
835,1.389533,146.173
836,1.3912,146.024
837,1.392867,146.106
838,1.394533,146.106
839,1.3962,145.875
840,1.397867,145.92
841,1.399533,145.86
842,1.4012,145.86
843,1.402867,145.733
844,1.404533,145.942
845,1.4062,145.741
846,1.40795,145.741
847,1.409533,145.651
848,1.4112,145.651
849,1.412867,145.651
850,1.414533,145.599
851,1.4162,145.696
852,1.41785,145.584
853,1.419517,145.584
854,1.421183,145.301
855,1.42285,144.988
856,1.4246,144.854
857,1.426183,144.854
858,1.42785,144.72
859,1.429517,144.765
860,1.431183,145.175
861,1.43285,145.175
862,1.434517,145.189
863,1.436183,145.622
864,1.43785,145.681
865,1.439517,145.681
866,1.4413,145.391
867,1.44285,145.361
868,1.444517,145.361
869,1.446183,145.093
870,1.44785,145.279
871,1.449517,145.502
872,1.451183,145.502
873,1.45285,145.696
874,1.454517,145.778
875,1.456183,145.592
876,1.45785,145.592
877,1.459517,145.227
878,1.461183,144.929
879,1.46285,144.683
880,1.464517,144.683
881,1.466183,144.616
882,1.46785,144.579
883,1.469517,144.579
884,1.471183,144.616
885,1.47285,144.668
886,1.474517,144.623
887,1.476183,144.623
888,1.477833,145.003
889,1.4795,144.854
890,1.481167,144.824
891,1.482833,144.824
892,1.4845,145.063
893,1.486167,144.787
894,1.487833,144.854
895,1.4895,144.854
896,1.491167,144.742
897,1.492833,144.526
898,1.4945,144.452
899,1.496167,144.452
900,1.497833,144.78
901,1.4995,144.958
902,1.5012,144.958
903,1.502833,145.145
904,1.5045,145.271
905,1.506167,145.07
906,1.507833,145.07
907,1.5095,144.981
908,1.511167,144.675
909,1.512833,144.541
910,1.514483,144.541
911,1.516183,144.444
912,1.517817,144.519
913,1.519483,144.809
914,1.52115,144.809
915,1.522817,144.824
916,1.524483,144.75
917,1.526217,144.75
918,1.527817,144.69
919,1.529483,144.564
920,1.53115,144.504
921,1.532817,144.504
922,1.534483,144.541
923,1.53615,144.579
924,1.537817,144.43
925,1.539467,144.43
926,1.541133,144.392
927,1.54285,144.348
928,1.544467,144.213
929,1.546133,144.213
930,1.5478,144.355
931,1.549467,144.072
932,1.551133,144.072
933,1.5528,143.781
934,1.554467,143.893
935,1.556133,143.655
936,1.5578,143.655
937,1.559583,143.878
938,1.561133,143.833
939,1.5628,143.766
940,1.564467,143.766
941,1.566133,143.96
942,1.5678,143.811
943,1.569467,144.169
944,1.571133,144.169
945,1.5728,144.117
946,1.574467,143.722
947,1.576133,143.729
948,1.577817,143.729
949,1.579467,143.565
950,1.581133,143.61
951,1.5828,143.61
952,1.584467,143.699
953,1.586133,143.662
954,1.5878,143.453
955,1.589467,143.453
956,1.591133,143.521
957,1.5928,143.692
958,1.594467,143.751
959,1.596133,143.751
960,1.5978,143.96
