"ID","sea_time","fid_signal"
1,0,139.907
2,0.0016,139.907
3,0.003267,139.713
4,0.004933,140.108
5,0.0066,140.108
6,0.008267,140.257
7,0.009933000000000001,140.272
8,0.0116,140.257
9,0.01325,140.257
10,0.014917,139.818
11,0.016583,139.758
12,0.01825,139.818
13,0.019917,139.818
14,0.021583,139.944
15,0.02325,140.049
16,0.02495,140.049
17,0.026583,140.049
18,0.028233,140.011
19,0.0299,140.183
20,0.031567,140.183
21,0.033233,140.466
22,0.0349,140.473
23,0.036567,140.749
24,0.038233,140.749
25,0.0399,140.615
26,0.041567,140.578
27,0.043233,140.958
28,0.0449,140.958
29,0.046567,140.943
30,0.04825,140.928
31,0.049917,140.533
32,0.051567,140.533
33,0.053233,140.131
34,0.0549,140.101
35,0.056567,139.967
36,0.058233,139.967
37,0.0599,140.16
38,0.061567,140.257
39,0.063233,140.257
40,0.0649,140.153
41,0.066567,140.205
42,0.068233,140.287
43,0.0699,140.287
44,0.07156700000000001,140.563
45,0.07323300000000001,140.652
46,0.07489999999999999,140.689
47,0.076567,140.689
48,0.078233,140.391
49,0.0799,140.265
50,0.081567,140.555
51,0.083233,140.555
52,0.08491700000000001,140.704
53,0.08656700000000001,141.107
54,0.088217,141.107
55,0.089883,140.95
56,0.09155000000000001,140.481
57,0.09325,140.153
58,0.094883,140.153
59,0.09655,140.056
60,0.098217,140.131
61,0.099883,140.212
62,0.101567,140.212
63,0.103217,140.384
64,0.104883,140.414
65,0.10655,140.242
66,0.108217,140.242
67,0.109883,140.183
68,0.11155,139.914
69,0.113217,139.914
70,0.114883,139.639
71,0.11655,139.788
72,0.118317,139.989
73,0.119883,139.989
74,0.12155,140.086
75,0.123217,140.086
76,0.124883,140.175
77,0.12655,140.175
78,0.128217,140.101
79,0.129883,140.183
80,0.13155,140.056
81,0.133217,140.056
82,0.134883,139.855
83,0.13655,139.579
84,0.138217,139.46
85,0.139883,139.46
86,0.14155,139.534
87,0.143217,139.482
88,0.144883,139.482
89,0.14655,139.602
90,0.148217,139.952
91,0.149867,140.347
92,0.151533,140.347
93,0.1532,140.719
94,0.154867,140.794
95,0.156533,140.436
96,0.1582,140.436
97,0.159867,140.294
98,0.161533,139.907
99,0.1632,140.063
100,0.164867,140.063
101,0.166533,139.959
102,0.1682,139.929
103,0.169867,139.929
104,0.171533,139.974
105,0.1732,139.683
106,0.174867,139.877
107,0.176533,139.877
108,0.1782,139.803
109,0.179867,139.877
110,0.181533,140.063
111,0.1832,140.063
112,0.184867,140.086
113,0.186533,140.056
114,0.1882,140.317
115,0.189867,140.317
116,0.191533,140.332
117,0.1932,140.071
118,0.194867,140.354
119,0.196533,140.354
120,0.1982,140.22
121,0.199867,140.026
122,0.201533,140.026
123,0.2032,140.361
124,0.204867,140.235
125,0.206533,139.982
126,0.208183,139.982
127,0.20985,140.145
128,0.211517,140.361
129,0.213183,140.369
130,0.214867,140.369
131,0.216517,140.443
132,0.218183,140.615
133,0.21985,140.443
134,0.221517,140.443
135,0.223183,140.645
136,0.22485,141.032
137,0.226517,141.032
138,0.228183,141.107
139,0.22985,141.241
140,0.231517,140.794
141,0.233183,140.794
142,0.23485,140.652
143,0.236567,140.406
144,0.238183,140.153
145,0.23985,140.153
146,0.241517,140.51
147,0.243183,140.183
148,0.24485,139.974
149,0.246517,139.974
150,0.248183,139.795
151,0.24985,139.475
152,0.251517,139.691
153,0.253183,139.691
154,0.25485,139.892
155,0.256517,140.145
156,0.258183,140.145
157,0.25985,140.361
158,0.261517,140.384
159,0.263183,140.339
160,0.26485,140.339
161,0.266517,140.369
162,0.268167,140.354
163,0.269833,140.563
164,0.2715,140.563
165,0.273167,140.66
166,0.274833,140.637
167,0.2765,140.794
168,0.278183,140.794
169,0.279833,140.384
170,0.2815,140.235
171,0.283167,140.235
172,0.284833,140.294
173,0.2865,139.959
174,0.288167,140.361
175,0.289833,140.361
176,0.2915,140.235
177,0.293167,140.22
178,0.294833,140.734
179,0.2965,140.734
180,0.298183,140.6
181,0.299833,140.898
182,0.301517,140.756
183,0.303167,140.756
184,0.304817,140.429
185,0.306483,140.853
186,0.30815,140.853
187,0.309817,141.352
188,0.311483,142.053
189,0.31315,142.768
190,0.314817,142.768
191,0.316483,143.349
192,0.31815,144.027
193,0.319817,144.839
194,0.3215,144.839
195,0.32315,145.964
196,0.324817,147.417
197,0.326483,149.846
198,0.328133,149.846
199,0.3298,152.573
200,0.331467,155.784
201,0.333133,159.696
202,0.3348,159.696
203,0.336467,164.084
204,0.338133,169.314
205,0.3398,169.314
206,0.341467,175.752
207,0.343133,182.912
208,0.3448,191.055
209,0.346467,191.055
210,0.348133,200.555
211,0.3498,211.187
212,0.351467,223.219
213,0.353133,223.219
214,0.3549,236.928
215,0.356467,252.232
216,0.358133,269.398
217,0.3598,269.398
218,0.361467,288.583
219,0.363133,309.728
220,0.3648,309.728
221,0.366467,333.317
222,0.368133,359.409
223,0.3698,388.406
224,0.371467,388.406
225,0.373133,420.168
226,0.3748,455.208
227,0.376483,493.422
228,0.37815,493.422
229,0.3798,535.212
230,0.381467,580.966
231,0.383133,630.379
232,0.3848,630.379
233,0.386467,684.276
234,0.388117,742.845
235,0.389783,806.138
236,0.39145,806.138
237,0.393117,875.205
238,0.394783,950.076
239,0.39645,950.076
240,0.398117,1031.071
241,0.399783,1118.042
242,0.40145,1211.33
243,0.403117,1211.33
244,0.404783,1311.034
245,0.40645,1416.989
246,0.408117,1530.006
247,0.409783,1530.006
248,0.41145,1649.514
249,0.413117,1774.982
250,0.414783,1905.687
251,0.41645,1905.687
252,0.418117,2041.318
253,0.419783,2181.284
254,0.42145,2181.284
255,0.423117,2324.41
256,0.424783,2470.27
257,0.42645,2617.016
258,0.428117,2617.016
259,0.429783,2763.562
260,0.43145,2909.005
261,0.433117,3051.728
262,0.434783,3051.728
263,0.43645,3190.875
264,0.438117,3324.829
265,0.439833,3452.458
266,0.4415,3452.458
267,0.443117,3572.956
268,0.444783,3685.325
269,0.44645,3789.015
270,0.4481,3789.015
271,0.449767,3882.997
272,0.451433,3966.883
273,0.453117,3966.883
274,0.454767,4040.465
275,0.456433,4103.303
276,0.4581,4156.15
277,0.459767,4156.15
278,0.461433,4198.551
279,0.4631,4229.762
280,0.464767,4250.75
281,0.466433,4250.75
282,0.4681,4261.784
283,0.469767,4263.647
284,0.471433,4257.567
285,0.473233,4257.567
286,0.474767,4243.277
287,0.476433,4220.791
288,0.4781,4220.791
289,0.479767,4191.347
290,0.481433,4155.36
291,0.4831,4113.711
292,0.484767,4113.711
293,0.486433,4067.056
294,0.4881,4015.826
295,0.489767,3960.594
296,0.491433,3960.594
297,0.4931,3901.884
298,0.494767,3840.387
299,0.496433,3776.17
300,0.4981,3776.17
301,0.499767,3709.868
302,0.501433,3642.134
303,0.5031,3642.134
304,0.504767,3573.254
305,0.506433,3503.166
306,0.508083,3432.222
307,0.50975,3432.222
308,0.511417,3360.458
309,0.513083,3288.604
310,0.51475,3217.205
311,0.516433,3217.205
312,0.518083,3146.417
313,0.519783,3076.218
314,0.521417,3006.242
315,0.523083,3006.242
316,0.52475,2936.937
317,0.526417,2868.682
318,0.528083,2801.396
319,0.5297500000000001,2801.396
320,0.531417,2735.674
321,0.533083,2670.936
322,0.5347499999999999,2670.936
323,0.536417,2607.219
324,0.538083,2544.738
325,0.53975,2483.256
326,0.541417,2483.256
327,0.543083,2423.257
328,0.54475,2364.136
329,0.546417,2306.603
330,0.548083,2306.603
331,0.54975,2250.567
332,0.551417,2195.381
333,0.553083,2141.751
334,0.55475,2141.751
335,0.5564170000000001,2089.247
336,0.558133,2038.173
337,0.55975,2038.173
338,0.5614170000000001,1988.702
339,0.563083,1940.593
340,0.56475,1893.841
341,0.5664169999999999,1893.841
342,0.568067,1847.968
343,0.569733,1803.257
344,0.5714,1759.782
345,0.573067,1759.782
346,0.574733,1717.225
347,0.5764,1675.762
348,0.578067,1635.492
349,0.5797330000000001,1635.492
350,0.5814,1596.078
351,0.583067,1558.11
352,0.5847329999999999,1521.356
353,0.5864,1521.356
354,0.588067,1485.355
355,0.589733,1450.747
356,0.5915,1416.676
357,0.593067,1416.676
358,0.594733,1383.439
359,0.596383,1351.811
360,0.59805,1351.811
361,0.5997169999999999,1320.317
362,0.601383,1290.031
363,0.60305,1260.698
364,0.6047169999999999,1260.698
365,0.606383,1231.618
366,0.60805,1204.193
367,0.609717,1177.125
368,0.611383,1177.125
369,0.61305,1150.668
370,0.614717,1124.896
371,0.616383,1124.896
372,0.61805,1099.557
373,0.619717,1074.895
374,0.621383,1050.919
375,0.62305,1050.919
376,0.624717,1028.128
377,0.626367,1005.858
378,0.62805,984.549
379,0.6297,984.549
380,0.631367,963.636
381,0.633033,943.236
382,0.6347,923.313
383,0.636367,923.313
384,0.638033,903.472
385,0.6397,884.66
386,0.641367,866.294
387,0.643033,866.294
388,0.6447000000000001,848.234
389,0.646367,831.202
390,0.648033,831.202
391,0.6497000000000001,814.117
392,0.651367,797.346
393,0.653033,781.521
394,0.6546999999999999,781.521
395,0.656383,765.8819999999999
396,0.658033,750.735
397,0.6597,736.14
398,0.661367,736.14
399,0.66305,721.872
400,0.6647,707.999
401,0.666367,694.551
402,0.668033,694.551
403,0.6697,681.028
404,0.671367,668.019
405,0.673033,668.019
406,0.6747,655.316
407,0.676433,643.2910000000001
408,0.678033,631.452
409,0.6797,631.452
410,0.6813669999999999,619.97
411,0.683033,608.727
412,0.6847,597.581
413,0.6863669999999999,597.581
414,0.688017,587.106
415,0.689683,576.1609999999999
416,0.69135,565.909
417,0.6931,565.909
418,0.6946830000000001,556.104
419,0.69635,546.4109999999999
420,0.698017,546.4109999999999
421,0.6996830000000001,537.463
422,0.70135,528.455
423,0.703017,519.447
424,0.7046829999999999,519.447
425,0.70635,510.789
426,0.708017,502.162
427,0.709767,493.839
428,0.71135,493.839
429,0.713017,485.562
430,0.714683,477.552
431,0.71635,469.968
432,0.718017,469.968
433,0.719683,462.532
434,0.72135,455.707
435,0.723017,448.823
436,0.724683,448.823
437,0.72645,442.155
438,0.728017,435.226
439,0.729683,435.226
440,0.7313499999999999,428.274
441,0.733017,422.068
442,0.734683,415.66
443,0.7363499999999999,415.66
444,0.738017,410.02
445,0.739683,404.246
446,0.74135,398.435
447,0.743017,398.435
448,0.744683,392.668
449,0.74635,386.804
450,0.748,381.671
451,0.749667,381.671
452,0.751333,376.329
453,0.753,371.322
454,0.754667,371.322
455,0.75635,366.397
456,0.75805,361.264
457,0.759667,356.451
458,0.761333,356.451
459,0.763,351.883
460,0.764667,347.57
461,0.766333,343.36
462,0.768,343.36
463,0.769667,339.299
464,0.771333,335.328
465,0.773,331.201
466,0.774667,331.201
467,0.7763330000000001,327.148
468,0.778,323.288
469,0.779667,319.28
470,0.7813330000000001,319.28
471,0.783,315.607
472,0.784667,311.971
473,0.7863329999999999,311.971
474,0.788,308.625
475,0.789667,305.496
476,0.791333,302.412
477,0.793,302.412
478,0.794667,299.357
479,0.796333,296.22
480,0.798,293.128
481,0.799667,293.128
482,0.80135,290.044
483,0.803,287.212
484,0.804667,283.994
485,0.806333,283.994
486,0.807983,280.82
487,0.80965,278.13
488,0.8113669999999999,275.537
489,0.812983,275.537
490,0.81465,273.138
491,0.816317,270.754
492,0.817983,270.754
493,0.81965,268.072
494,0.821317,265.196
495,0.822983,262.558
496,0.82465,262.558
497,0.826317,260.137
498,0.828033,257.701
499,0.82965,255.384
500,0.831317,255.384
501,0.832983,253.275
502,0.83465,251.442
503,0.836317,249.743
504,0.837983,249.743
505,0.83965,248.089
506,0.841317,246.078
507,0.842983,246.078
508,0.844767,244.096
509,0.846317,242.017
510,0.847983,239.983
511,0.84965,239.983
512,0.851317,238.18
513,0.852983,236.169
514,0.85465,234.291
515,0.856317,234.291
516,0.8579830000000001,232.533
517,0.85965,230.774
518,0.861317,229.374
519,0.8629829999999999,229.374
520,0.86465,228.01
521,0.866317,226.475
522,0.867967,226.475
523,0.869633,225.022
524,0.8713,223.48
525,0.872967,221.699
526,0.874633,221.699
527,0.876317,220.589
528,0.8779670000000001,219.293
529,0.879633,217.773
530,0.8813,217.773
531,0.8829669999999999,216.693
532,0.884633,215.247
533,0.886283,213.943
534,0.88795,213.943
535,0.889617,212.803
536,0.891283,211.716
537,0.89295,211.716
538,0.894617,210.494
539,0.8962830000000001,209.108
540,0.89795,207.812
541,0.899617,207.812
542,0.9012829999999999,206.485
543,0.90295,205.278
544,0.904617,204.34
545,0.9062829999999999,204.34
546,0.90795,203.349
547,0.909617,202.462
548,0.911283,201.784
549,0.91295,201.784
550,0.914633,201.017
551,0.916283,200.443
552,0.91795,199.646
553,0.919617,199.646
554,0.921283,198.632
555,0.92295,197.336
556,0.924617,197.336
557,0.926267,195.771
558,0.927933,194.512
559,0.929667,193.417
560,0.931267,193.417
561,0.932933,192.836
562,0.9346,192.605
563,0.936267,191.949
564,0.937933,191.949
565,0.9396,190.973
566,0.941267,190.02
567,0.942933,188.857
568,0.9446,188.857
569,0.9463,188.15
570,0.947933,187.509
571,0.9496,187.509
572,0.951267,187.024
573,0.952933,186.473
574,0.9546,185.609
575,0.956267,185.609
576,0.957933,185.095
577,0.9596,184.596
578,0.961267,183.977
579,0.96305,183.977
580,0.9646,183.523
581,0.966267,182.614
582,0.967933,181.66
583,0.9696,181.66
584,0.971267,181.139
585,0.972933,180.401
586,0.9746,180.051
587,0.976267,180.051
588,0.9779330000000001,179.484
589,0.9796,178.874
590,0.981267,178.874
591,0.9829329999999999,178.456
592,0.9846,178.002
593,0.986267,177.376
594,0.987917,177.376
595,0.989583,176.691
596,0.99125,176.139
597,0.992917,175.707
598,0.994583,175.707
599,0.99625,175.498
600,0.9979170000000001,175.051
601,0.999583,174.627
602,1.00125,174.627
603,1.002917,174.016
604,1.004583,173.472
605,1.00625,173.472
606,1.007933,173.114
607,1.009583,172.637
608,1.01125,172.205
609,1.012917,172.205
610,1.014583,171.714
611,1.01625,171.281
612,1.017917,171.043
613,1.019583,171.043
614,1.02125,170.656
615,1.022917,170.238
616,1.024583,169.94
617,1.02625,169.94
618,1.027917,169.091
619,1.029583,168.532
620,1.03125,168.234
621,1.032917,168.234
622,1.034583,167.809
623,1.03625,167.541
624,1.037917,167.541
625,1.039583,167.191
626,1.04125,166.789
627,1.042917,166.282
628,1.044583,166.282
629,1.04625,166.2
630,1.0479,166.148
631,1.049567,165.731
632,1.051233,165.731
633,1.0529,165.522
634,1.054567,165.03
635,1.056233,164.464
636,1.0579,164.464
637,1.059567,164.434
638,1.061233,164.077
639,1.0629,164.077
640,1.064567,163.965
641,1.066233,163.704
642,1.0679,163.421
643,1.069567,163.421
644,1.071233,163.093
645,1.0729,162.914
646,1.074567,162.81
647,1.076233,162.81
648,1.0779,162.169
649,1.079567,161.998
650,1.081333,161.454
651,1.0829,161.454
652,1.084583,161.38
653,1.086233,161.424
654,1.0879,161.186
655,1.089567,161.186
656,1.09125,161.372
657,1.0929,161.126
658,1.094567,161.126
659,1.096233,160.694
660,1.0979,160.195
661,1.099567,159.822
662,1.101233,159.822
663,1.1029,159.636
664,1.104567,159.487
665,1.106233,159.502
666,1.107883,159.502
667,1.10955,158.995
668,1.111217,158.355
669,1.112883,158.325
670,1.11455,158.325
671,1.116217,158.213
672,1.117883,157.848
673,1.11955,157.848
674,1.121217,157.632
675,1.122883,157.431
676,1.12455,157.028
677,1.126217,157.028
678,1.127883,156.976
679,1.12955,156.909
680,1.131217,156.485
681,1.132883,156.485
682,1.13455,156.529
683,1.136217,156.537
684,1.137883,156.626
685,1.13955,156.626
686,1.141217,156.805
687,1.142883,156.581
688,1.14455,156.581
689,1.146217,156.336
690,1.147883,155.769
691,1.14955,155.285
692,1.151217,155.285
693,1.152883,155.36
694,1.15455,155.419
695,1.156217,155.65
696,1.157883,155.65
697,1.15955,155.844
698,1.161217,155.739
699,1.162883,155.635
700,1.16455,155.635
701,1.1663,155.561
702,1.167867,155.471
703,1.169533,154.972
704,1.1712,154.972
705,1.172867,154.644
706,1.174533,154.003
707,1.1762,154.003
708,1.17785,153.698
709,1.179517,153.735
710,1.181183,153.556
711,1.18285,153.556
712,1.184517,153.512
713,1.186183,153.124
714,1.18785,152.64
715,1.189517,152.64
716,1.191183,152.618
717,1.19285,152.737
718,1.194517,152.61
719,1.196183,152.61
720,1.19785,152.752
721,1.199617,152.633
722,1.201183,152.633
723,1.20285,152.454
724,1.204517,152.454
725,1.206183,152.26
726,1.20785,152.26
727,1.209517,152.171
728,1.211183,152.253
729,1.21285,152.29
730,1.214517,152.29
731,1.216183,152.402
732,1.21785,152.037
733,1.219517,151.455
734,1.221183,151.455
735,1.22285,151.172
736,1.224533,150.837
737,1.226217,150.852
738,1.227833,150.852
739,1.2295,151.172
740,1.231167,151.15
741,1.232833,151.15
742,1.2345,151.016
743,1.236167,150.74
744,1.237833,150.837
745,1.2395,150.837
746,1.241167,150.74
747,1.242833,150.844
748,1.2445,150.912
749,1.246167,150.912
750,1.247833,150.353
751,1.2495,150.137
752,1.251167,149.995
753,1.252833,149.995
754,1.2545,149.898
755,1.256167,150.114
756,1.257833,150.114
757,1.259517,150.04
758,1.261167,149.645
759,1.262833,149.526
760,1.2645,149.526
761,1.266167,149.168
762,1.267833,149.243
763,1.2695,149.317
764,1.271167,149.317
765,1.272833,149.243
766,1.2745,149.272
767,1.276167,149.161
768,1.277833,149.161
769,1.2795,149.034
770,1.281167,148.989
771,1.282833,148.989
772,1.284567,148.93
773,1.286167,148.803
774,1.287817,148.974
775,1.289483,148.974
776,1.29115,149.325
777,1.292817,149.339
778,1.294483,149.481
779,1.296167,149.481
780,1.297867,149.138
781,1.299483,148.632
782,1.30115,148.535
783,1.302817,148.535
784,1.304483,148.609
785,1.30615,148.915
786,1.307817,148.989
787,1.309483,148.989
788,1.31115,148.982
789,1.312817,148.9
790,1.314483,148.9
791,1.31615,148.706
792,1.317933,148.632
793,1.319483,148.542
794,1.32115,148.542
795,1.322817,148.058
796,1.324483,147.79
797,1.32615,147.589
798,1.327817,147.589
799,1.329483,147.507
800,1.33115,147.767
801,1.332817,148.013
802,1.334483,148.013
803,1.33615,148.125
804,1.337817,148.274
805,1.339483,148.274
806,1.34115,147.879
807,1.342817,147.574
808,1.344483,147.425
809,1.34615,147.425
810,1.3478,147.343
811,1.349467,147.641
812,1.351133,147.708
813,1.3528,147.708
814,1.354467,147.544
815,1.356133,147.35
816,1.3578,147.395
817,1.359467,147.395
818,1.361133,147.44
819,1.3628,147.834
820,1.364467,147.834
821,1.36615,147.834
822,1.3678,147.32
823,1.369467,146.955
824,1.371133,146.955
825,1.3728,146.545
826,1.374467,146.411
827,1.376133,146.769
828,1.3778,146.769
829,1.379467,146.903
830,1.381167,147.06
831,1.3828,147.179
832,1.384467,147.179
833,1.386133,146.605
834,1.3878,146.352
835,1.389467,146.106
836,1.391133,146.106
837,1.3928,145.994
838,1.394467,146.486
839,1.396133,146.486
840,1.3978,146.717
841,1.399467,146.732
842,1.401133,146.62
843,1.402833,146.62
844,1.404467,146.344
845,1.406133,146.516
846,1.407783,146.732
847,1.40945,146.732
848,1.411117,146.665
849,1.412783,146.568
850,1.41445,146.352
851,1.416117,146.352
852,1.417783,146.3
853,1.41955,146.426
854,1.421117,146.389
855,1.422783,146.389
856,1.42445,146.203
857,1.426117,146.091
858,1.427783,146.091
859,1.42945,145.733
860,1.431117,145.815
861,1.432783,145.92
862,1.43445,145.92
863,1.436217,145.704
864,1.437783,146.002
865,1.43945,145.823
866,1.441117,145.823
867,1.442783,145.607
868,1.44445,145.644
869,1.446117,145.495
870,1.447783,145.495
871,1.44945,145.584
872,1.451117,145.748
873,1.452783,145.748
874,1.45445,145.607
875,1.456117,145.309
876,1.457783,145.465
877,1.45945,145.465
878,1.461117,145.607
879,1.462783,145.741
880,1.46445,146.121
881,1.466117,146.121
882,1.467767,145.942
883,1.469417,145.726
884,1.4711,145.622
885,1.47275,145.622
886,1.474417,145.324
887,1.476083,145.093
888,1.47775,145.093
889,1.479417,144.653
890,1.481083,144.534
891,1.48275,144.385
892,1.484417,144.385
893,1.486083,144.564
894,1.48775,145.175
895,1.489417,145.286
896,1.491083,145.286
897,1.49275,145.577
898,1.494417,145.428
899,1.496083,145.1
900,1.49775,145.1
901,1.499417,144.958
902,1.501083,144.891
903,1.50275,145.003
904,1.504417,145.003
905,1.506083,145.249
906,1.50775,145.346
907,1.509417,145.346
908,1.511083,145.167
909,1.51275,144.973
910,1.514417,144.616
911,1.516083,144.616
912,1.51775,144.571
913,1.519417,144.467
914,1.5211,144.37
915,1.52275,144.37
916,1.524417,144.355
917,1.526083,144.228
918,1.527733,144.392
919,1.5294,144.392
920,1.531067,144.504
921,1.532733,144.728
922,1.5344,144.728
923,1.536067,144.787
924,1.537733,144.72
925,1.5394,144.586
926,1.541067,144.586
927,1.542733,144.355
928,1.5444,144.199
929,1.546067,144.117
930,1.547733,144.117
931,1.5494,144.37
932,1.551067,144.4
933,1.552733,144.288
934,1.554467,144.288
935,1.556083,144.146
936,1.557733,144.109
937,1.5594,144.28
938,1.561067,144.28
939,1.562733,144.526
940,1.5644,144.653
941,1.566067,144.653
942,1.567733,144.377
943,1.5694,144.146
944,1.571167,143.945
945,1.572733,143.945
946,1.5744,144.02
947,1.576067,144.117
948,1.577733,144.154
949,1.5794,144.154
950,1.581083,144.266
951,1.582733,144.161
952,1.5844,143.93
953,1.586067,143.93
954,1.587717,143.96
