"ID","sea_time","fid_signal"
1,0,139.251
2,0.001667,139.087
3,0.003333,139.02
4,0.005,138.983
5,0.006667,138.983
6,0.008333,139.028
7,0.01,139.02
8,0.011667,138.916
9,0.013333,138.916
10,0.015,139.147
11,0.016667,139.259
12,0.018333,139.259
13,0.02,139.289
14,0.021667,139.669
15,0.023333,139.728
16,0.025017,139.728
17,0.026667,139.646
18,0.028383,139.698
19,0.03,139.497
20,0.031683,139.497
21,0.033333,139.363
22,0.035,139.304
23,0.036667,139.43
24,0.038333,139.43
25,0.04,139.505
26,0.041683,139.378
27,0.043317,139.378
28,0.044983,139.415
29,0.04665,139.43
30,0.048317,139.512
31,0.049983,139.512
32,0.05165,139.52
33,0.053317,139.698
34,0.054983,139.631
35,0.05665,139.631
36,0.058317,139.743
37,0.059983,139.676
38,0.061767,139.467
39,0.063317,139.467
40,0.064983,139.453
41,0.06665,139.46
42,0.068317,139.46
43,0.069983,139.438
44,0.07165000000000001,139.602
45,0.07331699999999999,139.929
46,0.07498299999999999,139.929
47,0.07665,139.676
48,0.078317,139.922
49,0.079983,140.138
50,0.08165,140.138
51,0.083317,139.795
52,0.084983,139.646
53,0.08665,139.505
54,0.08831700000000001,139.505
55,0.08998299999999999,139.058
56,0.09165,138.834
57,0.093317,139.013
58,0.094983,139.013
59,0.09665,139.102
60,0.098317,139.378
61,0.099983,139.378
62,0.10165,139.952
63,0.103317,139.952
64,0.104983,139.9
65,0.106633,139.9
66,0.1083,139.795
67,0.109967,139.453
68,0.111667,139.743
69,0.113317,139.743
70,0.114967,139.751
71,0.116633,139.646
72,0.1183,139.624
73,0.119967,139.624
74,0.121633,139.207
75,0.1233,139.087
76,0.124967,139.087
77,0.126633,138.983
78,0.1283,138.946
79,0.129967,138.961
80,0.131633,138.961
81,0.1333,138.938
82,0.134967,138.961
83,0.136633,138.871
84,0.1383,138.871
85,0.139967,139.05
86,0.141633,139.02
87,0.1433,139.311
88,0.144967,139.311
89,0.14665,139.676
90,0.1483,139.885
91,0.149967,139.952
92,0.151633,139.952
93,0.1533,139.758
94,0.154967,139.482
95,0.156633,139.482
96,0.1583,139.333
97,0.159967,139.415
98,0.161633,139.385
99,0.16335,139.385
100,0.16495,139.05
101,0.166617,138.864
102,0.168283,139.132
103,0.16995,139.132
104,0.171617,139.266
105,0.173283,139.736
106,0.17495,139.825
107,0.176617,139.825
108,0.178283,139.579
109,0.18,139.512
110,0.181617,139.512
111,0.1833,139.423
112,0.18495,139.304
113,0.186617,139.251
114,0.188283,139.251
115,0.18995,139.438
116,0.191617,139.266
117,0.193283,139.251
118,0.19495,139.251
119,0.196717,139.147
120,0.198283,139.102
121,0.19995,139.281
122,0.201617,139.281
123,0.203283,139.639
124,0.20495,139.803
125,0.206617,139.832
126,0.208283,139.832
127,0.20995,139.743
128,0.211617,139.348
129,0.213283,139.348
130,0.21495,139.341
131,0.216617,139.147
132,0.218283,139.453
133,0.21995,139.453
134,0.221617,139.497
135,0.223283,139.527
136,0.224933,139.445
137,0.2266,139.445
138,0.228267,139.229
139,0.229933,139.4
140,0.2316,139.602
141,0.233267,139.602
142,0.234933,139.683
143,0.2366,139.952
144,0.238267,139.952
145,0.239933,140.034
146,0.2416,139.788
147,0.243267,139.706
148,0.244933,139.706
149,0.246617,139.475
150,0.248267,139.534
151,0.249933,139.43
152,0.2516,139.43
153,0.253283,139.594
154,0.254933,139.713
155,0.2566,139.795
156,0.258267,139.795
157,0.259933,140.168
158,0.261617,140.19
159,0.263267,140.183
160,0.264933,140.183
161,0.2666,139.907
162,0.268267,139.862
163,0.269933,139.862
164,0.2716,139.847
165,0.273267,140.026
166,0.274933,140.011
167,0.2766,140.011
168,0.278267,139.736
169,0.279933,139.751
170,0.281667,139.825
171,0.28325,139.825
172,0.284917,139.982
173,0.286583,140.496
174,0.288233,141.189
175,0.2899,141.189
176,0.291567,141.688
177,0.293233,142.641
178,0.2949,142.641
179,0.296567,143.699
180,0.298333,145.108
181,0.2999,147.179
182,0.301567,147.179
183,0.303233,149.615
184,0.3049,152.476
185,0.306567,155.62
186,0.308233,155.62
187,0.3099,159.234
188,0.311567,164.151
189,0.313233,169.97
190,0.315017,169.97
191,0.316567,176.847
192,0.318233,184.983
193,0.3199,184.983
194,0.3216,194.475
195,0.323233,205.435
196,0.3249,218.049
197,0.326567,218.049
198,0.328233,232.6
199,0.3299,248.909
200,0.331567,268.064
201,0.333233,268.064
202,0.3349,289.53
203,0.336567,313.438
204,0.338233,340.335
205,0.3399,340.335
206,0.341567,369.892
207,0.343233,403.307
208,0.344883,441.059
209,0.34655,441.059
210,0.348217,482.544
211,0.3499,528.812
212,0.35155,528.812
213,0.353217,580.028
214,0.354883,636.503
215,0.35655,699.408
216,0.358217,699.408
217,0.359883,768.915
218,0.36155,846.0359999999999
219,0.363217,931.688
220,0.364883,931.688
221,0.36655,1026.668
222,0.368217,1131.907
223,0.369883,1248.077
224,0.37155,1248.077
225,0.373217,1375.981
226,0.374883,1516.141
227,0.37655,1516.141
228,0.378217,1668.975
229,0.379883,1834.549
230,0.38155,2012.029
231,0.383217,2012.029
232,0.384883,2201.386
233,0.38655,2401.225
234,0.388217,2609.7
235,0.389883,2609.7
236,0.391583,2825.484
237,0.393217,3044.635
238,0.394883,3265.075
239,0.39655,3265.075
240,0.398217,3483.534
241,0.39995,3696.635
242,0.40155,3901.847
243,0.403217,3901.847
244,0.404883,4095.361
245,0.406533,4274.771
246,0.4082,4274.771
247,0.409867,4437.007
248,0.411533,4579.999
249,0.4132,4701.652
250,0.414867,4701.652
251,0.4166,4800.26
252,0.4182,4874.811
253,0.419867,4924.819
254,0.421533,4924.819
255,0.4232,4951.008
256,0.424867,4953.474
257,0.426533,4933.32
258,0.428217,4933.32
259,0.429867,4891.716
260,0.431533,4829.496
261,0.433317,4749.067
262,0.434867,4749.067
263,0.436533,4652.299
264,0.4382,4541.226
265,0.439867,4541.226
266,0.441533,4418.336
267,0.4432,4285.909
268,0.444867,4145.503
269,0.446533,4145.503
270,0.4482,3999.099
271,0.449867,3848.515
272,0.451533,3695.16
273,0.4532,3695.16
274,0.454867,3540.68
275,0.456533,3387.042
276,0.4582,3387.042
277,0.459867,3234.96
278,0.461533,3085.412
279,0.4632,2939.701
280,0.464883,2939.701
281,0.466517,2797.723
282,0.468183,2660.595
283,0.46985,2528.451
284,0.471517,2528.451
285,0.473183,2401.747
286,0.47485,2280.891
287,0.476517,2165.653
288,0.478183,2165.653
289,0.47985,2056.74
290,0.481517,1953.289
291,0.483183,1855.507
292,0.48485,1855.507
293,0.486517,1763.068
294,0.488183,1675.3
295,0.48985,1675.3
296,0.491517,1592.889
297,0.493183,1515.426
298,0.49485,1442.462
299,0.496517,1442.462
300,0.498183,1374.535
301,0.49985,1310.304
302,0.501517,1250.029
303,0.503183,1250.029
304,0.50485,1193.456
305,0.506517,1139.857
306,0.5081830000000001,1090.012
307,0.50985,1090.012
308,0.511517,1042.828
309,0.5131829999999999,998.311
310,0.51485,998.311
311,0.516517,956.4829999999999
312,0.518283,916.913
313,0.51985,879.9880000000001
314,0.521517,879.9880000000001
315,0.523183,845.544
316,0.52485,813.022
317,0.5265,782.184
318,0.5281670000000001,782.184
319,0.529833,753.0599999999999
320,0.5315,725.575
321,0.5331669999999999,699.528
322,0.534833,699.528
323,0.5365,674.732
324,0.538167,651.114
325,0.539833,628.4640000000001
326,0.5415,628.4640000000001
327,0.543167,607.431
328,0.544833,587.538
329,0.5465,587.538
330,0.548167,568.807
331,0.549833,551.134
332,0.5516,533.9160000000001
333,0.553167,533.9160000000001
334,0.554833,517.726
335,0.5565,502.035
336,0.558167,487.402
337,0.559833,487.402
338,0.5615,473.537
339,0.563167,460.289
340,0.564833,448.041
341,0.5665,448.041
342,0.568167,436.15
343,0.569833,424.78
344,0.5715,424.78
345,0.573167,413.947
346,0.574833,403.374
347,0.5765,393.033
348,0.578167,393.033
349,0.579817,383.228
350,0.581483,373.967
351,0.5831499999999999,364.795
352,0.5848,364.795
353,0.586467,356.577
354,0.588133,348.598
355,0.5898,340.976
356,0.591467,340.976
357,0.593133,333.957
358,0.5948,327.066
359,0.596467,320.725
360,0.598133,320.725
361,0.5998,314.638
362,0.601467,308.849
363,0.60315,308.849
364,0.604833,302.918
365,0.606467,297.07
366,0.608133,291.422
367,0.6098,291.422
368,0.611467,285.938
369,0.613133,281.155
370,0.6148,276.722
371,0.616467,276.722
372,0.618133,272.624
373,0.6198,268.765
374,0.621467,264.6
375,0.623133,264.6
376,0.6248,260.539
377,0.626467,256.307
378,0.6281330000000001,256.307
379,0.6298,252.366
380,0.631467,248.76
381,0.6331329999999999,245.199
382,0.6348,245.199
383,0.636467,242.278
384,0.638133,239.246
385,0.6398,236.534
386,0.641467,236.534
387,0.643133,233.531
388,0.644783,230.424
389,0.64645,227.548
390,0.6481170000000001,227.548
391,0.649783,224.374
392,0.65145,222.206
393,0.6531169999999999,222.206
394,0.654783,220.023
395,0.65645,217.877
396,0.658117,215.866
397,0.659783,215.866
398,0.66145,213.519
399,0.663117,211.343
400,0.664783,209.011
401,0.66645,209.011
402,0.668117,207.089
403,0.669883,205.182
404,0.67145,203.468
405,0.673117,203.468
406,0.674783,202.246
407,0.676467,200.756
408,0.678117,199.378
409,0.679783,199.378
410,0.68145,197.783
411,0.683117,196.218
412,0.684783,196.218
413,0.68645,194.944
414,0.688117,193.462
415,0.689783,192.143
416,0.69145,192.143
417,0.693117,190.616
418,0.694783,189.334
419,0.69645,188.112
420,0.698117,188.112
421,0.699783,187.196
422,0.70145,186.436
423,0.7030999999999999,185.4
424,0.704767,185.4
425,0.706433,184.461
426,0.7081,183.269
427,0.709767,183.269
428,0.711433,182.293
429,0.7131,181.302
430,0.714767,180.55
431,0.716433,180.55
432,0.7181,179.611
433,0.719767,178.605
434,0.721433,177.801
435,0.7231,177.801
436,0.7247670000000001,177.048
437,0.726433,176.519
438,0.7281,175.916
439,0.7297670000000001,175.916
440,0.731433,175.327
441,0.7331,174.694
442,0.7347669999999999,174.001
443,0.736433,174.001
444,0.7381,173.278
445,0.739767,172.66
446,0.741433,172.66
447,0.7431,172.198
448,0.744767,171.855
449,0.746433,171.371
450,0.7481,171.371
451,0.749767,170.544
452,0.751433,169.583
453,0.7531,168.525
454,0.754833,168.525
455,0.756433,167.944
456,0.7581,167.735
457,0.759767,167.631
458,0.761433,167.631
459,0.7631,167.534
460,0.76475,166.997
461,0.766417,166.997
462,0.768083,166.416
463,0.76975,165.91
464,0.771417,165.418
465,0.773083,165.418
466,0.77475,164.956
467,0.776417,164.554
468,0.778083,163.808
469,0.7797500000000001,163.808
470,0.781417,162.877
471,0.783083,162.311
472,0.7847499999999999,161.998
473,0.786417,161.998
474,0.78815,161.834
475,0.78975,162.14
476,0.791417,162.005
477,0.793083,162.005
478,0.79475,161.514
479,0.796417,161.007
480,0.798083,161.007
481,0.79975,160.307
482,0.801417,160.046
483,0.803083,159.644
484,0.80475,159.644
485,0.8064170000000001,159.621
486,0.808083,159.636
487,0.80975,159.234
488,0.8114170000000001,159.234
489,0.813083,159.211
490,0.81475,158.727
491,0.8164169999999999,158.161
492,0.818083,158.161
493,0.81975,157.826
494,0.821417,157.341
495,0.823083,157.341
496,0.824733,156.946
497,0.8264,156.663
498,0.828067,156.619
499,0.8297330000000001,156.619
500,0.831417,156.723
501,0.833067,156.574
502,0.8347329999999999,156.276
503,0.8364,156.276
504,0.838067,155.956
505,0.83975,155.523
506,0.8414,155.255
507,0.843067,155.255
508,0.844733,155.24
509,0.8464,155.151
510,0.848067,154.98
511,0.849733,154.98
512,0.8514,155.121
513,0.853067,154.957
514,0.854733,154.957
515,0.8564000000000001,155.009
516,0.858067,154.987
517,0.859733,154.532
518,0.8614000000000001,154.532
519,0.863067,154.443
520,0.864733,153.743
521,0.8663999999999999,153.311
522,0.868067,153.311
523,0.869733,153.333
524,0.871383,153.154
525,0.8731,153.258
526,0.874717,153.258
527,0.876383,153.385
528,0.87805,153.169
529,0.879717,153.169
530,0.881383,153.087
531,0.88305,152.811
532,0.884717,152.357
533,0.886367,152.357
534,0.888033,152.126
535,0.8897,152.148
536,0.891367,152.178
537,0.893033,152.178
538,0.8947000000000001,151.88
539,0.896367,151.537
540,0.898033,151.329
541,0.8997000000000001,151.329
542,0.901367,151.396
543,0.903033,151.552
544,0.9046999999999999,151.552
545,0.906433,151.724
546,0.908033,151.441
547,0.9097,150.971
548,0.911367,150.971
549,0.913033,151.031
550,0.9147,150.837
551,0.916367,150.748
552,0.918033,150.748
553,0.9197,150.725
554,0.921367,150.755
555,0.923033,150.889
556,0.9247,150.889
557,0.9263670000000001,150.703
558,0.928033,150.457
559,0.9297,150.144
560,0.9313669999999999,150.144
561,0.933033,150.085
562,0.9347,150.047
563,0.9363669999999999,150.047
564,0.938033,149.943
565,0.9397,149.705
566,0.941367,149.526
567,0.943033,149.526
568,0.9446830000000001,149.645
569,0.94635,150.025
570,0.948017,150.181
571,0.9496830000000001,150.181
572,0.95135,149.958
573,0.953017,149.742
574,0.9546829999999999,149.176
575,0.95635,149.176
576,0.958033,148.997
577,0.959683,149.161
578,0.96135,149.161
579,0.963017,149.444
580,0.964683,149.861
581,0.96635,149.906
582,0.968017,149.906
583,0.969683,149.913
584,0.97135,149.69
585,0.973017,149.317
586,0.974683,149.317
587,0.9763500000000001,148.878
588,0.978017,148.55
589,0.979683,148.17
590,0.9813499999999999,148.17
591,0.983017,148.132
592,0.984683,148.289
593,0.9863499999999999,148.14
594,0.988017,148.14
595,0.989683,148.125
596,0.991417,148.05
597,0.993017,148.05
598,0.994683,147.924
599,0.99635,148.058
600,0.998017,147.82
601,0.999683,147.82
602,1.00135,147.708
603,1.003,147.961
604,1.004667,147.969
605,1.00635,147.969
606,1.0081,148.259
607,1.009667,148.214
608,1.011333,147.767
609,1.013,147.767
610,1.014667,147.626
611,1.016333,147.343
612,1.018,147.343
613,1.019667,147.328
614,1.021333,147.641
615,1.023,147.469
616,1.024767,147.469
617,1.026333,147.38
618,1.028,147.179
619,1.029667,146.739
620,1.031333,146.739
621,1.033017,146.896
622,1.034667,146.866
623,1.036333,147
624,1.038,147
625,1.039667,147.007
626,1.041333,146.627
627,1.043,146.762
628,1.044667,146.762
629,1.046333,146.791
630,1.048,146.843
631,1.049667,146.843
632,1.051333,146.948
633,1.053,146.702
634,1.054667,146.665
635,1.056333,146.665
636,1.058,146.583
637,1.059667,146.501
638,1.061333,146.553
639,1.062983,146.553
640,1.06465,146.508
641,1.066317,146.27
642,1.067983,146.352
643,1.06965,146.352
644,1.071317,146.762
645,1.072983,146.866
646,1.07465,146.866
647,1.076317,147.179
648,1.077983,146.903
649,1.07965,146.486
650,1.081317,146.486
651,1.082983,145.979
652,1.08465,145.853
653,1.086317,146.069
654,1.087983,146.069
655,1.08965,146.195
656,1.091317,146.426
657,1.092983,146.233
658,1.09465,146.233
659,1.096317,146.069
660,1.097983,146.158
661,1.09965,146.158
662,1.101317,146.061
663,1.102983,146.277
664,1.10465,146.389
665,1.106317,146.389
666,1.107983,146.061
667,1.10965,145.979
668,1.111317,145.867
669,1.112983,145.867
670,1.11465,146.024
671,1.116317,145.793
672,1.117983,145.637
673,1.11965,145.637
674,1.121317,145.391
675,1.122983,144.958
676,1.124633,144.921
677,1.126383,144.921
678,1.127967,145.182
679,1.129633,145.406
680,1.1313,145.406
681,1.132967,145.346
682,1.134633,145.659
683,1.1363,145.584
684,1.137967,145.584
685,1.139633,145.607
686,1.1413,145.704
687,1.143017,145.674
688,1.144633,145.674
689,1.1463,145.54
690,1.147967,145.338
691,1.149633,145.204
692,1.1513,145.204
693,1.152967,144.839
694,1.154633,144.675
695,1.1563,144.675
696,1.157967,144.526
697,1.159733,144.34
698,1.1613,144.37
699,1.16295,144.37
700,1.164617,144.392
701,1.166283,144.564
702,1.16795,144.906
703,1.169617,144.906
704,1.171283,145.316
705,1.17295,145.607
706,1.17465,145.525
707,1.176283,145.525
708,1.17795,145.383
709,1.179617,145.048
710,1.181283,144.862
711,1.18295,144.862
712,1.1846,144.891
713,1.186267,144.862
714,1.187933,144.862
715,1.1896,144.817
716,1.191267,144.534
717,1.192933,144.489
718,1.1946,144.489
719,1.196267,144.4
720,1.197933,144.69
721,1.1996,144.944
722,1.201267,144.944
723,1.202933,144.832
724,1.2046,145.003
725,1.206267,144.362
726,1.207933,144.362
727,1.2096,144.146
728,1.211267,144.318
729,1.212933,144.318
730,1.2146,143.997
731,1.216267,144.28
732,1.217933,144.28
733,1.2196,144.28
734,1.221267,144.28
735,1.222933,144.549
736,1.2246,144.355
737,1.226267,144.355
738,1.227933,144.571
739,1.2296,144.221
740,1.231267,144.079
741,1.232933,144.079
742,1.234617,144.273
743,1.236267,144.251
744,1.237933,144.251
745,1.2396,144.199
746,1.241267,144.206
747,1.242933,144.28
748,1.2447,144.28
749,1.24625,144.266
750,1.247917,144.601
751,1.249583,144.467
752,1.25125,144.467
753,1.252917,144.109
754,1.254583,143.96
755,1.25625,143.886
756,1.257917,143.886
757,1.259583,144.05
758,1.261317,144.035
759,1.262917,143.982
760,1.264583,143.982
761,1.26625,143.692
762,1.267917,143.334
763,1.269583,143.334
764,1.27125,143.319
765,1.272917,143.267
766,1.274583,143.148
767,1.27625,143.148
768,1.27795,143.304
769,1.279583,143.245
770,1.28125,143.215
771,1.282917,143.215
772,1.284583,143.565
773,1.28625,143.945
774,1.287917,144.05
775,1.289583,144.05
776,1.29125,144.012
777,1.292917,144.042
778,1.294583,144.042
779,1.29625,143.751
780,1.297917,143.692
781,1.299583,143.886
782,1.30125,143.886
783,1.302917,143.565
784,1.304583,143.372
785,1.306233,143.476
786,1.3079,143.476
787,1.309567,143.282
788,1.311233,143.319
789,1.3129,143.573
790,1.314583,143.573
791,1.316283,143.833
792,1.3179,143.938
793,1.319567,143.848
794,1.321233,143.848
795,1.3229,143.662
796,1.324567,143.439
797,1.326233,143.439
798,1.3279,143.275
799,1.329567,143.513
800,1.331233,143.811
801,1.3329,143.811
802,1.334567,143.997
803,1.336233,144.124
804,1.3379,143.915
805,1.339567,143.915
806,1.341233,143.841
807,1.3429,143.751
808,1.344567,143.893
809,1.346233,143.893
810,1.3479,144.139
811,1.349567,143.856
812,1.351233,143.856
813,1.3529,143.61
814,1.354567,143.588
815,1.356233,143.364
816,1.3579,143.364
817,1.359567,143.327
818,1.361233,143.163
819,1.362933,143.014
820,1.36455,143.014
821,1.366217,143.051
822,1.367883,143.155
823,1.36955,143.364
824,1.371217,143.364
825,1.372883,143.327
826,1.37455,143.558
827,1.376217,143.565
828,1.377883,143.565
829,1.37965,143.424
830,1.381217,143.334
831,1.382883,143.334
832,1.38455,142.91
833,1.386217,142.686
834,1.387883,142.679
835,1.38955,142.679
836,1.39125,142.79
837,1.392883,142.917
838,1.39455,143.029
839,1.396317,143.029
840,1.397883,143.282
841,1.39955,143.044
842,1.401217,143.021
843,1.402883,143.021
844,1.40455,143.133
845,1.406217,142.954
846,1.407883,142.954
847,1.40955,143.066
848,1.411217,143.178
849,1.412883,143.111
850,1.41455,143.111
851,1.416217,143.208
852,1.417883,143.357
853,1.41955,143.208
854,1.421217,143.208
855,1.422883,142.969
856,1.424533,142.91
857,1.4262,142.813
858,1.427867,142.813
859,1.429533,142.857
860,1.4312,143.014
861,1.432867,142.664
862,1.434533,142.664
863,1.4362,142.686
864,1.437867,142.768
865,1.439533,142.768
866,1.4412,142.783
867,1.442867,143.133
868,1.444533,143.051
869,1.4462,143.051
870,1.447867,142.768
871,1.449533,142.947
872,1.4512,142.761
873,1.45285,142.761
874,1.454517,142.671
875,1.4562,142.738
876,1.45785,142.232
877,1.459517,142.232
878,1.461183,142.351
879,1.46285,142.366
880,1.464517,142.366
881,1.466183,142.522
882,1.46785,142.813
883,1.469517,142.701
884,1.471183,142.701
885,1.47285,142.708
886,1.474517,142.813
887,1.476183,142.887
888,1.47785,142.887
889,1.479517,143.178
890,1.481167,143.193
891,1.482833,142.917
892,1.4845,142.917
893,1.486167,142.813
894,1.487833,142.716
895,1.4895,142.716
896,1.491167,142.746
897,1.492833,142.872
898,1.4945,142.634
899,1.496167,142.634
900,1.497833,142.373
901,1.4995,142.336
902,1.501167,142.261
903,1.502833,142.261
904,1.5045,142.485
905,1.506167,142.746
906,1.507833,142.775
907,1.5095,142.775
908,1.511167,142.746
909,1.512833,142.492
910,1.514617,142.388
911,1.516167,142.388
912,1.517833,142.321
913,1.5195,142.395
914,1.521167,142.395
915,1.522833,142.604
916,1.5245,142.537
917,1.526167,142.567
918,1.527833,142.567
919,1.5295,142.589
920,1.531183,142.5
921,1.532833,142.477
922,1.5345,142.477
923,1.536167,142.433
924,1.537833,142.366
925,1.5395,142.44
926,1.541167,142.44
927,1.542817,142.47
928,1.544483,142.559
929,1.54615,142.559
930,1.547817,142.597
931,1.549483,142.433
932,1.55115,142.433
933,1.552817,142.433
934,1.554483,142.157
935,1.556167,141.919
936,1.557817,142.112
937,1.559483,142.112
938,1.56115,142.06
939,1.562817,142.366
940,1.564483,142.522
941,1.56615,142.522
942,1.567817,142.559
943,1.569483,142.492
944,1.57115,142.299
945,1.572817,142.299
946,1.574483,142.15
947,1.57615,142.105
948,1.577817,142.105
949,1.579483,141.934
950,1.58115,141.956
951,1.582817,142.239
952,1.584483,142.239
953,1.58615,142.299
954,1.587817,142.485
955,1.589483,142.567
956,1.59115,142.567
957,1.592817,142.604
