"ID","sea_time","fid_signal"
1,0,1180.619
2,0.001667,1180.023
3,0.003383,1181.439
4,0.005,1180.917
5,0.006667,1180.917
6,0.008333,1177.117
7,0.01,1178.086
8,0.011667,1178.086
9,0.013333,1174.286
10,0.015,1173.988
11,0.016667,1172.423
12,0.018333,1172.423
13,0.02,1171.827
14,0.021683,1171.753
15,0.023333,1170.71
16,0.025,1170.71
17,0.026667,1171.455
18,0.028317,1168.996
19,0.029983,1170.859
20,0.03165,1170.859
21,0.033317,1170.188
22,0.034983,1169.071
23,0.036783,1168.773
24,0.038317,1168.773
25,0.039983,1167.804
26,0.04165,1168.773
27,0.043317,1168.773
28,0.044983,1171.678
29,0.04665,1174.286
30,0.048317,1176.447
31,0.049983,1176.447
32,0.05165,1176.149
33,0.053317,1175.925
34,0.055,1173.615
35,0.05665,1173.615
36,0.058317,1174.51
37,0.059983,1174.659
38,0.06165,1175.329
39,0.063317,1175.329
40,0.064983,1177.788
41,0.06665,1178.607
42,0.068317,1178.607
43,0.069983,1179.65
44,0.07165000000000001,1179.278
45,0.07331699999999999,1178.905
46,0.07498299999999999,1178.905
47,0.07665,1177.043
48,0.078317,1176.819
49,0.079983,1177.192
50,0.08165,1177.192
51,0.083317,1176.819
52,0.084983,1173.541
53,0.08665,1172.87
54,0.0883,1172.87
55,0.08996700000000001,1173.765
56,0.09163300000000001,1174.807
57,0.09329999999999999,1174.807
58,0.094967,1177.937
59,0.096633,1179.203
60,0.09835000000000001,1178.682
61,0.099967,1178.682
62,0.101633,1179.352
63,0.1033,1178.756
64,0.104967,1179.725
65,0.106633,1179.725
66,0.1083,1179.799
67,0.109967,1178.384
68,0.111633,1178.533
69,0.1133,1178.533
70,0.114967,1178.235
71,0.116633,1177.043
72,0.1183,1177.043
73,0.119967,1176.521
74,0.121667,1177.341
75,0.1233,1175.404
76,0.124967,1175.404
77,0.126633,1175.478
78,0.1283,1176.894
79,0.12995,1174.435
80,0.131617,1174.435
81,0.133283,1176
82,0.13495,1176.596
83,0.136617,1174.286
84,0.13835,1174.286
85,0.13995,1175.702
86,0.141617,1175.106
87,0.143283,1173.69
88,0.14495,1173.69
89,0.146617,1175.106
90,0.148267,1174.36
91,0.149933,1174.36
92,0.1516,1175.478
93,0.153267,1174.733
94,0.155,1175.478
95,0.1566,1175.478
96,0.158267,1175.404
97,0.159933,1171.827
98,0.1616,1175.031
99,0.163267,1175.031
100,0.164933,1172.498
101,0.1666,1173.913
102,0.168267,1176.67
103,0.169933,1176.67
104,0.171617,1174.36
105,0.173267,1176.447
106,0.174933,1176.447
107,0.1766,1174.882
108,0.178267,1174.659
109,0.179933,1174.584
110,0.1816,1174.584
111,0.183267,1174.807
112,0.184933,1175.553
113,0.1866,1175.851
114,0.188267,1175.851
115,0.189933,1176.223
116,0.1916,1175.627
117,0.193267,1176.596
118,0.194933,1176.596
119,0.1966,1179.427
120,0.198267,1180.992
121,0.199933,1182.631
122,0.2016,1182.631
123,0.203267,1184.195
124,0.204933,1181.29
125,0.2066,1181.29
126,0.20825,1182.035
127,0.209917,1182.109
128,0.211583,1179.725
129,0.21325,1179.725
130,0.214917,1180.246
131,0.216583,1176.745
132,0.21825,1175.18
133,0.219917,1175.18
134,0.221583,1174.435
135,0.22325,1172.498
136,0.224917,1173.615
137,0.226583,1173.615
138,0.22825,1175.18
139,0.229933,1176.223
140,0.231583,1176.223
141,0.23325,1175.851
142,0.234917,1177.639
143,0.2366,1176.223
144,0.23825,1176.223
145,0.23995,1176.67
146,0.241583,1179.725
147,0.24325,1180.172
148,0.244917,1180.172
149,0.246583,1183.078
150,0.24825,1182.184
151,0.249917,1179.725
152,0.251583,1179.725
153,0.25325,1178.384
154,0.254917,1176.298
155,0.256683,1175.255
156,0.25825,1175.255
157,0.259917,1176.894
158,0.261583,1173.094
159,0.26325,1173.094
160,0.264917,1170.933
161,0.266583,1172.349
162,0.268233,1171.008
163,0.2699,1171.008
164,0.271567,1172.2
165,0.273333,1174.733
166,0.2749,1175.329
167,0.276567,1175.329
168,0.278233,1177.192
169,0.2799,1179.576
170,0.281567,1176.745
171,0.283233,1176.745
172,0.2849,1173.168
173,0.286567,1169.741
174,0.288233,1169.741
175,0.2899,1170.039
176,0.291567,1172.498
177,0.293233,1176.372
178,0.2949,1176.372
179,0.296567,1178.607
180,0.298233,1175.404
181,0.2999,1175.776
182,0.301567,1175.776
183,0.303233,1173.988
184,0.3049,1173.094
185,0.306567,1173.988
186,0.308233,1173.988
187,0.3099,1170.71
188,0.311567,1171.157
189,0.313233,1171.157
190,0.314933,1168.847
191,0.316567,1169.071
192,0.318233,1171.38
193,0.3199,1171.38
194,0.321567,1171.306
195,0.323233,1174.807
196,0.3249,1174.957
197,0.326567,1174.957
198,0.328233,1175.329
199,0.329883,1176.298
200,0.33155,1174.882
201,0.333217,1174.882
202,0.334883,1174.659
203,0.33655,1175.627
204,0.338217,1173.317
205,0.339883,1173.317
206,0.34155,1172.647
207,0.343217,1175.106
208,0.344883,1175.106
209,0.34655,1175.106
210,0.348217,1177.043
211,0.349883,1180.023
212,0.35155,1180.023
213,0.353217,1182.929
214,0.354883,1182.482
215,0.35655,1183.376
216,0.358233,1183.376
217,0.359883,1181.662
218,0.36155,1181.811
219,0.363217,1183.525
220,0.364883,1183.525
221,0.36655,1189.932
222,0.368217,1198.724
223,0.369883,1198.724
224,0.37155,1212.582
225,0.373217,1233.891
226,0.37495,1266.077
227,0.37655,1266.077
228,0.378217,1318.604
229,0.3799,1395.047
230,0.381567,1511.648
231,0.383217,1511.648
232,0.384883,1684.651
233,0.386533,1927.316
234,0.3882,2260.655
235,0.389867,2260.655
236,0.391583,2700.91
237,0.3932,3262.684
238,0.394867,3972.053
239,0.396533,3972.053
240,0.3982,4831.329
241,0.399867,5854.219
242,0.401533,5854.219
243,0.4032,7041.469
244,0.404867,8375.049000000001
245,0.406533,9849.369000000001
246,0.408317,9849.369000000001
247,0.409867,11439.473
248,0.411533,13119.802
249,0.4132,14862.567
250,0.414867,14862.567
251,0.416533,16633.346
252,0.4182,18397.941
253,0.419867,20115.6
254,0.421517,20115.6
255,0.423183,21754.727
256,0.42485,23281.053
257,0.426517,23281.053
258,0.428183,24661.496
259,0.42985,25872.887
260,0.431517,26897.191
261,0.433183,26897.191
262,0.43485,27721.822
263,0.436517,28344.914
264,0.438183,28767.512
265,0.43985,28767.512
266,0.441517,28990.357
267,0.443183,29025.6
268,0.44485,28890.445
269,0.446517,28890.445
270,0.448167,28601.215
271,0.449833,28181.598
272,0.4515,28181.598
273,0.453167,27651.266
274,0.454833,27028.023
275,0.4565,26334.6
276,0.458233,26334.6
277,0.459833,25584.176
278,0.4615,24795.682
279,0.463167,23984.611
280,0.464833,23984.611
281,0.4665,23154.318
282,0.468167,22320.523
283,0.469833,21489.338
284,0.4715,21489.338
285,0.473167,20664.781
286,0.474833,19858.033
287,0.4765,19073.264
288,0.478167,19073.264
289,0.479833,18311.068
290,0.4815,17579.57
291,0.483167,17579.57
292,0.484833,16873.105
293,0.4865,16194.88
294,0.488167,15540.57
295,0.489833,15540.57
296,0.4915,14910.623
297,0.493217,14311.001
298,0.494833,13738.274
299,0.4965,13738.274
300,0.498167,13199.523
301,0.499833,12683.57
302,0.5014999999999999,12193.024
303,0.503167,12193.024
304,0.504833,11725.873
305,0.5065,11279.359
306,0.50815,11279.359
307,0.509883,10862.723
308,0.511483,10462.775
309,0.51315,10083.393
310,0.514817,10083.393
311,0.516483,9723.603999999999
312,0.51815,9378.717000000001
313,0.519817,9056.031000000001
314,0.521483,9056.031000000001
315,0.52315,8750.855
316,0.524817,8457.451999999999
317,0.526567,8179.843
318,0.52815,8179.843
319,0.529867,7911.846
320,0.531483,7658.079
321,0.53315,7421.076
322,0.534817,7421.076
323,0.536483,7190.183
324,0.53815,6970.763
325,0.539817,6970.763
326,0.541483,6761.104
327,0.54315,6558.671
328,0.544817,6367.266
329,0.5464830000000001,6367.266
330,0.54815,6186.888
331,0.549817,6014.183
332,0.5514829999999999,5851.388
333,0.55315,5851.388
334,0.554817,5694.33
335,0.5564829999999999,5542.934
336,0.55815,5396.307
337,0.559817,5396.307
338,0.561483,5251.765
339,0.56315,5115.345
340,0.564817,5115.345
341,0.566483,4985.258
342,0.568133,4862.919
343,0.5698,4748.032
344,0.5714669999999999,4748.032
345,0.573133,4635.975
346,0.5748,4527.42
347,0.576467,4420.504
348,0.578133,4420.504
349,0.5798,4318.133
350,0.581467,4220.232
351,0.583133,4129.261
352,0.5848,4129.261
353,0.586467,4040.748
354,0.588133,3955.29
355,0.5898,3872.141
356,0.591467,3872.141
357,0.593167,3790.408
358,0.594817,3714.636
359,0.596467,3714.636
360,0.598133,3642.216
361,0.5998,3573.895
362,0.601467,3506.541
363,0.603133,3506.541
364,0.6048,3438.965
365,0.606467,3374.07
366,0.608133,3311.113
367,0.6098,3311.113
368,0.611483,3250.688
369,0.613133,3195.181
370,0.6148,3142.357
371,0.616467,3142.357
372,0.618133,3089.16
373,0.6198,3040.358
374,0.621467,3040.358
375,0.623133,2989.322
376,0.6248,2939.925
377,0.626467,2894.402
378,0.62815,2894.402
379,0.629783,2848.208
380,0.63145,2806.634
381,0.6331329999999999,2761.93
382,0.634783,2761.93
383,0.63645,2721.027
384,0.638117,2681.315
385,0.639783,2642.125
386,0.64145,2642.125
387,0.643117,2607.331
388,0.644867,2572.686
389,0.64645,2538.413
390,0.6481170000000001,2538.413
391,0.649783,2506.226
392,0.65145,2472.326
393,0.6531169999999999,2472.326
394,0.654783,2439.469
395,0.65645,2410.412
396,0.658117,2381.131
397,0.659783,2381.131
398,0.66145,2352.819
399,0.663117,2324.73
400,0.664783,2295.077
401,0.66645,2295.077
402,0.668117,2266.467
403,0.6698,2242.625
404,0.6715,2219.156
405,0.673133,2219.156
406,0.674783,2194.494
407,0.67645,2169.833
408,0.678117,2169.833
409,0.679783,2144.501
410,0.68145,2121.702
411,0.683117,2103.821
412,0.684783,2103.821
413,0.68645,2086.684
414,0.6881,2068.058
415,0.689767,2048.463
416,0.691433,2048.463
417,0.6931,2027.303
418,0.694767,2006.59
419,0.696433,1988.485
420,0.6981000000000001,1988.485
421,0.699767,1970.306
422,0.701433,1954.809
423,0.7030999999999999,1954.809
424,0.704767,1939.014
425,0.706433,1923.218
426,0.7081,1910.403
427,0.709767,1910.403
428,0.711433,1894.981
429,0.713083,1880.229
430,0.71475,1867.637
431,0.716417,1867.637
432,0.718083,1852.14
433,0.71975,1839.697
434,0.721417,1827.553
435,0.723083,1827.553
436,0.72475,1814.44
437,0.726417,1801.923
438,0.728083,1789.331
439,0.7298,1789.331
440,0.731417,1776.069
441,0.733083,1763.478
442,0.73475,1763.478
443,0.736417,1752.973
444,0.7381,1739.264
445,0.739767,1728.535
446,0.741417,1728.535
447,0.743083,1718.849
448,0.74475,1708.791
449,0.7464,1701.042
450,0.748067,1701.042
451,0.749733,1691.133
452,0.7514,1682.863
453,0.753067,1673.177
454,0.754733,1673.177
455,0.7564,1662.523
456,0.758067,1654.252
457,0.759733,1654.252
458,0.7614,1641.214
459,0.7632,1630.932
460,0.764733,1623.556
461,0.7664,1623.556
462,0.7680670000000001,1615.584
463,0.769733,1608.729
464,0.7714,1603.29
465,0.7730669999999999,1603.29
466,0.774733,1595.542
467,0.7764,1586.974
468,0.778067,1580.343
469,0.779733,1580.343
470,0.7814,1571.402
471,0.783067,1566.187
472,0.784733,1561.493
473,0.7864,1561.493
474,0.788067,1555.979
475,0.789733,1550.391
476,0.7914,1550.391
477,0.793067,1542.717
478,0.794733,1538.023
479,0.7964,1532.435
480,0.798067,1532.435
481,0.799733,1525.581
482,0.8014,1519.769
483,0.803067,1514.256
484,0.804733,1514.256
485,0.8064,1510.605
486,0.808067,1507.699
487,0.80975,1504.719
488,0.811433,1504.719
489,0.8130500000000001,1499.653
490,0.814717,1492.5
491,0.816383,1492.5
492,0.8180500000000001,1485.422
493,0.819717,1481.026
494,0.821383,1475.588
495,0.8230499999999999,1475.588
496,0.824717,1470.596
497,0.826383,1467.839
498,0.82805,1463.741
499,0.829717,1463.741
500,0.831383,1461.431
501,0.83305,1459.122
502,0.834717,1454.279
503,0.836383,1454.279
504,0.83805,1448.616
505,0.839717,1441.836
506,0.841383,1436.77
507,0.84305,1436.77
508,0.8447170000000001,1433.492
509,0.846383,1429.99
510,0.848117,1429.99
511,0.8497169999999999,1426.935
512,0.851383,1425.594
513,0.85305,1424.178
514,0.8547169999999999,1424.178
515,0.856383,1420.155
516,0.85805,1416.504
517,0.859717,1410.693
518,0.861383,1410.693
519,0.86305,1406.372
520,0.8647,1404.807
521,0.866383,1402.497
522,0.8680330000000001,1402.497
523,0.8697,1403.466
524,0.871367,1399.89
525,0.8730329999999999,1399.89
526,0.8747,1396.313
527,0.876367,1394.6
528,0.878033,1392.29
529,0.8797,1392.29
530,0.881467,1387
531,0.883033,1384.169
532,0.884733,1380.965
533,0.886433,1380.965
534,0.888033,1374.26
535,0.8897,1374.483
536,0.891367,1371.13
537,0.893033,1371.13
538,0.8947000000000001,1366.511
539,0.896367,1365.468
540,0.898033,1365.468
541,0.8997000000000001,1361.37
542,0.901367,1358.613
543,0.903033,1357.719
544,0.9046999999999999,1357.719
545,0.906367,1352.727
546,0.908033,1350.641
547,0.9097,1349.673
548,0.911367,1349.673
549,0.913033,1348.481
550,0.9147,1346.767
551,0.916367,1344.681
552,0.918033,1344.681
553,0.9197,1343.936
554,0.921367,1342.893
555,0.923033,1341.626
556,0.9247,1341.626
557,0.9263670000000001,1340.359
558,0.928033,1337.007
559,0.929683,1337.007
560,0.93135,1332.536
561,0.933017,1332.015
562,0.934683,1328.29
563,0.93635,1328.29
564,0.938017,1327.023
565,0.939683,1323.894
566,0.94135,1318.753
567,0.943017,1318.753
568,0.9446830000000001,1320.317
569,0.94635,1317.039
570,0.948017,1317.039
571,0.9496830000000001,1317.039
572,0.95135,1318.529
573,0.953033,1318.678
574,0.9546829999999999,1318.678
575,0.95635,1320.839
576,0.958017,1322.105
577,0.959683,1320.839
578,0.96135,1320.839
579,0.963017,1317.561
580,0.964683,1315.624
581,0.966417,1316.071
582,0.968017,1316.071
583,0.969683,1312.42
584,0.97135,1309.291
585,0.973017,1304.001
586,0.974683,1304.001
587,0.9763500000000001,1297.891
588,0.978017,1301.393
589,0.979683,1300.648
590,0.9813499999999999,1300.648
591,0.983017,1300.871
592,0.984683,1297.966
593,0.9863499999999999,1297.966
594,0.988,1294.464
595,0.989667,1295.358
596,0.991333,1294.687
597,0.993,1294.687
598,0.994667,1294.911
599,0.996333,1293.644
600,0.998,1287.535
601,0.999667,1287.535
602,1.001333,1287.46
603,1.002983,1287.609
604,1.00465,1284.555
605,1.006317,1284.555
606,1.007983,1287.013
607,1.00965,1283.064
608,1.011317,1283.064
609,1.012983,1283.735
610,1.01465,1285.523
611,1.016317,1285.747
612,1.017983,1285.747
613,1.01965,1287.758
614,1.021317,1283.81
615,1.022983,1283.884
616,1.02465,1283.884
617,1.026317,1281.202
618,1.027983,1278.967
619,1.02965,1277.178
620,1.031333,1277.178
621,1.032983,1272.336
622,1.03465,1274.422
623,1.036333,1275.39
624,1.037983,1275.39
625,1.03965,1275.39
626,1.041317,1276.508
627,1.042983,1276.508
628,1.04465,1273.9
629,1.046317,1269.43
630,1.047967,1266.673
631,1.049633,1266.673
632,1.0513,1266.375
633,1.052967,1264.661
634,1.054633,1266.822
635,1.0563,1266.822
636,1.057967,1267.865
637,1.059633,1263.917
638,1.0613,1265.481
639,1.062967,1265.481
640,1.064633,1264.885
641,1.0663,1266.897
642,1.067967,1266.897
643,1.069633,1268.759
644,1.0713,1264.066
645,1.072967,1263.246
646,1.074633,1263.246
647,1.0763,1257.286
648,1.077967,1253.635
649,1.079633,1251.623
650,1.0813,1251.623
651,1.082967,1248.866
652,1.0847,1250.058
653,1.0863,1251.4
654,1.087967,1251.4
655,1.089633,1255.572
656,1.0913,1258.776
657,1.092967,1258.776
658,1.094633,1258.18
659,1.0963,1256.987
660,1.097967,1255.721
661,1.099633,1255.721
662,1.1013,1252.368
663,1.102983,1256.317
664,1.10465,1256.764
665,1.1063,1256.764
666,1.10795,1258.031
667,1.109617,1256.839
668,1.111283,1251.921
669,1.11295,1251.921
670,1.114617,1251.847
671,1.116283,1247.823
672,1.118067,1245.141
673,1.119617,1245.141
674,1.121283,1247.674
675,1.12295,1247.6
676,1.124617,1247.6
677,1.126283,1245.216
678,1.12795,1245.514
679,1.129617,1241.192
680,1.131283,1241.192
681,1.13295,1241.565
682,1.134617,1244.396
683,1.136283,1242.086
684,1.13795,1242.086
685,1.139617,1240.373
686,1.141283,1238.734
687,1.14295,1236.498
688,1.144617,1236.498
689,1.146283,1239.926
690,1.14795,1241.788
691,1.149617,1241.788
692,1.151283,1240.745
693,1.15295,1239.851
694,1.154617,1237.839
695,1.156283,1237.839
696,1.15795,1236.722
697,1.159617,1237.318
698,1.161283,1235.157
699,1.16295,1235.157
700,1.164617,1235.232
701,1.166267,1235.083
702,1.167933,1230.687
703,1.1696,1230.687
704,1.171267,1230.314
705,1.172933,1227.781
706,1.1746,1227.483
707,1.176317,1227.483
708,1.177933,1227.856
709,1.1796,1230.91
710,1.181267,1230.91
711,1.182933,1233.295
712,1.1846,1233.593
713,1.186267,1235.53
714,1.18795,1235.53
715,1.1896,1235.157
716,1.191267,1232.699
717,1.192933,1230.91
718,1.1946,1230.91
719,1.196267,1230.761
720,1.197933,1227.93
721,1.1996,1231.283
722,1.201267,1231.283
723,1.20295,1233.295
724,1.2046,1230.165
725,1.206267,1230.165
726,1.207933,1231.656
727,1.2096,1230.463
728,1.211267,1230.985
729,1.212933,1230.985
730,1.2146,1231.73
731,1.216267,1229.718
732,1.217933,1227.036
733,1.219667,1227.036
734,1.221267,1222.491
735,1.222933,1220.48
736,1.2246,1220.331
737,1.226267,1220.331
738,1.227917,1222.119
739,1.229583,1223.013
740,1.23125,1225.844
741,1.232917,1225.844
742,1.234583,1225.844
743,1.236317,1223.013
744,1.237917,1223.013
745,1.239583,1220.703
746,1.24125,1217.723
747,1.242917,1216.084
748,1.244583,1216.084
749,1.24625,1216.009
750,1.247917,1218.99
751,1.2496,1222.64
752,1.25125,1222.64
753,1.253033,1223.46
754,1.254583,1225.471
755,1.25625,1226.664
756,1.257917,1226.664
757,1.259583,1223.907
758,1.26125,1223.236
759,1.262917,1223.236
760,1.2646,1220.405
761,1.26625,1217.723
762,1.267917,1216.68
763,1.269583,1216.68
764,1.27125,1215.786
765,1.272917,1217.052
766,1.274583,1217.35
767,1.27625,1217.35
768,1.277917,1218.17
769,1.279583,1218.468
770,1.28125,1217.127
771,1.282917,1217.127
772,1.284583,1217.127
773,1.28625,1216.605
774,1.287917,1216.605
775,1.289567,1217.052
776,1.291233,1219.287
777,1.2929,1217.946
778,1.29455,1217.946
779,1.296217,1214.743
780,1.297883,1214.594
781,1.29955,1211.464
782,1.301217,1211.464
783,1.302883,1210.719
784,1.30455,1211.241
785,1.306217,1212.135
786,1.307883,1212.135
787,1.30955,1212.656
788,1.311217,1213.402
789,1.312883,1215.711
790,1.31455,1215.711
791,1.316217,1214.668
792,1.317883,1212.507
793,1.31955,1212.507
794,1.321217,1210.421
795,1.322883,1211.315
796,1.32455,1210.943
797,1.326217,1210.943
798,1.327883,1213.998
799,1.32955,1216.68
800,1.331217,1213.923
801,1.332883,1213.923
802,1.33455,1211.688
803,1.336217,1210.347
804,1.337917,1209.825
805,1.33955,1209.825
806,1.341217,1210.645
807,1.342883,1210.347
808,1.34455,1210.347
809,1.346217,1209.825
810,1.347883,1209.006
811,1.349533,1207.069
812,1.3512,1207.069
813,1.352867,1207.292
814,1.354583,1206.174
815,1.3562,1204.61
816,1.357867,1204.61
817,1.359533,1206.323
818,1.3612,1205.876
819,1.362867,1207.367
820,1.364533,1207.367
821,1.3662,1206.92
822,1.367867,1205.802
823,1.369533,1205.802
824,1.3713,1205.802
825,1.372867,1205.206
826,1.374533,1204.982
827,1.3762,1204.982
828,1.377867,1206.323
829,1.379533,1207.516
830,1.3812,1203.567
831,1.382867,1203.567
832,1.384533,1205.727
833,1.3862,1203.641
834,1.387867,1204.088
835,1.389533,1204.088
836,1.391233,1205.429
837,1.392867,1202.598
838,1.394533,1204.908
839,1.3962,1204.908
840,1.397867,1204.982
841,1.399533,1206.845
842,1.4012,1206.845
843,1.402867,1209.453
844,1.404533,1208.857
845,1.4062,1209.08
846,1.40785,1209.08
847,1.409517,1208.782
848,1.411183,1207.59
849,1.41285,1205.653
850,1.414517,1205.653
851,1.416183,1205.355
852,1.41785,1206.547
853,1.419517,1204.535
854,1.421183,1204.535
855,1.42285,1206.323
856,1.424517,1207.516
857,1.426183,1206.398
858,1.42785,1206.398
859,1.429517,1208.037
860,1.431183,1208.857
861,1.43285,1208.857
862,1.434533,1203.567
863,1.436183,1202.673
864,1.43785,1204.535
865,1.439533,1204.535
866,1.441183,1202.673
867,1.44285,1204.163
868,1.444517,1204.163
869,1.446183,1204.163
870,1.44785,1201.63
871,1.449517,1200.438
872,1.451183,1202.151
873,1.45285,1202.151
874,1.454517,1203.418
875,1.45625,1203.79
876,1.45785,1203.79
877,1.459517,1204.312
878,1.461183,1204.759
879,1.46285,1202.077
880,1.464533,1202.077
881,1.466183,1200.81
882,1.467833,1202.673
883,1.4695,1201.555
884,1.471167,1201.555
885,1.472883,1202.3
886,1.4745,1204.014
887,1.476167,1199.543
888,1.477833,1199.543
889,1.4795,1198.947
890,1.481167,1198.5
891,1.482833,1198.5
892,1.4845,1195.446
893,1.486167,1197.308
894,1.487833,1197.83
895,1.489617,1197.83
896,1.491167,1197.681
897,1.492833,1198.053
898,1.4945,1200.065
899,1.496167,1200.065
900,1.497833,1199.99
901,1.4995,1201.257
902,1.501167,1202.375
903,1.502833,1202.375
904,1.5045,1200.959
905,1.506167,1200.587
906,1.507833,1199.543
907,1.5095,1199.543
908,1.511167,1200.065
909,1.512833,1200.14
910,1.5145,1200.14
911,1.516167,1199.32
912,1.517833,1197.83
913,1.5195,1196.265
914,1.521167,1196.265
915,1.52285,1195.669
916,1.5245,1195.52
