"ID","sea_time","fid_signal"
1,0,1168.251
2,0.001667,1165.047
3,0.003333,1165.047
4,0.005,1166.09
5,0.006667,1167.357
6,0.008333,1167.357
7,0.01,1170.263
8,0.011667,1171.902
9,0.013317,1170.933
10,0.015,1170.933
11,0.016667,1173.094
12,0.018317,1169.592
13,0.019983,1167.804
14,0.02165,1167.804
15,0.023317,1168.475
16,0.024983,1168.177
17,0.02665,1168.996
18,0.028317,1168.996
19,0.03005,1170.635
20,0.03165,1173.466
21,0.033317,1172.796
22,0.034983,1172.796
23,0.03665,1176.372
24,0.038317,1178.682
25,0.04,1178.682
26,0.04165,1176.968
27,0.043317,1177.937
28,0.044983,1176.968
29,0.04665,1176.968
30,0.048317,1174.957
31,0.049983,1173.541
32,0.05165,1170.859
33,0.053317,1170.859
34,0.054983,1171.529
35,0.05665,1171.008
36,0.058317,1171.976
37,0.059983,1171.976
38,0.06165,1172.572
39,0.063417,1170.635
40,0.064983,1170.635
41,0.06665,1170.412
42,0.068317,1170.933
43,0.069983,1173.392
44,0.07165000000000001,1173.392
45,0.07331699999999999,1174.882
46,0.07498299999999999,1177.043
47,0.07665,1178.756
48,0.07829999999999999,1178.756
49,0.079967,1180.321
50,0.081633,1179.129
51,0.0833,1176.372
52,0.084967,1176.372
53,0.086633,1175.18
54,0.0883,1172.647
55,0.08996700000000001,1171.455
56,0.09163300000000001,1171.455
57,0.09329999999999999,1175.18
58,0.094967,1172.2
59,0.096633,1172.2
60,0.0983,1171.902
61,0.099967,1174.733
62,0.101633,1172.945
63,0.1033,1172.945
64,0.104967,1174.882
65,0.106633,1172.572
66,0.1083,1171.753
67,0.109967,1171.753
68,0.111633,1169.741
69,0.1133,1167.655
70,0.114967,1168.027
71,0.116633,1168.027
72,0.1183,1165.718
73,0.119967,1169.294
74,0.121633,1169.294
75,0.1233,1170.784
76,0.124967,1174.435
77,0.126633,1176.372
78,0.1283,1176.372
79,0.129967,1176
80,0.131633,1176.819
81,0.1333,1176.372
82,0.134967,1176.372
83,0.13665,1176.223
84,0.138283,1175.329
85,0.13995,1176.149
86,0.141617,1176.149
87,0.143283,1175.925
88,0.14495,1174.807
89,0.146617,1175.776
90,0.148367,1175.776
91,0.14995,1174.584
92,0.151617,1175.329
93,0.153283,1175.329
94,0.15495,1176.372
95,0.156617,1178.16
96,0.158283,1179.501
97,0.159967,1179.501
98,0.161617,1177.788
99,0.163283,1178.011
100,0.16495,1173.168
101,0.166617,1173.168
102,0.168283,1170.039
103,0.16995,1167.58
104,0.171617,1166.835
105,0.173283,1166.835
106,0.17495,1168.102
107,0.176617,1171.008
108,0.178283,1171.008
109,0.17995,1171.976
110,0.181683,1169.071
111,0.183283,1168.4
112,0.18495,1168.4
113,0.186617,1169.816
114,0.188283,1173.839
115,0.18995,1177.564
116,0.191617,1177.564
117,0.193283,1179.203
118,0.19495,1176.447
119,0.1966,1174.51
120,0.198267,1174.51
121,0.199933,1174.882
122,0.2016,1173.466
123,0.203267,1173.466
124,0.204933,1176.447
125,0.2066,1177.192
126,0.208267,1177.117
127,0.209933,1177.117
128,0.2116,1181.364
129,0.213267,1180.47
130,0.214933,1180.023
131,0.2166,1180.023
132,0.218267,1176.596
133,0.219933,1171.008
134,0.2216,1170.263
135,0.223267,1170.263
136,0.224933,1170.337
137,0.2266,1170.337
138,0.228283,1171.753
139,0.229933,1171.753
140,0.2316,1170.412
141,0.233267,1167.506
142,0.234933,1167.506
143,0.2366,1167.357
144,0.238267,1165.047
145,0.239933,1164.153
146,0.2416,1164.153
147,0.243267,1163.781
148,0.244933,1165.047
149,0.246583,1169.965
150,0.24825,1169.965
151,0.249933,1171.827
152,0.251583,1175.255
153,0.25325,1174.286
154,0.254917,1174.286
155,0.256583,1171.38
156,0.258233,1170.486
157,0.2599,1170.486
158,0.261567,1171.529
159,0.263233,1174.212
160,0.2649,1175.478
161,0.266633,1175.478
162,0.268233,1177.266
163,0.2699,1174.957
164,0.271567,1174.51
165,0.273233,1174.51
166,0.2749,1175.031
167,0.276567,1173.466
168,0.278233,1172.796
169,0.2799,1172.796
170,0.281567,1173.839
171,0.283317,1171.306
172,0.2849,1171.529
173,0.286567,1171.529
174,0.288233,1173.243
175,0.2899,1171.604
176,0.291567,1171.604
177,0.293233,1174.212
178,0.2949,1173.913
179,0.296567,1170.337
180,0.298233,1170.337
181,0.3,1168.847
182,0.301583,1166.537
183,0.303233,1168.475
184,0.3049,1168.475
185,0.306567,1170.859
186,0.308233,1170.486
187,0.3099,1171.157
188,0.311567,1171.157
189,0.313233,1170.561
190,0.3149,1171.082
191,0.316583,1171.082
192,0.318217,1175.255
193,0.319883,1177.341
194,0.32155,1176.596
195,0.323217,1176.596
196,0.324883,1174.957
197,0.326567,1173.019
198,0.328217,1169.294
199,0.329883,1169.294
200,0.33155,1172.423
201,0.333217,1176.67
202,0.3349,1177.862
203,0.33655,1177.862
204,0.338217,1182.109
205,0.339883,1180.097
206,0.34155,1175.702
207,0.343217,1175.702
208,0.344883,1176
209,0.34655,1172.2
210,0.348217,1172.2
211,0.349883,1170.933
212,0.35155,1173.466
213,0.353217,1172.721
214,0.354883,1172.721
215,0.35655,1176.149
216,0.358217,1178.98
217,0.359883,1180.619
218,0.36155,1180.619
219,0.363217,1180.917
220,0.364883,1183.674
221,0.36655,1187.026
222,0.368217,1187.026
223,0.369883,1192.093
224,0.37155,1203.194
225,0.373217,1203.194
226,0.374883,1218.692
227,0.37655,1240.596
228,0.3782,1276.806
229,0.379867,1276.806
230,0.381533,1330.748
231,0.3832,1407.042
232,0.384933,1517.981
233,0.386567,1517.981
234,0.3882,1669.228
235,0.389867,1868.01
236,0.391533,2133.399
237,0.3932,2133.399
238,0.394867,2476.275
239,0.396533,2906.993
240,0.3982,2906.993
241,0.399867,3433.973
242,0.401567,4062.131
243,0.4032,4787.296
244,0.404867,4787.296
245,0.406533,5612.895
246,0.4082,6530.285
247,0.409867,7524.863
248,0.411533,7524.863
249,0.4132,8584.037
250,0.414867,9687.841
251,0.416533,10820.181
252,0.4183,10820.181
253,0.419867,11954.01
254,0.421533,13072.192
255,0.4232,14148.429
256,0.424867,14148.429
257,0.426533,15163.422
258,0.4282,16102.418
259,0.429867,16102.418
260,0.431533,16947.166
261,0.4332,17685.891
262,0.434867,18312.781
263,0.436533,18312.781
264,0.438183,18821.955
265,0.43985,19208.193
266,0.441517,19475.072
267,0.443183,19475.072
268,0.44485,19627.959
269,0.446517,19672.439
270,0.448183,19618.645
271,0.44985,19618.645
272,0.451517,19479.32
273,0.453183,19258.336
274,0.45485,19258.336
275,0.456517,18967.539
276,0.458183,18619.82
277,0.45985,18219.203
278,0.461517,18219.203
279,0.463183,17782.152
280,0.46485,17312.766
281,0.466517,16819.686
282,0.468183,16819.686
283,0.46985,16316.622
284,0.471517,15801.415
285,0.473183,15284.271
286,0.47485,15284.271
287,0.476517,14772.489
288,0.478183,14266.521
289,0.47985,13772.249
290,0.481517,13772.249
291,0.483183,13285.727
292,0.48485,12809.411
293,0.486517,12809.411
294,0.488183,12341.439
295,0.48985,11888.892
296,0.491517,11456.013
297,0.493183,11456.013
298,0.49485,11039.302
299,0.4965,10643.08
300,0.498167,10257.959
301,0.49985,10257.959
302,0.5014999999999999,9888.932000000001
303,0.503183,9538.308000000001
304,0.504833,9200.945
305,0.5065,9200.945
306,0.508167,8881.837
307,0.509833,8582.249
308,0.5115,8582.249
309,0.513167,8294.508
310,0.514833,8019.582
311,0.5165,7757.023
312,0.518167,7757.023
313,0.51985,7501.319
314,0.5215,7259.324
315,0.523167,7027.089
316,0.524833,7027.089
317,0.5265,6806.702
318,0.5281670000000001,6599.501
319,0.529833,6398.559
320,0.5315,6398.559
321,0.5331669999999999,6210.432
322,0.534833,6030.425
323,0.536583,5856.976
324,0.53815,5856.976
325,0.539817,5694.032
326,0.541483,5537.123
327,0.54315,5537.123
328,0.544817,5387.068
329,0.5464830000000001,5243.644
330,0.54815,5106.926
331,0.549817,5106.926
332,0.5514829999999999,4975.125
333,0.55325,4848.54
334,0.554817,4728.213
335,0.5564829999999999,4728.213
336,0.558133,4612.208
337,0.5598,4502.386
338,0.5615,4397.854
339,0.563133,4397.854
340,0.5648,4294.515
341,0.5664670000000001,4194.379
342,0.568133,4194.379
343,0.5698,4098.192
344,0.5714669999999999,4007.593
345,0.573133,3922.06
346,0.5748,3922.06
347,0.576467,3839.88
348,0.578133,3758.222
349,0.5798,3677.01
350,0.581467,3677.01
351,0.583133,3601.611
352,0.5848,3527.924
353,0.586467,3458.857
354,0.588133,3458.857
355,0.5898,3392.249
356,0.591467,3326.237
357,0.593133,3326.237
358,0.5948,3263.876
359,0.596467,3204.346
360,0.598133,3148.466
361,0.5998,3148.466
362,0.601467,3094.822
363,0.60315,3043.562
364,0.6048,2996.847
365,0.606467,2996.847
366,0.608133,2947.971
367,0.6098,2901.554
368,0.611467,2857.223
369,0.613133,2857.223
370,0.6148,2811.328
371,0.616467,2770.349
372,0.618117,2728.85
373,0.619783,2728.85
374,0.6214499999999999,2686.977
375,0.623117,2645.329
376,0.624783,2645.329
377,0.62645,2604.723
378,0.628117,2568.662
379,0.629783,2532.378
380,0.63145,2532.378
381,0.633117,2501.681
382,0.634783,2470.836
383,0.63645,2436.191
384,0.638117,2436.191
385,0.639783,2404.004
386,0.64145,2372.712
387,0.643117,2343.953
388,0.644783,2343.953
389,0.64645,2315.417
390,0.6481170000000001,2288.148
391,0.649783,2288.148
392,0.65145,2259.612
393,0.6531169999999999,2234.355
394,0.654833,2207.979
395,0.65645,2207.979
396,0.658117,2184.957
397,0.659783,2161.86
398,0.66145,2138.317
399,0.663117,2138.317
400,0.664783,2117.231
401,0.66645,2093.911
402,0.668117,2074.912
403,0.669783,2074.912
404,0.671567,2053.008
405,0.673117,2033.114
406,0.674783,2018.213
407,0.67645,2018.213
408,0.6781,2000.332
409,0.6798,1982.45
410,0.681433,1982.45
411,0.6831,1967.177
412,0.684767,1946.241
413,0.686433,1929.402
414,0.6881,1929.402
415,0.689767,1913.086
416,0.691433,1897.886
417,0.6931,1884.401
418,0.694767,1884.401
419,0.696433,1864.806
420,0.6981000000000001,1845.732
421,0.699767,1831.502
422,0.701433,1831.502
423,0.7030999999999999,1816.824
424,0.704767,1804.531
425,0.706433,1804.531
426,0.7081,1797.155
427,0.709767,1783.967
428,0.711433,1770.854
429,0.7131,1770.854
430,0.714767,1762.286
431,0.716433,1751.259
432,0.7181,1741.052
433,0.719767,1741.052
434,0.721433,1736.134
435,0.7231,1721.829
436,0.7247670000000001,1707.226
437,0.726433,1707.226
438,0.7281,1698.583
439,0.7297670000000001,1684.427
440,0.731433,1679.137
441,0.7331,1679.137
442,0.7347669999999999,1671.761
443,0.736417,1659.915
444,0.7381,1659.915
445,0.73975,1652.315
446,0.741417,1640.171
447,0.743083,1631.007
448,0.74475,1631.007
449,0.746417,1622.438
450,0.7480830000000001,1614.541
451,0.749783,1607.239
452,0.751417,1607.239
453,0.7530829999999999,1602.396
454,0.75475,1594.722
455,0.756433,1584.217
456,0.758083,1584.217
457,0.75975,1576.394
458,0.761417,1569.837
459,0.763083,1569.837
460,0.76475,1561.642
461,0.766417,1557.246
462,0.768083,1551.062
463,0.76975,1551.062
464,0.771417,1543.015
465,0.7731170000000001,1538.098
466,0.77475,1527.891
467,0.776417,1527.891
468,0.778083,1521.26
469,0.7797500000000001,1513.585
470,0.781417,1508.892
471,0.783083,1508.892
472,0.7847499999999999,1506.656
473,0.786417,1500.771
474,0.788083,1500.771
475,0.7898500000000001,1496.226
476,0.791417,1489.297
477,0.793083,1483.56
478,0.79475,1483.56
479,0.7964,1480.356
480,0.798067,1475.736
481,0.799733,1472.235
482,0.8014,1472.235
483,0.803067,1466.2
484,0.804733,1459.569
485,0.8064,1454.13
486,0.808067,1454.13
487,0.809733,1450.255
488,0.8114,1446.754
489,0.813067,1446.158
490,0.814733,1446.158
491,0.8164,1443.028
492,0.818083,1439.154
493,0.819733,1439.154
494,0.8214,1438.782
495,0.823067,1433.045
496,0.824733,1431.704
497,0.8264,1431.704
498,0.828067,1425.52
499,0.829717,1417.547
500,0.831383,1413.748
501,0.83305,1413.748
502,0.834717,1407.415
503,0.836383,1408.309
504,0.83805,1405.254
505,0.839717,1405.254
506,0.841383,1403.093
507,0.84305,1400.635
508,0.8447170000000001,1400.635
509,0.846383,1394.376
510,0.84805,1394.674
511,0.8497169999999999,1391.768
512,0.851383,1391.768
513,0.85305,1391.694
514,0.8547169999999999,1393.408
515,0.856383,1391.396
516,0.858033,1391.396
517,0.8597,1387.671
518,0.861367,1381.338
519,0.8630330000000001,1375.75
520,0.8647,1375.75
521,0.866367,1370.758
522,0.8680330000000001,1367.331
523,0.8697,1365.915
524,0.871367,1365.915
525,0.8730329999999999,1365.244
526,0.8747,1362.413
527,0.876367,1362.413
528,0.878033,1359.805
529,0.8797,1356.974
530,0.881367,1352.653
531,0.883033,1352.653
532,0.8847,1348.779
533,0.886367,1347.512
534,0.88805,1344.979
535,0.8897,1344.979
536,0.8914,1340.732
537,0.893033,1338.571
538,0.8947000000000001,1336.262
539,0.896367,1336.262
540,0.898033,1334.399
541,0.8997000000000001,1335.442
542,0.901367,1335.442
543,0.903033,1336.858
544,0.9046999999999999,1337.454
545,0.906367,1333.505
546,0.90815,1333.505
547,0.9097,1328.141
548,0.911367,1322.255
549,0.913033,1320.615
550,0.9147,1320.615
551,0.916367,1323.67
552,0.918017,1322.404
553,0.919683,1325.905
554,0.92135,1325.905
555,0.923017,1321.435
556,0.924683,1315.474
557,0.92635,1316.22
558,0.928017,1316.22
559,0.929683,1308.844
560,0.93135,1308.993
561,0.933017,1308.993
562,0.934683,1312.792
563,0.93635,1310.483
564,0.938017,1313.761
565,0.939683,1313.761
566,0.94135,1309.067
567,0.943017,1303.405
568,0.9446830000000001,1301.84
569,0.94635,1301.84
570,0.948017,1298.338
571,0.9496830000000001,1299.083
572,0.95135,1299.381
573,0.953017,1299.381
574,0.9546829999999999,1296.55
575,0.95635,1296.55
576,0.958017,1296.55
577,0.959683,1295.358
578,0.96135,1291.484
579,0.963017,1291.558
580,0.964683,1291.558
581,0.966367,1288.801
582,0.968017,1286.492
583,0.969683,1284.555
584,0.971367,1284.555
585,0.973017,1285.225
586,0.974667,1283.511
587,0.976333,1284.406
588,0.978,1284.406
589,0.979667,1287.237
590,0.981333,1284.033
591,0.983,1284.033
592,0.984667,1284.555
593,0.986333,1281.127
594,0.988,1275.837
595,0.989667,1275.837
596,0.991333,1273.453
597,0.99305,1271.665
598,0.994667,1272.559
599,0.996333,1272.559
600,0.998,1273.528
601,0.999667,1276.657
602,1.001333,1274.943
603,1.003,1274.943
604,1.004667,1272.038
605,1.006333,1273.379
606,1.008,1268.387
607,1.009667,1268.387
608,1.011333,1268.685
609,1.013,1268.238
610,1.014667,1268.238
611,1.016333,1265.928
612,1.018,1267.344
613,1.019667,1265.109
614,1.021333,1265.109
615,1.023,1267.344
616,1.024667,1269.43
617,1.026417,1266.375
618,1.028,1266.375
619,1.029667,1265.705
620,1.031333,1261.309
621,1.033,1257.062
622,1.034667,1257.062
623,1.036317,1257.434
624,1.037983,1257.211
625,1.03965,1257.211
626,1.041317,1257.062
627,1.042983,1258.85
628,1.04465,1256.391
629,1.046317,1256.391
630,1.047983,1256.466
631,1.04965,1258.701
632,1.051317,1258.329
633,1.052983,1258.329
634,1.05465,1259.074
635,1.056317,1257.733
636,1.057983,1254.454
637,1.05965,1254.454
638,1.061317,1252.443
639,1.063,1249.537
640,1.06465,1249.909
641,1.066317,1249.909
642,1.067983,1249.537
643,1.06965,1246.259
644,1.071317,1246.259
645,1.072983,1245.737
646,1.07465,1242.98
647,1.076317,1244.098
648,1.077983,1244.098
649,1.07965,1247.525
650,1.081317,1247.153
651,1.082983,1247.302
652,1.08465,1247.302
653,1.086317,1245.365
654,1.087983,1242.757
655,1.08965,1244.47
656,1.091317,1244.47
657,1.092983,1244.098
658,1.09465,1245.588
659,1.0963,1245.588
660,1.098,1245.812
661,1.099633,1247.153
662,1.1013,1249.388
663,1.102967,1249.388
664,1.104633,1249.239
665,1.1063,1248.196
666,1.107967,1247.6
667,1.109633,1247.6
668,1.11135,1243.278
669,1.112967,1240.447
670,1.114633,1237.243
671,1.1163,1237.243
672,1.117967,1234.114
673,1.119633,1234.71
674,1.121283,1234.04
675,1.12295,1234.04
676,1.124617,1236.126
677,1.126283,1234.859
678,1.12795,1234.859
679,1.129617,1235.53
680,1.131283,1236.2
681,1.13295,1234.561
682,1.134617,1234.561
683,1.136283,1235.232
684,1.13795,1232.177
685,1.139617,1231.059
686,1.1413,1231.059
687,1.14295,1228.899
688,1.1447,1226.217
689,1.146283,1225.099
690,1.14795,1225.099
691,1.149617,1221.597
692,1.151283,1223.087
693,1.15295,1223.087
694,1.154617,1224.279
695,1.156267,1226.291
696,1.157933,1228.079
697,1.1596,1228.079
698,1.161267,1229.793
699,1.162933,1231.059
700,1.1646,1231.953
701,1.166267,1231.953
702,1.167933,1229.271
703,1.1696,1225.993
704,1.171267,1223.087
705,1.172933,1223.087
706,1.1746,1220.703
707,1.176267,1223.907
708,1.177933,1223.907
709,1.1796,1221.523
710,1.181267,1223.683
711,1.182933,1223.683
712,1.1846,1223.683
713,1.186267,1224.503
714,1.187933,1228.154
715,1.1896,1228.601
716,1.191267,1228.601
717,1.192933,1227.856
718,1.1946,1225.099
719,1.196267,1222.789
720,1.197933,1222.789
721,1.1996,1219.586
722,1.201267,1220.033
723,1.202933,1217.127
724,1.2046,1217.127
725,1.206267,1213.476
726,1.207933,1215.562
727,1.2096,1215.562
728,1.211267,1214.966
729,1.212933,1217.648
730,1.2146,1221.001
731,1.216267,1221.001
732,1.217917,1220.107
733,1.219583,1219.139
734,1.22125,1217.574
735,1.222917,1217.574
736,1.224583,1217.052
737,1.22625,1215.413
738,1.227917,1215.935
739,1.229617,1215.935
740,1.23125,1217.574
741,1.23295,1217.574
742,1.234583,1217.574
743,1.23625,1218.692
744,1.237917,1217.797
745,1.239583,1214.072
746,1.24125,1214.072
747,1.242917,1214.817
748,1.244583,1214.668
749,1.246367,1215.86
750,1.247917,1215.86
751,1.249583,1219.213
752,1.25125,1217.797
753,1.252917,1216.456
754,1.254583,1216.456
755,1.25625,1213.402
756,1.257917,1209.676
757,1.259583,1208.931
758,1.26125,1208.931
759,1.263033,1206.994
760,1.264583,1207.665
761,1.26625,1207.665
762,1.267917,1209.974
763,1.269583,1211.315
764,1.27125,1212.954
765,1.272917,1212.954
766,1.274583,1213.104
767,1.27625,1211.688
768,1.2779,1211.017
769,1.279683,1211.017
770,1.281233,1212.433
771,1.2829,1211.092
772,1.284567,1209.527
773,1.286233,1209.527
774,1.2879,1207.516
775,1.289567,1205.429
776,1.291233,1205.429
777,1.2929,1206.473
778,1.294567,1207.143
779,1.296233,1207.516
780,1.2979,1207.516
781,1.299567,1206.771
782,1.301233,1204.833
783,1.3029,1207.814
784,1.304567,1207.814
785,1.306267,1208.559
786,1.307917,1206.845
787,1.309567,1207.218
788,1.311233,1207.218
789,1.3129,1203.641
790,1.314567,1205.802
791,1.316233,1208.037
792,1.3179,1208.037
793,1.319567,1210.57
794,1.321233,1210.943
795,1.3229,1210.943
796,1.324567,1208.708
797,1.326233,1208.41
798,1.3279,1206.249
799,1.329567,1206.249
800,1.331233,1206.994
801,1.3329,1207.516
802,1.334567,1206.323
803,1.336217,1206.323
804,1.337883,1205.28
805,1.33955,1204.61
806,1.341217,1202.151
807,1.342883,1202.151
808,1.34455,1202.151
809,1.346217,1202.449
810,1.347883,1202.449
811,1.34955,1202.598
812,1.351217,1205.28
813,1.352883,1207.665
814,1.35455,1207.665
815,1.356217,1208.037
816,1.357883,1205.355
817,1.35955,1202.3
818,1.361217,1202.3
819,1.362883,1200.661
820,1.3646,1199.99
821,1.366217,1202.151
822,1.367883,1202.151
823,1.369567,1200.885
824,1.371217,1199.693
825,1.372883,1201.853
826,1.37455,1201.853
827,1.376217,1199.469
828,1.377883,1203.343
829,1.37955,1203.343
830,1.3813,1202.822
831,1.382883,1202.822
832,1.38455,1205.355
833,1.386217,1205.355
834,1.387883,1204.088
835,1.38955,1203.492
836,1.391217,1201.406
837,1.392883,1201.406
838,1.39455,1200.363
839,1.3962,1199.842
840,1.397983,1199.916
841,1.399533,1199.916
842,1.4012,1197.904
843,1.402867,1197.383
844,1.404533,1197.383
845,1.4062,1198.426
846,1.407867,1197.904
847,1.409533,1200.214
848,1.4112,1200.214
849,1.41285,1201.555
850,1.414517,1201.63
851,1.416183,1201.555
852,1.41785,1201.555
853,1.419517,1201.406
854,1.421183,1198.873
855,1.42285,1196.414
856,1.424517,1196.414
857,1.426183,1197.383
858,1.42785,1196.489
859,1.429517,1196.489
860,1.431183,1198.053
861,1.43285,1196.116
862,1.434517,1192.614
863,1.436183,1192.614
864,1.43785,1192.093
865,1.439517,1191.348
866,1.441183,1194.328
867,1.44285,1194.328
868,1.444517,1196.116
869,1.446183,1195.222
870,1.44785,1193.881
871,1.449517,1193.881
872,1.451183,1190.901
873,1.45285,1193.136
874,1.454517,1195.818
875,1.4562,1195.818
876,1.457833,1199.171
877,1.4595,1200.885
878,1.461167,1200.885
879,1.462833,1199.171
880,1.4645,1198.128
881,1.466167,1194.104
882,1.467833,1194.104
883,1.4695,1192.614
884,1.471167,1192.391
885,1.472833,1190.379
886,1.4745,1190.379
887,1.476167,1192.912
888,1.477833,1195.371
889,1.4795,1196.563
890,1.481167,1196.563
891,1.4829,1197.234
892,1.4845,1194.477
893,1.486167,1194.477
894,1.487833,1193.807
895,1.4895,1192.614
896,1.491167,1193.881
897,1.492833,1193.881
898,1.4945,1195.893
899,1.496167,1193.21
900,1.497833,1191.72
901,1.49955,1191.72
902,1.501167,1192.54
903,1.502833,1195.073
904,1.5045,1199.916
905,1.506167,1199.916
906,1.507833,1203.79
907,1.5095,1202.151
908,1.511167,1197.904
909,1.512833,1197.904
910,1.5145,1192.54
911,1.516217,1188.219
912,1.517817,1188.219
913,1.519483,1187.324
914,1.52115,1189.858
915,1.522817,1191.944
916,1.524483,1191.944
917,1.52615,1195.446
