"ID","sea_time","fid_signal"
1,0,142.328
2,0.001667,142.202
3,0.003333,142.321
4,0.004983,142.664
5,0.006717,142.664
6,0.008317,142.537
7,0.009983000000000001,142.217
8,0.01165,141.665
9,0.013317,141.665
10,0.014983,141.032
11,0.01665,140.883
12,0.018317,141.062
13,0.019983,141.062
14,0.02165,141.442
15,0.023433,141.695
16,0.024983,141.695
17,0.02665,141.777
18,0.028317,141.926
19,0.029983,142.053
20,0.03165,142.053
21,0.033317,142.53
22,0.034983,142.753
23,0.03665,142.828
24,0.038317,142.828
25,0.039983,142.545
26,0.04165,142.299
27,0.043317,142.261
28,0.044983,142.261
29,0.04665,142.254
30,0.048317,142.545
31,0.049983,142.545
32,0.05165,142.381
33,0.053317,142.284
34,0.054983,142.172
35,0.05665,142.172
36,0.058317,142.172
37,0.059983,142.053
38,0.06165,141.911
39,0.063317,141.911
40,0.064983,141.911
41,0.066633,142.075
42,0.0683,142.358
43,0.07000000000000001,142.358
44,0.071633,142.5
45,0.0733,142.567
46,0.07496700000000001,142.366
47,0.07663300000000001,142.366
48,0.07829999999999999,142.351
49,0.079967,142.209
50,0.081633,142.209
51,0.0833,142.06
52,0.084967,142.016
53,0.086633,141.747
54,0.0883,141.747
55,0.08996700000000001,141.867
56,0.09163300000000001,142.142
57,0.09329999999999999,142.246
58,0.094967,142.246
59,0.096633,142.165
60,0.0983,142.03
61,0.099967,141.717
62,0.101633,141.717
63,0.1033,141.755
64,0.104967,141.829
65,0.106633,141.829
66,0.10835,142.06
67,0.109967,142.306
68,0.111633,142.299
69,0.1133,142.299
70,0.114967,142.552
71,0.116633,142.701
72,0.1183,142.664
73,0.119967,142.664
74,0.121633,142.619
75,0.1233,142.559
76,0.124983,142.641
77,0.126617,142.641
78,0.128283,142.723
79,0.12995,142.723
80,0.131617,142.492
81,0.133283,142.492
82,0.134967,142.269
83,0.136617,142.142
84,0.138283,142.142
85,0.13995,142.12
86,0.141683,142.418
87,0.143283,142.492
88,0.144967,142.492
89,0.146617,142.649
90,0.148283,142.358
91,0.14995,142.127
92,0.151617,142.127
93,0.153283,142.112
94,0.15495,141.725
95,0.156617,141.777
96,0.158283,141.777
97,0.15995,142.008
98,0.161617,141.852
99,0.163283,141.852
100,0.16495,141.978
101,0.166617,141.993
102,0.168283,141.785
103,0.16995,141.785
104,0.171617,141.688
105,0.173283,141.978
106,0.17495,142.351
107,0.176617,142.351
108,0.178283,142.157
109,0.179933,142.097
110,0.1816,142.008
111,0.183267,142.008
112,0.184933,141.479
113,0.186583,141.695
114,0.18825,141.695
115,0.189917,141.852
116,0.191583,141.725
117,0.19325,142.142
118,0.194917,142.142
119,0.196583,142.276
120,0.19825,142.403
121,0.199917,142.336
122,0.201583,142.336
123,0.20325,142.194
124,0.204917,142.41
125,0.206583,142.381
126,0.20825,142.381
127,0.209933,142.418
128,0.2116,142.314
129,0.21325,142.314
130,0.214917,142.314
131,0.216583,142.157
132,0.21825,142.008
133,0.219917,142.008
134,0.221583,142.388
135,0.22325,142.291
136,0.224917,142.418
137,0.226583,142.418
138,0.22825,142.679
139,0.229917,142.425
140,0.231583,142.15
141,0.23325,142.15
142,0.234917,142.284
143,0.236583,142.142
144,0.23825,142.112
145,0.239917,142.112
146,0.241583,142.425
147,0.243267,142.358
148,0.2449,142.358
149,0.246567,142.463
150,0.248233,142.641
151,0.2499,142.515
152,0.251567,142.515
153,0.253233,142.351
154,0.2549,142.165
155,0.256567,142.194
156,0.258233,142.194
157,0.2599,142.127
158,0.261567,142.135
159,0.263233,142.217
160,0.2649,142.217
161,0.266567,142.202
162,0.268233,142.142
163,0.2699,142.008
164,0.271567,142.008
165,0.273233,141.934
166,0.2749,141.822
167,0.276567,141.822
168,0.278233,142.008
169,0.2799,142.254
170,0.281567,142.582
171,0.283233,142.582
172,0.2849,142.798
173,0.286567,142.612
174,0.28825,142.515
175,0.2899,142.515
176,0.291567,142.172
177,0.293233,141.74
178,0.2949,141.65
179,0.296567,141.65
180,0.298233,141.896
181,0.2999,142.612
182,0.301567,142.612
183,0.303233,143.431
184,0.304883,144.221
185,0.306567,144.787
186,0.308217,144.787
187,0.3099,145.532
188,0.31155,146.642
189,0.313217,148.326
190,0.314883,148.326
191,0.31655,150.487
192,0.318217,153.363
193,0.319883,156.812
194,0.32155,156.812
195,0.323217,161.216
196,0.324883,166.722
197,0.32655,173.099
198,0.328217,173.099
199,0.329883,180.93
200,0.33155,189.967
201,0.333217,189.967
202,0.334883,200.681
203,0.33655,213.221
204,0.338217,228.286
205,0.339883,228.286
206,0.34155,245.959
207,0.343217,266.254
208,0.3449,289.612
209,0.34655,289.612
210,0.348217,316.046
211,0.349883,346.378
212,0.35155,380.792
213,0.353217,380.792
214,0.354883,419.497
215,0.35655,462.741
216,0.358217,462.741
217,0.359883,510.789
218,0.361567,564.165
219,0.363217,623.316
220,0.364867,623.316
221,0.366533,688.933
222,0.3682,760.8680000000001
223,0.369867,840.276
224,0.371533,840.276
225,0.3732,927.456
226,0.374867,1023.002
227,0.376533,1128.748
228,0.3782,1128.748
229,0.379867,1245.134
230,0.381533,1374.014
231,0.3832,1374.014
232,0.384867,1516.901
233,0.386533,1675.792
234,0.3882,1852.736
235,0.389867,1852.736
236,0.391533,2050.966
237,0.3932,2273.753
238,0.394867,2524.674
239,0.396533,2524.674
240,0.3982,2807.811
241,0.399867,3126.48
242,0.401533,3484.271
243,0.4032,3484.271
244,0.404867,3883.697
245,0.406533,4327.037
246,0.4082,4815.481
247,0.409867,4815.481
248,0.411533,5348.585
249,0.4132,5925.111
250,0.414867,5925.111
251,0.416533,6542.124
252,0.4182,7194.035
253,0.419867,7874.69
254,0.421533,7874.69
255,0.4232,8575.723
256,0.424867,9287.864
257,0.426517,10001.854
258,0.428183,10001.854
259,0.42985,10706.216
260,0.431517,11390.455
261,0.433183,12043.812
262,0.434867,12043.812
263,0.436567,12656.189
264,0.438183,13219.871
265,0.43985,13219.871
266,0.441517,13727.493
267,0.443183,14173.485
268,0.44485,14553.935
269,0.446517,14553.935
270,0.448183,14867.179
271,0.44985,15112.042
272,0.451517,15289.649
273,0.453183,15289.649
274,0.45485,15402.585
275,0.456517,15453.473
276,0.458183,15447.371
277,0.45985,15447.371
278,0.461517,15389.167
279,0.463233,15283.786
280,0.46485,15136.95
281,0.466517,15136.95
282,0.468183,14954.492
283,0.46985,14741.868
284,0.4715,14741.868
285,0.473167,14503.501
286,0.474833,14243.871
287,0.4765,13966.844
288,0.478167,13966.844
289,0.479833,13676.018
290,0.4815,13375.849
291,0.483167,13069.816
292,0.484833,13069.816
293,0.486483,12758.926
294,0.48815,12445.502
295,0.489817,12130.849
296,0.491483,12130.849
297,0.49315,11816.1
298,0.494817,11503.54
299,0.496617,11193.969
300,0.49815,11193.969
301,0.499817,10888.479
302,0.501483,10587.968
303,0.50315,10587.968
304,0.504817,10292.925
305,0.506483,10003.999
306,0.508167,9721.183000000001
307,0.50985,9721.183000000001
308,0.511483,9444.088
309,0.51315,9173.527
310,0.514817,8909.791999999999
311,0.516483,8909.791999999999
312,0.51815,8652.605
313,0.519817,8402.206
314,0.521483,8158.267
315,0.52315,8158.267
316,0.524817,7920.802
317,0.526483,7690.109
318,0.52815,7690.109
319,0.529817,7465.981
320,0.531483,7248.297
321,0.53315,7036.544
322,0.534817,7036.544
323,0.536483,6831.266
324,0.53815,6632.022
325,0.539817,6438.539
326,0.541483,6438.539
327,0.54315,6250.791
328,0.5448,6068.252
329,0.546467,5891.353
330,0.548133,5891.353
331,0.5498,5719.729
332,0.551467,5553.559
333,0.553133,5553.559
334,0.5548,5392.812
335,0.556467,5236.715
336,0.558133,5085.759
337,0.5598,5085.759
338,0.561467,4939.757
339,0.563133,4797.771
340,0.5648,4660.107
341,0.5664670000000001,4660.107
342,0.568133,4526.794
343,0.5698,4397.072
344,0.5714669999999999,4271.582
345,0.573133,4271.582
346,0.574817,4150.189
347,0.576467,4032.813
348,0.578133,4032.813
349,0.5798,3919.236
350,0.58155,3809.407
351,0.583133,3702.894
352,0.5848,3702.894
353,0.586467,3599.443
354,0.588133,3499.53
355,0.5898,3402.3
356,0.591467,3402.3
357,0.593133,3308.341
358,0.5948,3217.436
359,0.596467,3128.745
360,0.598133,3128.745
361,0.5998,3043.368
362,0.601467,2960.548
363,0.603133,2880.149
364,0.6048,2880.149
365,0.60645,2802.513
366,0.608117,2727.047
367,0.609783,2727.047
368,0.61145,2654.031
369,0.613117,2582.997
370,0.614917,2514.452
371,0.6164500000000001,2514.452
372,0.618117,2447.993
373,0.619783,2383.612
374,0.6214499999999999,2321.385
375,0.623117,2321.385
376,0.624783,2260.864
377,0.62645,2202.258
378,0.628117,2145.402
379,0.629783,2145.402
380,0.63145,2090.357
381,0.633117,2037.145
382,0.634783,2037.145
383,0.63645,1985.259
384,0.638117,1934.893
385,0.639783,1886.04
386,0.64145,1886.04
387,0.643117,1838.535
388,0.644783,1792.49
389,0.64645,1747.929
390,0.6481170000000001,1747.929
391,0.6498,1704.462
392,0.65145,1662.604
393,0.6531169999999999,1622.073
394,0.654783,1622.073
395,0.65645,1582.652
396,0.658117,1544.774
397,0.659783,1507.521
398,0.66145,1507.521
399,0.663117,1471.244
400,0.664783,1435.965
401,0.666483,1435.965
402,0.6681,1401.417
403,0.669767,1368.24
404,0.6714329999999999,1336.44
405,0.6731,1336.44
406,0.674767,1305.558
407,0.676433,1275.562
408,0.6781,1246.422
409,0.679767,1246.422
410,0.681433,1217.753
411,0.6831,1189.895
412,0.684767,1162.991
413,0.686433,1162.991
414,0.6881,1136.646
415,0.689767,1111.194
416,0.691433,1111.194
417,0.6931,1086.377
418,0.694767,1062.386
419,0.696433,1039.214
420,0.6981000000000001,1039.214
421,0.6998,1016.52
422,0.701433,994.675
423,0.7030999999999999,973.53
424,0.704767,973.53
425,0.706433,952.803
426,0.7081,932.865
427,0.709767,913.516
428,0.711433,913.516
429,0.7131,894.256
430,0.714767,875.5700000000001
431,0.7165,857.5839999999999
432,0.7181,857.5839999999999
433,0.719767,839.926
434,0.721433,822.857
435,0.7231,822.857
436,0.7247670000000001,806.51
437,0.726417,790.35
438,0.728083,774.95
439,0.72975,774.95
440,0.731417,759.967
441,0.733217,744.998
442,0.73475,730.343
443,0.736417,730.343
444,0.738083,716.0599999999999
445,0.73975,702.2619999999999
446,0.741417,689.015
447,0.743083,689.015
448,0.74475,676.11
449,0.746417,663.385
450,0.7480830000000001,663.385
451,0.74975,651.121
452,0.751417,639.178
453,0.7530829999999999,627.846
454,0.75475,627.846
455,0.756433,616.848
456,0.758083,605.673
457,0.75975,594.869
458,0.761417,594.869
459,0.7630670000000001,584.3339999999999
460,0.764733,574.03
461,0.7664,564.091
462,0.7680670000000001,564.091
463,0.769733,554.658
464,0.7714,545.293
465,0.7730669999999999,545.293
466,0.774733,536.0839999999999
467,0.7764,527.36
468,0.778067,518.665
469,0.779733,518.665
470,0.7814,510.029
471,0.783067,501.61
472,0.784717,493.392
473,0.7863830000000001,493.392
474,0.78805,485.212
475,0.789717,477.739
476,0.7914,470.4
477,0.79305,470.4
478,0.794717,463.62
479,0.796383,456.907
480,0.79805,449.97
481,0.799717,449.97
482,0.801383,443.377
483,0.80305,436.775
484,0.804717,436.775
485,0.806383,430.532
486,0.80805,424.497
487,0.809717,418.492
488,0.811383,418.492
489,0.8130500000000001,412.464
490,0.814717,406.824
491,0.816383,401.057
492,0.8180500000000001,401.057
493,0.819717,395.387
494,0.821383,390.023
495,0.8230499999999999,384.666
496,0.824717,384.666
497,0.826383,379.555
498,0.82805,374.906
499,0.829717,374.906
500,0.831383,370.264
501,0.83305,365.563
502,0.8348,361.428
503,0.836383,361.428
504,0.83805,357.077
505,0.839717,352.524
506,0.841383,348.188
507,0.84305,348.188
508,0.8447,343.807
509,0.846367,339.597
510,0.848033,335.976
511,0.8497,335.976
512,0.85145,332.445
513,0.853033,328.586
514,0.8547,324.883
515,0.856367,324.883
516,0.858033,321.239
517,0.8597,317.849
518,0.861367,317.849
519,0.8630330000000001,314.638
520,0.8647,311.613
521,0.8663999999999999,308.357
522,0.86815,308.357
523,0.8697,304.893
524,0.871367,301.853
525,0.8730329999999999,298.634
526,0.8747,298.634
527,0.876367,295.751
528,0.878033,293.128
529,0.8797,290.245
530,0.881367,290.245
531,0.883033,287.741
532,0.8847,284.836
533,0.886367,284.836
534,0.888033,281.781
535,0.8897,279.211
536,0.891367,276.335
537,0.893033,276.335
538,0.8947000000000001,273.995
539,0.896367,271.723
540,0.898033,269.376
541,0.8997000000000001,269.376
542,0.901367,266.969
543,0.903033,264.749
544,0.9046999999999999,262.581
545,0.90635,262.581
546,0.908017,260.293
547,0.909683,258.386
548,0.91135,256.114
549,0.913017,256.114
550,0.914683,254.065
551,0.91635,252.225
552,0.918017,252.225
553,0.9197,250.392
554,0.92135,248.872
555,0.923017,247.039
556,0.924683,247.039
557,0.92635,245.363
558,0.928033,243.731
559,0.929683,241.764
560,0.93135,241.764
561,0.933017,240.013
562,0.934683,238.411
563,0.93635,236.504
564,0.938017,236.504
565,0.939683,234.783
566,0.941367,233.576
567,0.943017,233.576
568,0.9446830000000001,232.093
569,0.94635,230.975
570,0.948017,229.873
571,0.9496830000000001,229.873
572,0.95135,228.383
573,0.95305,227.071
574,0.9546829999999999,225.44
575,0.95635,225.44
576,0.958017,223.756
577,0.959683,222.027
578,0.96135,220.656
579,0.963017,220.656
580,0.9646670000000001,219.576
581,0.966333,218.734
582,0.968,218.734
583,0.9697170000000001,217.691
584,0.971333,216.246
585,0.973,215.143
586,0.974667,215.143
587,0.976333,213.943
588,0.978,212.952
589,0.979667,212.029
590,0.981333,212.029
591,0.983,210.68
592,0.984667,209.659
593,0.986467,208.408
594,0.988,208.408
595,0.989667,207.171
596,0.991333,206.187
597,0.993,205.055
598,0.994667,205.055
599,0.996333,204.161
600,0.998,203.49
601,0.999667,203.49
602,1.001333,202.596
603,1.003017,201.59
604,1.004667,200.607
605,1.006333,200.607
606,1.008,199.728
607,1.009667,199.191
608,1.011333,198.61
609,1.013,198.61
610,1.014667,198.081
611,1.016333,197.209
612,1.018,196.181
613,1.019667,196.181
614,1.021333,195.444
615,1.023,194.691
616,1.024667,194.691
617,1.026317,193.879
618,1.027983,193.015
619,1.02965,192.158
620,1.031317,192.158
621,1.032983,191.443
622,1.03465,190.742
623,1.036317,190.318
624,1.037983,190.318
625,1.03965,189.655
626,1.041317,188.991
627,1.042983,188.321
628,1.04465,188.321
629,1.046317,187.762
630,1.047983,187.054
631,1.04965,186.257
632,1.051317,186.257
633,1.052983,185.75
634,1.054633,185.058
635,1.0563,185.058
636,1.057967,184.484
637,1.059633,183.992
638,1.0613,183.128
639,1.062967,183.128
640,1.064633,182.331
641,1.0663,181.749
642,1.067967,181.392
643,1.069633,181.392
644,1.0714,181.161
645,1.072967,180.736
646,1.074633,180.505
647,1.076317,180.505
648,1.077967,180.133
649,1.079633,179.924
650,1.0813,179.924
651,1.082967,179.648
652,1.084617,178.918
653,1.086283,178.523
654,1.087983,178.523
655,1.089617,177.786
656,1.091283,177.667
657,1.09295,177.525
658,1.094617,177.525
659,1.096283,176.75
660,1.09795,176.199
661,1.099617,175.364
662,1.101283,175.364
663,1.10295,174.895
664,1.104733,174.724
665,1.106283,174.5
666,1.10795,174.5
667,1.109617,174.351
668,1.111283,173.844
669,1.11295,173.844
670,1.114617,173.412
671,1.1163,173.107
672,1.11795,172.444
673,1.119617,172.444
674,1.121283,172.436
675,1.12295,172.257
676,1.124617,171.952
677,1.126283,171.952
678,1.12795,171.475
679,1.129617,170.872
680,1.131283,170.477
681,1.13295,170.477
682,1.134617,170.171
683,1.136283,169.978
684,1.13795,169.978
685,1.139617,169.635
686,1.141283,169.121
687,1.142967,168.622
688,1.1446,168.622
689,1.146267,168.473
690,1.147933,168.07
691,1.1496,167.72
692,1.151267,167.72
693,1.152933,167.318
694,1.1546,166.848
695,1.156267,166.677
696,1.157933,166.677
697,1.1596,166.774
698,1.161267,166.699
699,1.162933,166.699
700,1.1646,166.513
701,1.166267,166.26
702,1.167933,165.686
703,1.1696,165.686
704,1.171267,165.559
705,1.172933,165.597
706,1.1746,165.299
707,1.176267,165.299
708,1.177933,165.09
709,1.1796,164.71
710,1.181267,164.323
711,1.182933,164.323
712,1.1846,164.062
713,1.186267,163.846
714,1.187933,163.95
715,1.18965,163.95
716,1.191267,163.682
717,1.192933,163.689
718,1.1946,163.689
719,1.196267,163.637
720,1.197933,163.093
721,1.1996,162.937
722,1.201267,162.937
723,1.202933,162.788
724,1.204583,162.683
725,1.206283,162.43
726,1.207917,162.43
727,1.209583,162.132
728,1.21125,161.789
729,1.212917,161.432
730,1.214583,161.432
731,1.21625,161.409
732,1.217917,161.104
733,1.219583,161.104
734,1.22125,160.821
735,1.222917,160.418
736,1.224583,160.001
737,1.22625,160.001
738,1.227917,160.165
739,1.229583,160.351
740,1.23125,160.389
741,1.232917,160.389
742,1.234583,160.187
743,1.23625,159.718
744,1.237917,159.092
745,1.239583,159.092
746,1.24125,159.1
747,1.242917,159.159
748,1.244583,159.077
749,1.24625,159.077
750,1.247917,159.025
751,1.249583,158.891
752,1.251267,158.891
753,1.252917,158.861
754,1.254583,159.055
755,1.25625,159.018
756,1.257917,159.018
757,1.259583,158.571
758,1.26125,158.377
759,1.262917,158.012
760,1.264583,158.012
761,1.266233,157.736
762,1.2679,157.729
763,1.269567,157.61
764,1.271233,157.61
765,1.2729,157.222
766,1.274567,157.252
767,1.276233,157.252
768,1.2779,157.043
769,1.279567,156.768
770,1.281233,156.626
771,1.2829,156.626
772,1.2846,156.268
773,1.286233,156.082
774,1.2879,155.844
775,1.289567,155.844
776,1.291233,156.149
777,1.2929,156.164
778,1.294567,156.298
779,1.296233,156.298
780,1.2979,156.358
781,1.299567,156.157
782,1.301233,156.157
783,1.3029,156.157
784,1.304567,155.829
785,1.306233,155.889
786,1.307967,155.889
787,1.309567,155.844
788,1.311233,155.389
789,1.3129,155.389
790,1.314567,155.389
791,1.316233,155.337
792,1.3179,155.091
793,1.319567,155.613
794,1.321233,155.613
795,1.3229,155.725
796,1.32455,155.292
797,1.326217,155.069
798,1.327883,155.069
799,1.32955,154.495
800,1.331217,153.974
801,1.332883,153.974
802,1.33455,153.877
803,1.336217,153.75
804,1.337883,153.936
805,1.33955,153.936
806,1.34135,153.966
807,1.342883,153.899
808,1.344567,153.564
809,1.3462,153.564
810,1.347867,152.998
811,1.349533,152.759
812,1.3512,152.61
813,1.352867,152.61
814,1.354533,152.856
815,1.3562,152.893
816,1.357867,152.893
817,1.359533,152.819
818,1.3612,152.603
819,1.362867,152.253
820,1.364533,152.253
821,1.3662,152.029
822,1.367867,151.992
823,1.369533,152.089
824,1.3712,152.089
825,1.372867,152.305
826,1.374533,152.469
827,1.3762,152.424
828,1.377867,152.424
829,1.379533,152.29
830,1.3812,152.282
831,1.382867,152.2
832,1.384517,152.2
833,1.386183,152.305
834,1.38785,152.081
835,1.389517,152.081
836,1.391183,151.657
837,1.39285,151.478
838,1.394517,151.314
839,1.396183,151.314
840,1.39785,151.604
841,1.399517,151.955
842,1.401183,151.932
843,1.40285,151.932
844,1.404517,151.597
845,1.406183,151.381
846,1.40785,151.135
847,1.409517,151.135
848,1.411183,151.359
849,1.412867,151.217
850,1.414517,151.217
851,1.416183,151.083
852,1.41785,150.859
853,1.419517,150.39
854,1.421183,150.39
855,1.42285,150.628
856,1.424517,150.658
857,1.42625,150.517
858,1.427867,150.517
859,1.429517,150.643
860,1.431183,150.613
861,1.43285,150.42
862,1.434517,150.42
863,1.436183,150.613
864,1.43785,150.375
865,1.439517,150.241
866,1.441183,150.241
867,1.442833,150.502
868,1.4445,150.375
869,1.446167,150.375
870,1.447833,150.591
871,1.4495,150.405
872,1.451167,149.973
873,1.452833,149.973
874,1.4545,149.868
875,1.456167,149.846
876,1.457833,150.099
877,1.459617,150.099
878,1.461167,150.174
879,1.462833,149.913
880,1.4645,149.727
881,1.466167,149.727
882,1.467833,149.481
883,1.4695,149.451
884,1.471167,149.451
885,1.472833,149.757
886,1.4745,149.891
887,1.476167,149.935
888,1.477833,149.935
889,1.4795,149.727
890,1.481167,149.779
891,1.482833,149.623
892,1.4845,149.623
893,1.486167,149.414
894,1.487833,149.645
895,1.4895,149.548
896,1.491167,149.548
897,1.492833,149.362
898,1.4945,149.22
899,1.496167,149.235
900,1.497833,149.235
901,1.4995,148.982
902,1.501167,148.87
903,1.50285,148.87
904,1.5045,148.833
905,1.50615,148.669
906,1.507817,148.632
907,1.509483,148.632
908,1.51115,148.855
909,1.512817,149.108
910,1.514483,148.93
911,1.51615,148.93
912,1.517817,148.87
913,1.5195,148.721
914,1.52115,148.378
915,1.522817,148.378
916,1.524483,148.341
917,1.52615,148.475
918,1.527817,148.475
919,1.529483,148.602
920,1.53115,149.049
921,1.532817,149.429
922,1.534483,149.429
923,1.53615,149.257
924,1.537817,148.788
925,1.539483,148.393
926,1.54115,148.393
927,1.542817,147.842
928,1.5445,147.969
929,1.54615,148.036
930,1.547817,148.036
931,1.549483,148.214
932,1.55115,148.386
933,1.552817,147.998
934,1.554483,147.998
935,1.55615,148.088
936,1.557817,147.976
937,1.559483,147.976
938,1.561133,147.872
939,1.5628,148.125
940,1.564467,147.946
941,1.566133,147.946
942,1.5678,147.857
943,1.569467,147.946
944,1.571133,147.678
945,1.572833,147.678
946,1.574467,147.931
947,1.576133,147.79
