"ID","sea_time","fid_signal"
1,0,1185.089
2,0.001667,1182.184
3,0.003333,1182.184
4,0.005,1182.929
5,0.006667,1183.301
6,0.008333,1182.407
7,0.009983000000000001,1182.407
8,0.01165,1181.886
9,0.013317,1180.619
10,0.014983,1180.768
11,0.01665,1180.768
12,0.018317,1178.905
13,0.019983,1178.309
14,0.02165,1178.309
15,0.023317,1178.607
16,0.024983,1178.16
17,0.026667,1179.352
18,0.028317,1179.352
19,0.029983,1180.917
20,0.031667,1182.258
21,0.033317,1184.866
22,0.034983,1184.866
23,0.03665,1186.281
24,0.038317,1187.846
25,0.039983,1189.038
26,0.04165,1189.038
27,0.043367,1188.07
28,0.044983,1186.207
29,0.04665,1185.611
30,0.048317,1185.611
31,0.049983,1185.909
32,0.05165,1185.015
33,0.053317,1185.015
34,0.054983,1185.76
35,0.05665,1188.442
36,0.058317,1187.324
37,0.06005,1187.324
38,0.06165,1189.485
39,0.063317,1191.422
40,0.064983,1190.305
41,0.06665,1190.305
42,0.068317,1190.305
43,0.069983,1190.007
44,0.07165000000000001,1190.156
45,0.0733,1190.156
46,0.07496700000000001,1188.815
47,0.07675,1187.548
48,0.07829999999999999,1187.548
49,0.079967,1188.666
50,0.08165,1187.474
51,0.0833,1187.697
52,0.084967,1187.697
53,0.086633,1187.548
54,0.0883,1184.27
55,0.08996700000000001,1187.623
56,0.09163300000000001,1187.623
57,0.09329999999999999,1187.548
58,0.094967,1189.485
59,0.096633,1191.72
60,0.0983,1191.72
61,0.099967,1189.932
62,0.101633,1189.262
63,0.1033,1187.399
64,0.104967,1187.399
65,0.10665,1186.952
66,0.1083,1183.897
67,0.109967,1183.897
68,0.111633,1184.717
69,0.1133,1185.611
70,0.114967,1184.94
71,0.116633,1184.94
72,0.1183,1187.101
73,0.119967,1188.591
74,0.121633,1188.144
75,0.1233,1188.144
76,0.124967,1185.983
77,0.126633,1184.121
78,0.1283,1181.513
79,0.12995,1181.513
80,0.131617,1180.917
81,0.133267,1182.258
82,0.134933,1182.258
83,0.1366,1182.258
84,0.138267,1183.152
85,0.139933,1184.642
86,0.1416,1184.642
87,0.143267,1184.791
88,0.144933,1184.046
89,0.1466,1183.674
90,0.148267,1183.674
91,0.149933,1182.258
92,0.1516,1181.662
93,0.153267,1184.344
94,0.154933,1184.344
95,0.1566,1185.015
96,0.158267,1185.536
97,0.15995,1185.983
98,0.161633,1185.983
99,0.163267,1184.046
100,0.164933,1183.078
101,0.1666,1183.078
102,0.168267,1182.109
103,0.169933,1182.854
104,0.1716,1183.823
105,0.173267,1183.823
106,0.174933,1183.897
107,0.176617,1183.823
108,0.178333,1182.854
109,0.179933,1182.854
110,0.1816,1181.811
111,0.183267,1183.003
112,0.184933,1183.078
113,0.1866,1183.078
114,0.188267,1183.674
115,0.189933,1183.227
116,0.1916,1183.227
117,0.19325,1180.396
118,0.19505,1178.384
119,0.196583,1178.607
120,0.19825,1178.607
121,0.199917,1178.905
122,0.201583,1180.768
123,0.20325,1183.301
124,0.204917,1183.301
125,0.206583,1181.439
126,0.20825,1182.258
127,0.209917,1183.674
128,0.211583,1183.674
129,0.21325,1184.121
130,0.214917,1183.599
131,0.216583,1183.599
132,0.21825,1183.45
133,0.219917,1181.662
134,0.221583,1181.439
135,0.22325,1181.439
136,0.224917,1182.78
137,0.226583,1179.65
138,0.22825,1180.023
139,0.229917,1180.023
140,0.231583,1179.501
141,0.23325,1177.192
142,0.234917,1179.129
143,0.236583,1179.129
144,0.23825,1180.545
145,0.239917,1180.768
146,0.241583,1183.152
147,0.243267,1183.152
148,0.244917,1186.281
149,0.246583,1187.324
150,0.24825,1187.324
151,0.249967,1187.026
152,0.251567,1189.783
153,0.253233,1188.517
154,0.2549,1188.517
155,0.256567,1186.356
156,0.258233,1187.474
157,0.2599,1184.121
158,0.261567,1184.121
159,0.263233,1183.227
160,0.2649,1181.066
161,0.266567,1179.65
162,0.268233,1179.65
163,0.2699,1180.396
164,0.271567,1180.47
165,0.273233,1180.47
166,0.2749,1183.301
167,0.276567,1186.579
168,0.278233,1185.76
169,0.27995,1185.76
170,0.281567,1184.493
171,0.283233,1182.109
172,0.2849,1182.854
173,0.286567,1182.854
174,0.288233,1185.685
175,0.2899,1188.219
176,0.291567,1190.677
177,0.293233,1190.677
178,0.2949,1192.018
179,0.296583,1194.626
180,0.298233,1197.979
181,0.2999,1197.979
182,0.301567,1202.3
183,0.303233,1205.727
184,0.3049,1205.727
185,0.306567,1212.582
186,0.308233,1222.789
187,0.3099,1234.189
188,0.311567,1234.189
189,0.313333,1247.376
190,0.314883,1261.309
191,0.31655,1278.296
192,0.318217,1278.296
193,0.319883,1301.169
194,0.32155,1326.725
195,0.323217,1355.112
196,0.324883,1355.112
197,0.32655,1386.031
198,0.328217,1421.422
199,0.329883,1421.422
200,0.33155,1461.059
201,0.333217,1502.931
202,0.334883,1549.944
203,0.33655,1549.944
204,0.338217,1603.29
205,0.339883,1663.268
206,0.34155,1734.421
207,0.343217,1734.421
208,0.344883,1814.812
209,0.34655,1903.176
210,0.348217,2001.822
211,0.349883,2001.822
212,0.35155,2115.294
213,0.353217,2249.777
214,0.354883,2407.73
215,0.35655,2407.73
216,0.358217,2603.829
217,0.359883,2840.236
218,0.36155,2840.236
219,0.363217,3127.828
220,0.364883,3481.209
221,0.36655,3909.32
222,0.368217,3909.32
223,0.369883,4427.061
224,0.37155,5050.302
225,0.3732,5790.219
226,0.374867,5790.219
227,0.376533,6656.125
228,0.3782,7658.377
229,0.379867,8800.626
230,0.381533,8800.626
231,0.3832,10087.192
232,0.384867,11526.719
233,0.386533,11526.719
234,0.388217,13120.771
235,0.3899,14866.367
236,0.391533,16763.211
237,0.3932,16763.211
238,0.394867,18795.877
239,0.396533,20945.816
240,0.398267,23184.568
241,0.399867,23184.568
242,0.401533,25472.418
243,0.4032,27762.131
244,0.404867,29999.539
245,0.406533,29999.539
246,0.4082,32128.617
247,0.409867,34092.293
248,0.411533,35846.309
249,0.4132,35846.309
250,0.414867,37354.008
251,0.416533,38584.547
252,0.4182,38584.547
253,0.419867,39519.742
254,0.421517,40149.242
255,0.423183,40467.383
256,0.42485,40467.383
257,0.426517,40484.594
258,0.428183,40216.668
259,0.42985,39680.602
260,0.431633,39680.602
261,0.433167,38910.508
262,0.434833,37932.098
263,0.4365,36777.406
264,0.438167,36777.406
265,0.439833,35483.836
266,0.4415,34080.742
267,0.443167,34080.742
268,0.444833,32601.357
269,0.4465,31076.744
270,0.448167,29532.238
271,0.449833,29532.238
272,0.4515,27988.553
273,0.453167,26468.709
274,0.454833,24984.777
275,0.4565,24984.777
276,0.458167,23552.328
277,0.459833,22184.998
278,0.4615,20885.096
279,0.463183,20885.096
280,0.464833,19663.273
281,0.4665,18515.141
282,0.468167,18515.141
283,0.469833,17436.967
284,0.4715,16431.139
285,0.473167,15494.6
286,0.474833,15494.6
287,0.4765,14622.286
288,0.478167,13810.321
289,0.479833,13058.26
290,0.481517,13058.26
291,0.483167,12353.51
292,0.484833,11700.541
293,0.4865,11093.84
294,0.488167,11093.84
295,0.489833,10523.945
296,0.4915,9994.879000000001
297,0.49315,9500.309999999999
298,0.494817,9500.309999999999
299,0.496483,9040.162
300,0.49815,8615.777
301,0.499817,8615.777
302,0.501483,8217.097
303,0.50315,7841.811
304,0.504817,7489.249
305,0.506483,7489.249
306,0.50815,7157.773
307,0.509817,6851.703
308,0.511483,6564.26
309,0.51315,6564.26
310,0.514817,6295.517
311,0.51655,6040.633
312,0.51815,5800.575
313,0.519817,5800.575
314,0.521483,5573.481
315,0.52315,5359.649
316,0.524817,5359.649
317,0.526483,5158.633
318,0.52815,4967.973
319,0.529817,4790.202
320,0.531483,4790.202
321,0.53315,4621.521
322,0.534817,4461.706
323,0.536483,4309.863
324,0.53815,4309.863
325,0.539817,4164.8
326,0.541483,4031.435
327,0.54315,3900.9
328,0.544817,3900.9
329,0.5464830000000001,3778.86
330,0.54815,3663.6
331,0.549883,3549.159
332,0.5514829999999999,3549.159
333,0.553133,3444.552
334,0.5548,3343.969
335,0.556467,3343.969
336,0.558133,3253.221
337,0.5598,3165.603
338,0.561467,3081.784
339,0.56315,3081.784
340,0.5648,3002.063
341,0.5664670000000001,2919.584
342,0.568133,2844.632
343,0.5698,2844.632
344,0.5714669999999999,2773.628
345,0.57315,2704.337
346,0.5748,2640.933
347,0.576467,2640.933
348,0.578133,2580.732
349,0.5798,2524.331
350,0.581467,2524.331
351,0.583133,2469.495
352,0.5848,2417.49
353,0.586467,2365.932
354,0.588133,2365.932
355,0.5898,2317.205
356,0.591467,2270.043
357,0.593133,2225.414
358,0.5948,2225.414
359,0.596467,2186.075
360,0.598133,2146.512
361,0.5998,2108.663
362,0.601467,2108.663
363,0.603133,2072.603
364,0.6048,2034.977
365,0.606483,1999.289
366,0.608133,1999.289
367,0.6098,1968.518
368,0.61145,1938.045
369,0.613117,1938.045
370,0.614783,1910.552
371,0.6164500000000001,1883.656
372,0.618117,1857.951
373,0.619783,1857.951
374,0.6214499999999999,1834.407
375,0.623117,1809.597
376,0.624783,1787.841
377,0.62645,1787.841
378,0.628117,1765.639
379,0.629783,1745.448
380,0.63145,1726.747
381,0.633117,1726.747
382,0.634817,1706.556
383,0.63645,1689.568
384,0.638117,1689.568
385,0.639783,1668.856
386,0.64145,1649.484
387,0.643117,1632.124
388,0.644783,1632.124
389,0.64645,1615.435
390,0.6481170000000001,1599.491
391,0.649783,1582.056
392,0.65145,1582.056
393,0.6531169999999999,1569.39
394,0.654783,1554.117
395,0.65645,1542.196
396,0.658117,1542.196
397,0.659783,1533.553
398,0.66145,1518.875
399,0.663117,1518.875
400,0.664783,1510.382
401,0.66645,1501.068
402,0.6682169999999999,1489.967
403,0.669783,1489.967
404,0.67145,1481.921
405,0.6731,1473.129
406,0.674767,1463.443
407,0.676433,1463.443
408,0.6781,1454.8
409,0.679767,1447.126
410,0.681433,1438.037
411,0.6831,1438.037
412,0.684783,1431.927
413,0.686433,1426.712
414,0.6881,1419.783
415,0.689767,1419.783
416,0.691433,1409.575
417,0.6931,1402.423
418,0.694767,1402.423
419,0.696433,1392.737
420,0.6981000000000001,1383.275
421,0.699767,1379.401
422,0.701433,1379.401
423,0.7030999999999999,1376.197
424,0.704767,1374.26
425,0.706433,1372.695
426,0.7081,1372.695
427,0.709767,1369.342
428,0.711433,1359.209
429,0.713083,1352.876
430,0.71475,1352.876
431,0.716417,1346.99
432,0.718083,1342.371
433,0.71975,1342.371
434,0.721417,1337.975
435,0.723083,1335.07
436,0.72475,1332.089
437,0.726417,1332.089
438,0.7281,1329.929
439,0.72975,1330.748
440,0.731417,1329.556
441,0.733067,1329.556
442,0.734733,1325.905
443,0.7364000000000001,1318.902
444,0.738083,1311.973
445,0.739733,1311.973
446,0.7413999999999999,1304.299
447,0.743067,1300.424
448,0.744733,1299.53
449,0.7464,1299.53
450,0.748067,1300.052
451,0.749767,1299.232
452,0.7514,1299.232
453,0.7530829999999999,1296.327
454,0.754733,1291.26
455,0.7564,1285.523
456,0.758067,1285.523
457,0.759733,1281.5
458,0.7614,1279.861
459,0.7630670000000001,1280.904
460,0.764733,1280.904
461,0.7664,1280.829
462,0.7680670000000001,1279.786
463,0.769783,1277.551
464,0.7714,1277.551
465,0.7730669999999999,1273.081
466,0.774733,1270.1
467,0.7764,1270.1
468,0.778067,1269.281
469,0.779733,1267.716
470,0.7814,1265.481
471,0.783067,1265.481
472,0.784733,1263.022
473,0.7865,1261.532
474,0.788067,1261.532
475,0.789733,1261.532
476,0.7913829999999999,1260.34
477,0.79305,1260.489
478,0.794717,1258.254
479,0.796383,1258.254
480,0.79805,1257.509
481,0.799717,1256.168
482,0.801383,1256.168
483,0.803117,1254.454
484,0.804717,1253.784
485,0.806383,1247.898
486,0.80805,1247.898
487,0.809717,1246.184
488,0.811383,1243.576
489,0.8130500000000001,1239.628
490,0.814717,1239.628
491,0.816383,1239.33
492,0.8180500000000001,1239.851
493,0.819717,1240.298
494,0.8214,1240.298
495,0.8230499999999999,1240.894
496,0.824717,1243.949
497,0.826383,1246.408
498,0.82805,1246.408
499,0.829717,1245.588
500,0.831383,1244.47
501,0.83305,1244.47
502,0.834717,1242.31
503,0.836383,1237.69
504,0.83805,1236.945
505,0.839717,1236.945
506,0.841383,1234.934
507,0.84305,1234.412
508,0.8447170000000001,1234.636
509,0.846383,1234.636
510,0.84805,1235.828
511,0.8497169999999999,1234.71
512,0.851383,1234.934
513,0.853033,1234.934
514,0.8547,1234.338
515,0.856367,1230.314
516,0.858033,1230.314
517,0.8597,1231.73
518,0.861367,1228.079
519,0.8630330000000001,1225.397
520,0.8647,1225.397
521,0.866367,1225.695
522,0.8680330000000001,1225.695
523,0.8697,1228.601
524,0.871417,1228.601
525,0.8730329999999999,1227.483
526,0.8747,1227.781
527,0.876367,1226.366
528,0.878033,1226.366
529,0.8797,1222.864
530,0.881367,1222.044
531,0.883033,1221.374
532,0.8847,1221.374
533,0.886367,1223.609
534,0.888083,1224.875
535,0.8897,1224.875
536,0.891367,1226.142
537,0.89305,1226.44
538,0.8947000000000001,1224.428
539,0.896367,1224.428
540,0.898033,1224.652
541,0.8997000000000001,1226.291
542,0.901367,1224.726
543,0.903033,1224.726
544,0.904783,1222.864
545,0.906367,1219.958
546,0.908033,1217.574
547,0.9097,1217.574
548,0.911367,1217.201
549,0.913017,1217.35
550,0.914683,1217.35
551,0.91635,1218.244
552,0.918017,1218.244
553,0.919683,1217.425
554,0.921467,1217.425
555,0.923017,1218.542
556,0.924683,1217.797
557,0.92635,1218.99
558,0.928017,1218.99
559,0.929683,1218.617
560,0.93135,1214.892
561,0.933017,1212.507
562,0.934683,1212.507
563,0.93635,1210.868
564,0.938017,1210.347
565,0.939683,1211.166
566,0.94135,1211.166
567,0.943017,1212.806
568,0.9446830000000001,1211.688
569,0.94635,1211.688
570,0.948017,1213.104
571,0.9496830000000001,1212.806
572,0.95135,1212.656
573,0.953017,1212.656
574,0.9546829999999999,1213.253
575,0.95635,1211.315
576,0.958017,1211.837
577,0.959683,1211.837
578,0.96135,1210.049
579,0.963017,1207.516
580,0.964683,1206.473
581,0.966367,1206.473
582,0.968017,1207.814
583,0.969683,1211.315
584,0.971333,1211.315
585,0.973,1214.072
586,0.974667,1214.072
587,0.976333,1211.315
588,0.978,1211.315
589,0.979667,1206.771
590,0.981333,1205.876
591,0.983,1209.453
592,0.984667,1209.453
593,0.986333,1211.241
594,0.988,1211.762
595,0.989667,1209.08
596,0.991333,1209.08
597,0.993,1205.131
598,0.994667,1203.343
599,0.996333,1205.802
600,0.998,1205.802
601,0.999667,1206.1
602,1.001333,1205.727
603,1.003,1205.727
604,1.00465,1205.28
605,1.00635,1202.375
606,1.007983,1201.108
607,1.00965,1201.108
608,1.011317,1198.128
609,1.012983,1194.626
610,1.01465,1194.03
611,1.016317,1194.03
612,1.017983,1195.446
613,1.01965,1197.755
614,1.021317,1201.555
