"ID","sea_time","fid_signal"
1,0,1170.039
2,0.001667,1168.996
3,0.003333,1168.624
4,0.005,1169.518
5,0.006667,1169.518
6,0.008333,1169.145
7,0.009983000000000001,1167.357
8,0.01165,1166.537
9,0.013317,1166.537
10,0.014983,1163.557
11,0.01665,1164.153
12,0.018317,1164.228
13,0.019983,1164.228
14,0.02165,1165.047
15,0.023317,1166.761
16,0.024983,1166.761
17,0.02665,1166.165
18,0.028317,1168.326
19,0.029967,1168.177
20,0.031633,1168.177
21,0.033417,1168.922
22,0.034967,1170.412
23,0.036633,1173.243
24,0.0383,1173.243
25,0.039967,1174.584
26,0.041633,1172.2
27,0.0433,1170.114
28,0.044967,1170.114
29,0.046633,1165.569
30,0.0483,1167.506
31,0.049967,1170.71
32,0.051633,1170.71
33,0.0533,1173.466
34,0.054967,1175.404
35,0.056633,1175.404
36,0.0583,1171.902
37,0.059967,1170.263
38,0.061633,1170.71
39,0.0633,1170.71
40,0.064967,1171.604
41,0.066633,1175.702
42,0.0683,1174.882
43,0.069967,1174.882
44,0.071633,1172.051
45,0.0733,1171.306
46,0.07496700000000001,1168.773
47,0.07663300000000001,1168.773
48,0.07829999999999999,1168.102
49,0.079967,1169.592
50,0.081633,1169.592
51,0.0833,1171.529
52,0.084967,1171.529
53,0.086633,1174.733
54,0.0883,1174.733
55,0.08995,1175.18
56,0.091617,1173.168
57,0.093283,1170.71
58,0.09495000000000001,1170.71
59,0.09661699999999999,1167.133
60,0.098283,1167.729
61,0.09995,1167.804
62,0.101617,1167.804
63,0.103283,1171.529
64,0.10495,1172.274
65,0.106617,1167.953
66,0.108283,1167.953
67,0.10995,1165.792
68,0.111617,1162.44
69,0.113283,1162.44
70,0.11495,1165.569
71,0.116617,1168.773
72,0.11835,1169.518
73,0.119967,1169.518
74,0.121617,1170.635
75,0.123283,1168.102
76,0.12495,1166.537
77,0.126617,1166.537
78,0.128283,1167.133
79,0.12995,1166.686
80,0.131617,1165.345
81,0.133283,1165.345
82,0.13495,1164.526
83,0.136617,1163.632
84,0.138283,1163.632
85,0.13995,1166.09
86,0.141617,1166.016
87,0.143283,1164.824
88,0.14495,1164.824
89,0.146617,1164.6
90,0.148283,1162.887
91,0.149933,1164.079
92,0.151667,1164.079
93,0.153267,1166.239
94,0.154933,1169.965
95,0.1566,1172.274
96,0.158267,1172.274
97,0.159933,1172.572
98,0.1616,1173.988
99,0.163283,1173.69
100,0.164933,1173.69
101,0.1666,1169.518
102,0.168267,1168.326
103,0.169933,1168.326
104,0.1716,1170.039
105,0.173267,1169.369
106,0.174933,1172.423
107,0.1766,1172.423
108,0.178267,1172.647
109,0.179933,1170.039
110,0.1816,1169.369
111,0.183267,1169.369
112,0.184933,1167.133
113,0.1866,1169.22
114,0.188267,1170.561
115,0.189933,1170.561
116,0.1916,1169.22
117,0.193267,1173.168
118,0.19495,1173.168
119,0.1966,1172.274
120,0.198267,1170.412
121,0.199933,1172.796
122,0.2016,1172.796
123,0.203267,1169.592
124,0.204933,1168.251
125,0.2066,1169.965
126,0.20825,1169.965
127,0.209917,1166.984
128,0.211583,1166.016
129,0.21325,1166.314
130,0.214917,1166.314
131,0.216583,1166.314
132,0.21825,1168.847
133,0.219917,1168.847
134,0.221583,1171.082
135,0.22325,1172.721
136,0.224917,1170.71
137,0.226583,1170.71
138,0.22825,1169.741
139,0.229917,1168.549
140,0.231583,1165.941
141,0.23325,1165.941
142,0.234917,1165.718
143,0.23665,1165.643
144,0.23825,1167.133
145,0.239917,1167.133
146,0.241583,1168.102
147,0.24325,1166.612
148,0.244917,1166.835
149,0.246583,1166.835
150,0.24825,1167.357
151,0.249917,1171.157
152,0.251583,1171.157
153,0.253267,1174.212
154,0.254917,1174.137
155,0.256583,1173.094
156,0.25825,1173.094
157,0.259917,1169.369
158,0.261583,1168.698
159,0.26325,1167.655
160,0.26495,1167.655
161,0.266583,1166.984
162,0.26825,1166.388
163,0.270017,1166.537
164,0.271567,1166.537
165,0.273233,1168.251
166,0.2749,1171.082
167,0.276567,1171.082
168,0.278233,1171.976
169,0.2799,1174.137
170,0.281567,1173.913
171,0.283233,1173.913
172,0.2849,1169.89
173,0.286567,1169.89
174,0.288233,1166.239
175,0.2899,1166.239
176,0.291567,1166.761
177,0.293233,1168.102
178,0.2949,1166.91
179,0.296567,1166.91
180,0.298233,1169.667
181,0.299883,1169.518
182,0.30155,1168.102
183,0.303217,1168.102
184,0.304883,1168.773
185,0.30655,1170.635
186,0.308217,1170.635
187,0.309883,1172.572
188,0.31155,1175.851
189,0.313217,1181.29
190,0.314883,1181.29
191,0.31655,1184.493
192,0.318217,1185.313
193,0.319883,1188.964
194,0.32155,1188.964
195,0.323217,1191.571
196,0.324883,1194.254
197,0.32655,1203.865
198,0.328217,1203.865
199,0.329867,1211.986
200,0.331533,1225.546
201,0.333233,1225.546
202,0.334917,1241.192
203,0.336533,1258.701
204,0.338217,1278.147
205,0.339867,1278.147
206,0.341533,1298.189
207,0.3432,1320.839
208,0.344867,1346.171
209,0.346533,1346.171
210,0.3482,1378.581
211,0.349867,1413.45
212,0.351533,1457.632
213,0.3532,1457.632
214,0.354917,1506.731
215,0.35655,1562.238
216,0.3582,1624.748
217,0.359867,1624.748
218,0.361533,1688.972
219,0.3632,1761.839
220,0.364867,1761.839
221,0.366533,1843.646
222,0.3682,1934.394
223,0.369867,2035.424
224,0.371533,2035.424
225,0.3732,2148.3
226,0.374867,2273.098
227,0.376533,2416.819
228,0.3782,2416.819
229,0.379867,2586.171
230,0.381533,2780.706
231,0.3832,3014.877
232,0.384867,3014.877
233,0.386533,3295.839
234,0.3883,3638.565
235,0.38985,3638.565
236,0.391517,4066.303
237,0.393183,4596.636
238,0.39485,5256.757
239,0.396517,5256.757
240,0.398183,6066.486
241,0.39985,7051.229
242,0.401517,8230.656000000001
243,0.403183,8230.656000000001
244,0.40485,9619.742
245,0.406517,11229.068
246,0.408233,13055.354
247,0.40985,13055.354
248,0.411517,15092.045
249,0.413183,17315.67
250,0.41485,17315.67
251,0.416517,19701.496
252,0.418183,22202.656
253,0.41985,24765.135
254,0.421517,24765.135
255,0.423183,27333.572
256,0.42485,29834.732
257,0.426517,32205.955
258,0.428183,32205.955
259,0.42985,34383.164
260,0.431517,36315.473
261,0.433183,37963.688
262,0.43485,37963.688
263,0.436517,39297.418
264,0.438183,40303.992
265,0.43985,40975.883
266,0.441517,40975.883
267,0.443183,41330.16
268,0.44485,41388.793
269,0.446517,41388.793
270,0.448183,41177.125
271,0.449833,40728.449
272,0.4515,40072.648
273,0.453167,40072.648
274,0.454833,39246.828
275,0.4565,38291.887
276,0.458167,37238.227
277,0.459833,37238.227
278,0.4615,36118.926
279,0.463167,34953.578
280,0.464833,33763.723
281,0.4665,33763.723
282,0.468167,32567.605
283,0.469833,31379.014
284,0.4715,31379.014
285,0.473183,30214.414
286,0.474833,29080.584
287,0.4765,27986.541
288,0.478167,27986.541
289,0.47985,26930.197
290,0.4815,25914.162
291,0.483167,24942.904
292,0.484833,24942.904
293,0.4865,24016.201
294,0.488167,23132.115
295,0.489917,22293.031
296,0.4915,22293.031
297,0.493167,21493.807
298,0.494833,20732.656
299,0.4965,20011.813
300,0.498167,20011.813
301,0.499833,19326.582
302,0.5014999999999999,18674.881
303,0.503167,18674.881
304,0.504833,18055.141
305,0.5066000000000001,17460.734
306,0.50815,16898.215
307,0.509817,16898.215
308,0.511483,16358.644
309,0.51315,15840.68
310,0.514817,15352.666
311,0.516483,15352.666
312,0.51815,14879.778
313,0.519817,14430.136
314,0.521483,14000.535
315,0.523267,14000.535
316,0.524817,13586.134
317,0.526483,13188.124
318,0.52815,13188.124
319,0.529817,12807.622
320,0.531483,12439.266
321,0.53315,12084.395
322,0.534817,12084.395
323,0.536483,11743.382
324,0.53815,11413.693
325,0.539817,11098.98
326,0.541483,11098.98
327,0.54315,10793.433
328,0.544817,10498.464
329,0.5464830000000001,10214.82
330,0.54815,10214.82
331,0.549817,9938.404
332,0.5514829999999999,9671.300999999999
333,0.55315,9415.522000000001
334,0.554817,9415.522000000001
335,0.5564829999999999,9166.971
336,0.55815,8925.125
337,0.559817,8925.125
338,0.561483,8691.549000000001
339,0.56315,8467.584999999999
340,0.564817,8249.357
341,0.5665,8249.357
342,0.56815,8040.815
343,0.5698,7839.799
344,0.5714669999999999,7640.794
345,0.573133,7640.794
346,0.5748,7448.196
347,0.576467,7262.081
348,0.578133,7083.043
349,0.5798,7083.043
350,0.581467,6911.68
351,0.583133,6743.521
352,0.5848,6743.521
353,0.586467,6578.714
354,0.588133,6418.526
355,0.5898,6263.778
356,0.59145,6263.778
357,0.593117,6116.107
358,0.594783,5973.727
359,0.59645,5836.934
360,0.598117,5836.934
361,0.599783,5702.6
362,0.60145,5573.556
363,0.603117,5448.833
364,0.604783,5448.833
365,0.60645,5324.632
366,0.608183,5204.827
367,0.609783,5204.827
368,0.61145,5087.107
369,0.613117,4975.2
370,0.614783,4866.347
371,0.6164500000000001,4866.347
372,0.618117,4760.772
373,0.619783,4660.264
374,0.6214499999999999,4558.638
375,0.623117,4558.638
376,0.624867,4465.654
377,0.62645,4373.193
378,0.628117,4282.892
379,0.629767,4282.892
380,0.631433,4197.955
381,0.6331,4111.901
382,0.634767,4033.372
383,0.636433,4033.372
384,0.6381,3956.333
385,0.639767,3879.145
386,0.641433,3879.145
387,0.6431,3806.129
388,0.644767,3732.145
389,0.646433,3661.588
390,0.6481,3661.588
391,0.649767,3594.905
392,0.651433,3527.254
393,0.6531,3464.222
394,0.654767,3464.222
395,0.656433,3402.308
396,0.6581,3342.405
397,0.659767,3286.6
398,0.661433,3286.6
399,0.6631,3227.89
400,0.664767,3173.798
401,0.6664330000000001,3173.798
402,0.6681,3119.26
403,0.669767,3065.542
404,0.6714329999999999,3015.697
405,0.6731,3015.697
406,0.674767,2964.884
407,0.676433,2920.031
408,0.6781,2876.371
409,0.679767,2876.371
410,0.681433,2832.86
411,0.6831,2790.466
412,0.684767,2744.347
413,0.68645,2744.347
414,0.688083,2699.792
415,0.68975,2658.516
416,0.6914169999999999,2616.346
417,0.693083,2616.346
418,0.69475,2577.826
419,0.696417,2541.691
420,0.698083,2541.691
421,0.69975,2505.183
422,0.701417,2470.166
423,0.703083,2438.128
424,0.70475,2438.128
425,0.706417,2404.898
426,0.708083,2374.649
427,0.70975,2344.996
428,0.711417,2344.996
429,0.713083,2314.523
430,0.71475,2288.744
431,0.716417,2263.486
432,0.718083,2263.486
433,0.71975,2241.507
434,0.721417,2219.379
435,0.723083,2219.379
436,0.72475,2190.322
437,0.726483,2161.264
438,0.728083,2134.144
439,0.72975,2134.144
440,0.731417,2108.44
441,0.733083,2086.312
442,0.73475,2064.109
443,0.736417,2064.109
444,0.738083,2042.055
445,0.73975,2017.841
446,0.741417,1995.34
447,0.743117,1995.34
448,0.74475,1975.149
449,0.746417,1954.362
450,0.7480830000000001,1939.163
451,0.749733,1939.163
452,0.7514,1922.101
453,0.753067,1905.635
454,0.754733,1905.635
455,0.7564,1889.691
456,0.758067,1870.543
457,0.759867,1856.461
458,0.7614,1856.461
459,0.7630670000000001,1838.654
460,0.764733,1820.698
461,0.7664,1806.915
462,0.7680670000000001,1806.915
463,0.769733,1788.959
464,0.7714,1775.25
465,0.7730669999999999,1763.105
466,0.774733,1763.105
467,0.7764,1749.396
468,0.778067,1737.55
469,0.779733,1737.55
470,0.7814,1725.48
471,0.783067,1710.132
472,0.784733,1697.466
473,0.7864,1697.466
474,0.788067,1684.055
475,0.789733,1669.377
476,0.7914,1661.181
477,0.793067,1661.181
478,0.79475,1649.857
479,0.7964,1641.81
480,0.798067,1631.975
481,0.799733,1631.975
482,0.8014,1620.874
483,0.803067,1611.412
484,0.804733,1611.412
485,0.8064,1600.161
486,0.80805,1591.37
487,0.809717,1579.151
488,0.811383,1579.151
489,0.8130500000000001,1567.677
490,0.814717,1556.352
491,0.816383,1550.987
492,0.818067,1550.987
493,0.819717,1544.505
494,0.821383,1539.662
495,0.8230499999999999,1534.373
496,0.824717,1534.373
497,0.826383,1525.953
498,0.82805,1518.279
499,0.829717,1510.084
500,0.831383,1510.084
501,0.83305,1502.41
502,0.834717,1494.885
503,0.836383,1494.885
504,0.83805,1489.073
505,0.839717,1482.516
506,0.841383,1477.003
507,0.84305,1477.003
508,0.8447170000000001,1471.49
509,0.846383,1463.741
510,0.84805,1453.012
511,0.8497169999999999,1453.012
512,0.851383,1445.04
513,0.85305,1436.472
514,0.8547169999999999,1431.48
515,0.856383,1431.48
516,0.85805,1430.214
517,0.859717,1427.084
518,0.861383,1427.084
519,0.86305,1423.806
520,0.864717,1422.018
521,0.866383,1415.312
522,0.86805,1415.312
523,0.8697,1412.258
524,0.871367,1408.085
525,0.8730329999999999,1402.944
526,0.8747,1402.944
527,0.876367,1400.113
528,0.87815,1392.141
529,0.8797,1386.702
530,0.881367,1386.702
531,0.8830170000000001,1378.879
532,0.884683,1373.664
533,0.88635,1369.938
534,0.8880169999999999,1369.938
535,0.889683,1365.319
536,0.89135,1365.095
537,0.8930169999999999,1365.095
538,0.894683,1365.021
539,0.89635,1364.648
540,0.898017,1362.786
541,0.899683,1362.786
542,0.90135,1357.272
543,0.903017,1353.174
544,0.904683,1348.853
545,0.90635,1348.853
546,0.908033,1344.457
547,0.909683,1342.818
548,0.91135,1339.391
549,0.913017,1339.391
550,0.914683,1335.591
551,0.91635,1333.505
552,0.918017,1333.505
553,0.919683,1329.854
554,0.92135,1327.097
555,0.923017,1325.086
556,0.924683,1325.086
557,0.92635,1321.807
558,0.928017,1320.69
559,0.929667,1316.294
560,0.931333,1316.294
561,0.9330000000000001,1314.059
562,0.934667,1314.208
563,0.936333,1309.514
564,0.9379999999999999,1309.514
565,0.939667,1306.236
566,0.941333,1303.256
567,0.9429999999999999,1298.115
568,0.944667,1298.115
569,0.946333,1297.444
570,0.948,1297.295
571,0.949667,1297.295
572,0.951333,1292.75
573,0.953,1290.962
574,0.954667,1284.927
575,0.956333,1284.927
576,0.958,1285.002
577,0.959667,1286.864
578,0.961333,1284.406
579,0.963017,1284.406
580,0.9646670000000001,1285.002
581,0.966333,1280.531
582,0.968,1276.806
583,0.969683,1276.806
584,0.971333,1272.41
585,0.973,1271.293
586,0.974667,1271.293
587,0.976333,1267.791
588,0.978,1267.493
589,0.9797169999999999,1267.865
590,0.981333,1267.865
591,0.983,1267.865
592,0.984667,1268.61
593,0.986333,1264.289
594,0.9879829999999999,1264.289
595,0.98965,1264.96
596,0.991317,1260.787
597,0.9929829999999999,1259.521
598,0.99465,1259.521
599,0.996433,1259.074
600,0.997983,1254.976
601,0.99965,1254.976
602,1.001317,1255.944
603,1.002983,1251.996
604,1.00465,1251.847
605,1.006317,1251.847
606,1.007983,1252.368
607,1.00965,1247.674
608,1.011317,1246.929
609,1.012983,1246.929
610,1.01465,1245.961
611,1.016317,1246.408
612,1.017983,1246.184
613,1.01965,1246.184
614,1.021317,1245.439
615,1.022983,1243.949
