"ID","sea_time","fid_signal"
1,0,142.194
2,0.001667,142.194
3,0.003317,142.492
4,0.004983,142.545
5,0.00665,142.545
6,0.008317,142.477
7,0.01005,141.934
8,0.01165,141.516
9,0.013317,141.516
10,0.014983,141.74
11,0.01665,141.539
12,0.018317,141.546
13,0.019983,141.546
14,0.02165,141.613
15,0.023317,141.27
16,0.024983,141.501
17,0.02665,141.501
18,0.028317,141.993
19,0.029983,142.381
20,0.03165,142.463
21,0.033317,142.463
22,0.034983,142.217
23,0.03665,141.881
24,0.038317,141.881
25,0.039983,141.487
26,0.04165,141.494
27,0.043417,141.554
28,0.044983,141.554
29,0.04665,141.583
30,0.048317,141.703
31,0.049983,141.583
32,0.05165,141.583
33,0.053317,141.621
34,0.054983,141.68
35,0.05665,141.874
36,0.058317,141.874
37,0.059983,141.986
38,0.061667,141.904
39,0.0633,141.904
40,0.064967,141.829
41,0.066633,141.628
42,0.0683,141.606
43,0.069967,141.606
44,0.071633,141.658
45,0.0733,141.434
46,0.07498299999999999,141.561
47,0.07663300000000001,141.561
48,0.07829999999999999,141.881
49,0.079967,141.77
50,0.081633,141.807
51,0.0833,141.807
52,0.084967,141.792
53,0.086633,141.799
54,0.0883,141.829
55,0.08996700000000001,141.829
56,0.09163300000000001,141.762
57,0.09329999999999999,141.487
58,0.094967,141.487
59,0.096633,141.107
60,0.0983,141.39
61,0.099967,141.695
62,0.101633,141.695
63,0.1033,142.038
64,0.104967,142.075
65,0.106633,141.68
66,0.1083,141.68
67,0.109967,141.464
68,0.111633,141.211
69,0.1133,141.241
70,0.114967,141.241
71,0.116633,141.546
72,0.1183,141.606
73,0.119967,141.606
74,0.121633,141.606
75,0.123283,141.628
76,0.12495,141.434
77,0.126617,141.434
78,0.128317,141.397
79,0.12995,141.323
80,0.131617,141.233
81,0.133283,141.233
82,0.13495,141.33
83,0.136617,141.3
84,0.138283,141.449
85,0.139983,141.449
86,0.14165,141.636
87,0.143283,141.852
88,0.145017,141.934
89,0.146617,141.934
90,0.148283,141.926
91,0.14995,142.06
92,0.151617,142.06
93,0.153283,141.822
94,0.15495,142.001
95,0.156617,142.179
96,0.158283,142.179
97,0.15995,142.09
98,0.161733,142.068
99,0.163283,142.097
100,0.16495,142.097
101,0.166617,141.926
102,0.168283,141.904
103,0.16995,142.083
104,0.171617,142.083
105,0.173283,141.852
106,0.17495,141.822
107,0.176617,141.822
108,0.178283,141.911
109,0.17995,142.075
110,0.181617,142.045
111,0.183267,142.045
112,0.184933,142.068
113,0.1866,142.202
114,0.188267,142.165
115,0.189933,142.165
116,0.1916,142.448
117,0.193267,142.485
118,0.194933,142.366
119,0.1966,142.366
120,0.198267,142.083
121,0.199933,141.628
122,0.2016,141.464
123,0.203267,141.464
124,0.204933,141.263
125,0.2066,141.196
126,0.208267,141.196
127,0.209933,141.531
128,0.211583,141.867
129,0.213267,142.03
130,0.214917,142.03
131,0.216617,142.358
132,0.21825,142.217
133,0.219917,141.777
134,0.221583,141.777
135,0.22325,141.606
136,0.224917,141.554
137,0.226583,141.606
138,0.22825,141.606
139,0.229917,141.725
140,0.231583,142.001
141,0.23325,142.001
142,0.234917,141.785
143,0.236583,141.695
144,0.23825,141.68
145,0.239917,141.68
146,0.241567,141.546
147,0.243233,141.427
148,0.2449,141.561
149,0.2466,141.561
150,0.248233,141.703
151,0.2499,141.717
152,0.251567,142.12
153,0.253233,142.12
154,0.2549,142.09
155,0.256567,142.09
156,0.258233,142.09
157,0.2599,142.142
158,0.261567,141.896
159,0.263333,141.948
160,0.2649,141.948
161,0.266567,142.142
162,0.268233,142.083
163,0.2699,142.194
164,0.271567,142.194
165,0.273233,142.194
166,0.2749,141.911
167,0.276567,141.896
168,0.278233,141.896
169,0.280017,141.874
170,0.281567,142.075
171,0.283233,142.023
172,0.2849,142.023
173,0.286567,141.926
174,0.288233,141.978
175,0.2899,141.978
176,0.291567,141.896
177,0.29325,142.157
178,0.294917,142.753
179,0.296567,142.753
180,0.298233,143.856
181,0.2999,145.324
182,0.30155,147.894
183,0.303217,147.894
184,0.304883,151.493
185,0.30655,156.648
186,0.308217,164.136
187,0.309883,164.136
188,0.31155,174.239
189,0.313217,187.248
190,0.314883,187.248
191,0.31655,203.229
192,0.318217,222.69
193,0.319883,246.018
194,0.32155,246.018
195,0.323217,273.943
196,0.324883,306.919
197,0.32655,345.945
198,0.328217,345.945
199,0.329883,391.416
200,0.33155,444.464
201,0.333217,506.595
202,0.334883,506.595
203,0.33655,580.087
204,0.338217,667.788
205,0.339883,773.75
206,0.34155,773.75
207,0.343217,902.37
208,0.344883,1058.333
209,0.34655,1058.333
210,0.348217,1245.998
211,0.349883,1468.033
212,0.35155,1725.003
213,0.353217,1725.003
214,0.354883,2013.452
215,0.35655,2326.831
216,0.35825,2655.178
217,0.3599,2655.178
218,0.36155,2986.304
219,0.3632,3307.246
220,0.364867,3605.44
221,0.366533,3605.44
222,0.3682,3869.966
223,0.369867,4092.567
224,0.371533,4092.567
225,0.3732,4267.625
226,0.374867,4392.721
227,0.376533,4468.128
228,0.3782,4468.128
229,0.379867,4496.626
230,0.381617,4482.791
231,0.3832,4431.583
232,0.384867,4431.583
233,0.386533,4349.232
234,0.3882,4241.303
235,0.389867,4113.488
236,0.391533,4113.488
237,0.3932,3971.636
238,0.394867,3819.89
239,0.39655,3662.348
240,0.398267,3662.348
241,0.399867,3501.929
242,0.401533,3341.496
243,0.4032,3341.496
244,0.404867,3183.462
245,0.406533,3029.138
246,0.4082,2879.836
247,0.409867,2879.836
248,0.411533,2736.516
249,0.4132,2598.971
250,0.414967,2467.96
251,0.416533,2467.96
252,0.4182,2344.02
253,0.419867,2226.159
254,0.421533,2115.123
255,0.423183,2115.123
256,0.42485,2010.964
257,0.426517,1912.877
258,0.428183,1912.877
259,0.42985,1820.996
260,0.431517,1734.726
261,0.433183,1653.522
262,0.43485,1653.522
263,0.436583,1577.593
264,0.438183,1506.53
265,0.43985,1440.041
266,0.441517,1440.041
267,0.443183,1377.769
268,0.44485,1319.133
269,0.446517,1264.162
270,0.448183,1264.162
271,0.44985,1212.753
272,0.451517,1164.429
273,0.453217,1118.951
274,0.45485,1118.951
275,0.456517,1076.274
276,0.458183,1036.011
277,0.45985,1036.011
278,0.461517,997.961
279,0.463183,962.4059999999999
280,0.46485,928.581
281,0.466517,928.581
282,0.468183,896.73
283,0.46985,866.711
284,0.471517,838.354
285,0.473183,838.354
286,0.47485,811.614
287,0.476517,786.2
288,0.478183,762.396
289,0.47985,762.396
290,0.481517,739.664
291,0.483167,718.3920000000001
292,0.484833,718.3920000000001
293,0.4865,698.104
294,0.488167,678.919
295,0.489833,660.554
296,0.4915,660.554
297,0.493167,643.127
298,0.494833,626.5940000000001
299,0.4965,610.769
300,0.498167,610.769
301,0.49985,595.726
302,0.501483,581.287
303,0.50315,567.242
304,0.504817,567.242
305,0.5065,553.936
306,0.50815,541.098
307,0.509817,541.098
308,0.511483,528.8869999999999
309,0.51315,517.502
310,0.514817,506.55
311,0.516517,506.55
312,0.51815,496.276
313,0.519817,486.374
314,0.521483,476.83
315,0.52315,476.83
316,0.524817,467.807
317,0.526483,459.09
318,0.52815,450.313
319,0.529817,450.313
320,0.531483,441.954
321,0.533233,433.594
322,0.534817,425.957
323,0.536483,425.957
324,0.53815,418.849
325,0.539817,411.809
326,0.5415,411.809
327,0.543183,405.215
328,0.5448,398.666
329,0.546467,392.489
330,0.548133,392.489
331,0.5498,386.521
332,0.551467,380.851
333,0.553133,375.099
334,0.5548,375.099
335,0.556467,369.81
336,0.558133,364.646
337,0.5598,359.2
338,0.561467,359.2
339,0.563133,353.932
340,0.5648,348.94
341,0.5664670000000001,348.94
342,0.568133,344.485
343,0.5698,340.536
344,0.571483,336.587
345,0.573133,336.587
346,0.5748,332.452
347,0.576467,328.451
348,0.578133,324.264
349,0.5798,324.264
350,0.581517,320.598
351,0.583133,316.843
352,0.5848,312.984
353,0.586467,312.984
354,0.588133,309.721
355,0.5898,306.346
356,0.591467,303.045
357,0.593133,303.045
358,0.5948,299.923
359,0.596467,296.6
360,0.598133,296.6
361,0.5998,293.568
362,0.60145,290.722
363,0.603117,287.928
364,0.604783,287.928
365,0.60645,285.35
366,0.608117,282.787
367,0.609783,280.388
368,0.61145,280.388
369,0.613117,278.234
370,0.614783,275.888
371,0.6164500000000001,273.757
372,0.618117,273.757
373,0.619783,271.723
374,0.6214499999999999,269.54
375,0.623117,269.54
376,0.624783,267.364
377,0.62645,265.114
378,0.628117,262.73
379,0.629783,262.73
380,0.63145,260.293
381,0.633117,258.468
382,0.634783,256.523
383,0.63645,256.523
384,0.638117,254.564
385,0.639783,252.806
386,0.64145,250.772
387,0.643117,250.772
388,0.644783,248.79
389,0.64645,247.218
390,0.6481170000000001,247.218
391,0.649783,245.728
392,0.65155,244.059
393,0.6531169999999999,242.397
394,0.654783,242.397
395,0.65645,240.833
396,0.658117,239.223
397,0.659817,237.852
398,0.661433,237.852
399,0.6631,236.824
400,0.664767,235.587
401,0.6664330000000001,234.328
402,0.6681,234.328
403,0.669767,232.719
404,0.6714329999999999,231.184
405,0.6731,229.59
406,0.674767,229.59
407,0.676433,228.241
408,0.6781,227.191
409,0.679767,227.191
410,0.681433,225.954
411,0.6831,224.911
412,0.684767,223.868
413,0.686433,223.868
414,0.6881,222.832
415,0.689767,221.692
416,0.691433,220.411
417,0.6931,220.411
418,0.694767,219.092
419,0.696433,217.78
420,0.6981000000000001,216.968
421,0.6998,216.968
422,0.701433,216.343
423,0.7030999999999999,215.665
424,0.704767,215.665
425,0.706433,214.703
426,0.7081,213.593
427,0.709767,212.267
428,0.711433,212.267
429,0.7131,211.246
430,0.714767,210.583
431,0.716433,209.682
432,0.7181,209.682
433,0.719767,209.033
434,0.721433,208.221
435,0.723117,207.514
436,0.7248,207.514
437,0.726417,206.947
438,0.728083,206.009
439,0.72975,204.884
440,0.731417,204.884
441,0.733083,203.885
442,0.73475,202.931
443,0.736467,202.931
444,0.738083,202.514
445,0.73975,202.179
446,0.741417,201.456
447,0.743083,201.456
448,0.74475,201.099
449,0.746417,200.406
450,0.7480830000000001,199.75
451,0.74975,199.75
452,0.751417,199.139
453,0.7530829999999999,198.081
454,0.75475,197.202
455,0.756417,197.202
456,0.758083,196.278
457,0.75975,195.622
458,0.761417,195.622
459,0.763083,194.944
460,0.76475,194.617
461,0.766417,194.542
462,0.768083,194.542
463,0.769883,194.05
464,0.771417,193.641
465,0.773083,193.045
466,0.77475,193.045
467,0.776417,192.136
468,0.778083,191.286
469,0.7797500000000001,190.616
470,0.781417,190.616
471,0.783067,189.669
472,0.784733,189.446
473,0.7864,189.178
474,0.788067,189.178
475,0.789733,188.85
476,0.7914,188.954
477,0.79305,188.954
478,0.794717,188.224
479,0.796383,188.09
480,0.79805,187.516
481,0.79975,187.516
482,0.801383,186.749
483,0.80305,186.332
484,0.804717,185.519
485,0.806383,185.519
486,0.80805,185.318
487,0.809717,185.05
488,0.811383,184.722
489,0.8130500000000001,184.722
490,0.814717,184.432
491,0.816383,183.94
492,0.8180500000000001,183.94
493,0.819717,183.471
494,0.821383,182.889
495,0.8230499999999999,182.584
496,0.824717,182.584
497,0.826383,182.033
498,0.82805,181.511
499,0.829717,181.116
500,0.831383,181.116
501,0.83305,180.528
502,0.834717,180.237
503,0.836383,179.745
504,0.83805,179.745
505,0.839717,179.395
506,0.841383,179.261
507,0.843033,179.261
508,0.8447,178.851
509,0.846367,178.888
510,0.848033,178.456
511,0.8497,178.456
512,0.851367,177.942
513,0.853033,177.659
514,0.85475,177.152
515,0.856367,177.152
516,0.858033,177.093
517,0.8597,176.772
518,0.861367,176.638
519,0.863067,176.638
520,0.8648,176.325
521,0.866367,175.99
522,0.8680330000000001,175.856
523,0.8697,175.856
524,0.871367,175.327
525,0.8730329999999999,174.917
526,0.8747,174.917
527,0.876367,174.627
528,0.878033,174.18
529,0.8797,174.001
530,0.881367,174.001
531,0.883033,173.68
532,0.8847,173.33
533,0.886367,173.055
534,0.88815,173.055
535,0.8897,172.965
536,0.891367,173.025
537,0.893033,172.876
538,0.8947000000000001,172.876
539,0.896367,172.794
540,0.898033,172.28
541,0.8997000000000001,172.28
542,0.901367,172.101
543,0.903017,172.101
544,0.904683,171.766
545,0.90635,171.766
546,0.908017,171.632
547,0.909683,171.348
548,0.91135,170.626
549,0.913017,170.626
550,0.914683,170.611
551,0.91635,170.469
552,0.918017,170.074
553,0.919683,170.074
554,0.92135,170.104
555,0.923017,169.605
556,0.924683,169.18
557,0.92635,169.18
558,0.928017,168.949
559,0.929683,168.785
560,0.93135,168.785
561,0.933017,168.763
562,0.934683,168.778
563,0.936383,168.696
564,0.938017,168.696
565,0.939717,168.48
566,0.94135,168.145
567,0.943017,167.765
568,0.9446830000000001,167.765
569,0.94635,167.549
570,0.948017,167.154
571,0.9496830000000001,166.833
572,0.95135,166.833
573,0.953017,166.632
574,0.9546829999999999,166.103
575,0.95635,166.103
576,0.958017,165.924
577,0.959683,165.917
578,0.96135,165.768
579,0.963,165.768
580,0.9646670000000001,165.798
581,0.966333,165.664
582,0.968,165.693
583,0.9696669999999999,165.693
584,0.971333,165.567
585,0.973067,165.425
586,0.974683,165.187
587,0.976333,165.187
588,0.978,164.777
589,0.979667,164.635
590,0.981333,164.434
591,0.983,164.434
592,0.984667,164.583
593,0.986333,164.539
594,0.988,164.539
595,0.989717,164.65
596,0.991333,164.784
597,0.993,164.442
598,0.994667,164.442
599,0.996333,164.405
600,0.998,163.92
601,0.999667,163.615
602,1.001333,163.615
603,1.003,163.361
604,1.004667,162.944
605,1.006433,162.609
606,1.008,162.609
607,1.009667,162.505
608,1.011333,162.624
609,1.013,162.624
610,1.014667,162.877
611,1.016333,163.198
612,1.018,163.235
613,1.0197,163.235
614,1.02135,163.041
615,1.022983,162.564
616,1.02465,162.177
617,1.026317,162.177
618,1.027983,161.514
619,1.02965,161.342
620,1.031317,161.186
621,1.032983,161.186
622,1.03465,160.933
623,1.036317,160.925
624,1.037983,160.925
625,1.03965,160.649
626,1.041317,160.784
627,1.042983,160.851
628,1.04465,160.851
629,1.046317,160.94
630,1.047983,160.798
631,1.04965,160.53
632,1.051317,160.53
633,1.052983,160.538
634,1.05465,160.322
635,1.056317,160.269
636,1.057983,160.269
637,1.05965,160.143
638,1.061317,159.934
639,1.062983,159.919
640,1.06465,159.919
641,1.066317,159.949
642,1.067983,159.957
643,1.06965,159.957
644,1.071317,159.994
645,1.072983,159.815
646,1.07465,159.368
647,1.076317,159.368
648,1.077983,158.824
649,1.07965,158.392
650,1.081317,158.176
651,1.082967,158.176
652,1.084617,158.206
653,1.086283,158.317
654,1.087967,158.533
655,1.089667,158.533
656,1.091333,158.392
657,1.09295,158.139
658,1.094617,158.139
659,1.096283,158.183
660,1.09795,157.923
661,1.099617,157.826
662,1.101283,157.826
663,1.10295,157.975
664,1.104617,157.915
665,1.106283,157.863
666,1.10805,157.863
667,1.109617,158.049
668,1.111283,157.945
669,1.11295,157.759
670,1.114617,157.759
671,1.116283,157.647
672,1.11795,157.349
673,1.119617,157.14
674,1.121283,157.14
675,1.12295,156.82
676,1.124733,156.529
677,1.126283,156.529
678,1.12795,156.336
679,1.129617,156.373
680,1.131283,156.485
681,1.13295,156.485
682,1.134617,156.425
683,1.136283,156.35
684,1.13795,156.283
685,1.139617,156.283
686,1.141383,156.268
687,1.142933,156.201
688,1.1446,156.44
689,1.146267,156.44
690,1.147933,156.358
691,1.149617,156.142
692,1.151267,156.142
693,1.152933,156.172
694,1.1546,155.97
695,1.156267,155.963
696,1.157933,155.963
697,1.1596,155.933
698,1.161283,155.985
699,1.162983,156.015
700,1.1646,156.015
701,1.166267,156.015
702,1.167933,155.859
703,1.1696,155.799
704,1.171267,155.799
705,1.172933,155.479
706,1.1746,155.449
707,1.176267,155.874
708,1.177933,155.874
709,1.179617,155.576
710,1.181267,155.449
711,1.182933,155.449
712,1.1846,155.21
713,1.186267,154.816
714,1.187933,154.763
715,1.1896,154.763
716,1.191267,154.592
717,1.192933,154.6
718,1.1946,154.234
719,1.196267,154.234
720,1.197933,154.346
721,1.1996,154.503
722,1.201267,154.369
723,1.202917,154.369
724,1.204583,154.614
725,1.20625,154.346
726,1.207917,154.346
727,1.2096,154.398
728,1.21125,154.294
729,1.212917,154.287
730,1.214583,154.287
731,1.21625,154.406
732,1.217917,154.465
733,1.219583,154.532
734,1.22125,154.532
735,1.222917,154.13
736,1.224583,153.974
737,1.2263,153.549
738,1.227917,153.549
739,1.229583,153.497
740,1.23125,153.683
741,1.232933,153.646
742,1.234583,153.646
743,1.23625,153.616
744,1.237917,153.251
745,1.239583,153.251
746,1.24125,152.998
747,1.243,152.834
748,1.244583,152.744
749,1.24625,152.744
750,1.247917,152.767
751,1.249583,152.975
752,1.25125,153.087
753,1.252917,153.087
754,1.254583,153.057
755,1.25625,153.013
756,1.257917,152.826
757,1.259683,152.826
758,1.26125,152.774
759,1.262917,152.729
760,1.264567,152.729
761,1.266233,152.826
762,1.2679,152.618
763,1.269567,152.655
764,1.27125,152.655
765,1.272933,153.013
766,1.274567,153.191
767,1.276233,153.571
768,1.2779,153.571
769,1.279567,153.37
770,1.281233,153.154
771,1.2829,152.841
772,1.284567,152.841
773,1.286233,152.647
774,1.2879,152.625
775,1.289567,152.625
776,1.291233,152.454
777,1.2929,152.26
778,1.294567,151.888
779,1.296233,151.888
780,1.2979,151.671
781,1.299567,151.448
782,1.301233,151.537
783,1.3029,151.537
784,1.304567,151.776
785,1.30625,151.694
786,1.3079,151.649
787,1.309567,151.649
788,1.311233,151.426
789,1.3129,151.508
790,1.314567,151.768
791,1.316233,151.768
792,1.3179,151.768
793,1.319567,151.932
794,1.321233,151.932
795,1.322883,151.783
796,1.32455,151.463
797,1.326217,151.582
798,1.327883,151.582
799,1.32955,151.701
800,1.331217,151.396
801,1.332883,151.634
802,1.33455,151.634
803,1.336217,151.642
804,1.337883,151.455
805,1.33955,151.813
806,1.341217,151.813
807,1.342883,151.671
808,1.344617,151.478
809,1.346217,151.478
810,1.347883,151.485
811,1.34955,151.388
812,1.35125,151.344
813,1.352883,151.344
814,1.35455,151.299
815,1.356217,150.986
816,1.357883,150.703
817,1.35955,150.703
818,1.361267,150.658
819,1.362883,150.636
820,1.36455,150.643
821,1.366217,150.643
822,1.367883,150.532
823,1.36955,150.457
824,1.371217,150.353
825,1.372883,150.353
826,1.37455,150.383
827,1.3762,150.234
828,1.377983,150.234
829,1.379533,150.293
830,1.3812,150.42
831,1.38285,150.494
832,1.384517,150.494
833,1.386217,150.472
834,1.38785,150.397
835,1.389517,150.323
836,1.391183,150.323
837,1.39285,150.137
838,1.394517,150.248
839,1.396183,150.315
840,1.39785,150.315
841,1.399517,150.174
842,1.401183,150.271
843,1.40285,150.271
844,1.404517,150.532
845,1.406183,150.383
846,1.40785,150.33
847,1.409517,150.33
848,1.411183,150.122
849,1.41285,149.921
850,1.414517,149.593
851,1.416183,149.593
852,1.41785,149.503
853,1.419517,149.667
854,1.421183,149.578
855,1.42285,149.578
856,1.424517,149.637
857,1.426183,149.414
858,1.42785,149.414
859,1.429517,149.176
860,1.431183,149.012
861,1.432883,149.183
862,1.434517,149.183
863,1.436183,149.451
864,1.43785,149.541
865,1.439517,149.697
866,1.441167,149.697
867,1.442833,149.652
868,1.4445,149.66
869,1.446167,149.645
870,1.447833,149.645
871,1.4495,149.66
872,1.451167,149.436
873,1.452833,149.28
874,1.454517,149.28
875,1.456167,149.451
876,1.457833,149.459
877,1.4595,149.459
878,1.461167,149.436
879,1.46285,149.608
880,1.4645,149.339
881,1.466167,149.339
882,1.467833,148.892
883,1.4695,148.922
884,1.471167,148.706
885,1.472833,148.706
886,1.4745,148.915
887,1.476167,149.176
888,1.477833,149.101
889,1.479517,149.101
890,1.481167,149.094
891,1.482833,148.81
892,1.4845,148.81
893,1.486167,148.825
894,1.487833,148.736
895,1.4895,148.803
896,1.491167,148.803
897,1.492833,148.721
898,1.4945,148.87
899,1.496183,149.101
900,1.497833,149.101
901,1.4995,149.369
902,1.501167,149.28
903,1.502817,149.138
904,1.504483,149.138
905,1.50615,149.027
906,1.507817,148.594
907,1.509483,148.661
908,1.51115,148.661
909,1.512817,148.498
910,1.514483,148.43
911,1.51615,148.43
912,1.517817,148.565
913,1.519483,148.579
914,1.52115,148.542
915,1.522817,148.542
916,1.524483,148.326
917,1.526167,148.43
918,1.527817,148.498
919,1.529483,148.498
920,1.531167,148.557
921,1.532817,148.654
922,1.534483,148.483
923,1.53615,148.483
924,1.537817,148.363
925,1.539483,148.311
926,1.54115,148.311
927,1.542817,148.527
928,1.544483,148.423
929,1.54615,148.401
930,1.547817,148.401
931,1.549483,148.445
932,1.55115,148.386
933,1.552817,148.334
934,1.554483,148.334
935,1.55615,148.289
936,1.557817,148.363
937,1.559483,148.244
938,1.56115,148.244
939,1.5628,148.259
940,1.564467,148.021
941,1.566133,147.73
942,1.5678,147.73
943,1.569467,147.805
944,1.571133,147.887
945,1.5728,147.887
946,1.574467,148.259
947,1.576133,148.43
948,1.5778,148.483
949,1.579467,148.483
950,1.58115,148.296
951,1.5828,148.326
952,1.584467,148.132
953,1.586133,148.132
954,1.5878,147.998
955,1.589467,148.05
956,1.591133,147.641
957,1.5928,147.641
958,1.594467,147.492
959,1.596133,147.156
960,1.597867,147.074
961,1.599467,147.074
962,1.60115,147.477
963,1.6028,147.589
