"ID","sea_time","fid_signal"
1,0,38.939
2,0.001667,38.902
3,0.003333,38.91
4,0.005,38.91
5,0.006767,38.905
6,0.008333,38.818
7,0.01,38.615
8,0.011667,38.615
9,0.013333,38.39
10,0.015,38.253
11,0.016667,38.28
12,0.018333,38.28
13,0.02,38.458
14,0.021667,38.663
15,0.023333,38.745
16,0.025,38.745
17,0.026667,38.775
18,0.028333,38.762
19,0.03,38.762
20,0.031717,38.712
21,0.033333,38.732
22,0.035,38.73
23,0.036667,38.73
24,0.038333,38.712
25,0.04,38.733
26,0.041667,38.728
27,0.043333,38.728
28,0.045,38.734
29,0.046667,38.741
30,0.048333,38.73
31,0.05,38.73
32,0.051667,38.743
33,0.053317,38.742
34,0.054983,38.742
35,0.05665,38.756
36,0.058317,38.754
37,0.059983,38.717
38,0.06165,38.717
39,0.063333,38.727
40,0.06501700000000001,38.753
41,0.06665,38.795
42,0.068317,38.795
43,0.069983,38.835
44,0.07165000000000001,38.832
45,0.07331699999999999,38.844
46,0.07498299999999999,38.844
47,0.07665,38.818
48,0.078317,38.792
49,0.079983,38.781
50,0.08165,38.781
51,0.083317,38.743
52,0.084983,38.751
53,0.08665,38.751
54,0.08831700000000001,38.762
55,0.08998299999999999,38.762
56,0.09171700000000001,38.765
57,0.093317,38.765
58,0.094983,38.752
59,0.09665,38.745
60,0.098317,38.788
61,0.099983,38.788
62,0.10165,38.817
63,0.103317,38.823
64,0.104983,38.815
65,0.10665,38.815
66,0.108383,38.79
67,0.109983,38.778
68,0.11165,38.778
69,0.1133,38.778
70,0.114967,38.794
71,0.11665,38.78
72,0.11835,38.78
73,0.119967,38.783
74,0.121633,38.783
75,0.1233,38.785
76,0.12505,38.785
77,0.126633,38.823
78,0.1283,38.823
79,0.129967,38.826
80,0.131633,38.826
81,0.1333,38.864
82,0.134967,38.841
83,0.136633,38.84
84,0.138317,38.84
85,0.14,38.872
86,0.141633,38.838
87,0.1433,38.838
88,0.144967,38.842
89,0.146633,38.869
90,0.1483,38.833
91,0.149967,38.833
92,0.151633,38.853
93,0.1533,38.87
94,0.154967,38.845
95,0.156633,38.845
96,0.1583,38.878
97,0.159967,38.87
98,0.161633,38.875
99,0.1633,38.875
100,0.16495,38.908
101,0.166617,38.914
102,0.168283,38.914
103,0.16995,38.944
104,0.1716,38.925
105,0.173267,38.894
106,0.174933,38.894
107,0.1766,38.865
108,0.178267,38.841
109,0.179933,38.842
110,0.1816,38.842
111,0.183267,38.836
112,0.184933,38.825
113,0.1866,38.808
114,0.188267,38.808
115,0.189933,38.808
116,0.1916,38.832
117,0.193283,38.873
118,0.194933,38.873
119,0.1966,38.882
120,0.198267,38.88
121,0.199933,38.88
122,0.2016,38.856
123,0.203267,38.834
124,0.204933,38.823
125,0.2066,38.823
126,0.208267,38.821
127,0.209983,38.819
128,0.2116,38.793
129,0.213267,38.793
130,0.214933,38.803
131,0.2166,38.829
132,0.218267,38.838
133,0.219933,38.838
134,0.2216,38.857
135,0.223267,38.879
136,0.224933,38.879
137,0.22665,38.853
138,0.228267,38.86
139,0.229933,38.858
140,0.2316,38.858
141,0.23325,38.861
142,0.234917,38.893
143,0.236583,38.9
144,0.23825,38.9
145,0.239917,38.937
146,0.241583,38.916
147,0.243367,38.921
148,0.244917,38.921
149,0.246583,38.94
150,0.24825,38.936
151,0.249917,38.936
152,0.251583,38.958
153,0.25325,38.955
154,0.254917,38.943
155,0.256583,38.943
156,0.25825,38.94
157,0.259917,38.934
158,0.261583,38.938
159,0.26325,38.938
160,0.264917,38.945
161,0.266583,38.937
162,0.26825,38.92
163,0.269917,38.92
164,0.271583,38.909
165,0.27325,38.875
166,0.274917,38.868
167,0.276583,38.868
168,0.27825,38.866
169,0.279917,38.833
170,0.281583,38.833
171,0.283283,38.865
172,0.28495,38.885
173,0.286583,38.919
174,0.28825,38.919
175,0.289917,38.969
176,0.291583,38.976
177,0.293233,38.961
178,0.2949,38.961
179,0.296567,38.938
180,0.298233,38.946
181,0.2999,38.95
182,0.301567,38.95
183,0.303233,38.987
184,0.3049,39.028
185,0.306567,39.028
186,0.308233,39.055
187,0.3099,39.112
188,0.311567,39.185
189,0.313233,39.185
190,0.3149,39.291
191,0.316567,39.414
192,0.318233,39.555
193,0.3199,39.555
194,0.321567,39.738
195,0.323233,39.998
196,0.3249,40.349
197,0.326567,40.349
198,0.328233,40.759
199,0.3299,41.24
200,0.331567,41.734
201,0.333233,41.734
202,0.3349,42.269
203,0.336567,42.846
204,0.338233,42.846
205,0.3399,43.415
206,0.341567,43.957
207,0.343233,44.414
208,0.3449,44.414
209,0.346567,44.806
210,0.348233,45.098
211,0.3499,45.325
212,0.351567,45.325
213,0.353217,45.434
214,0.354883,45.43
215,0.35655,45.317
216,0.358217,45.317
217,0.359883,45.094
218,0.361617,44.804
219,0.363217,44.804
220,0.364883,44.449
221,0.36655,44.073
222,0.368217,43.676
223,0.369883,43.676
224,0.37155,43.282
225,0.373217,42.93
226,0.374883,42.59
227,0.37655,42.59
228,0.378217,42.276
229,0.379883,41.985
230,0.381567,41.706
231,0.383217,41.706
232,0.384883,41.453
233,0.38655,41.205
234,0.388217,41.011
235,0.389883,41.011
236,0.39155,40.802
237,0.393217,40.621
238,0.394883,40.621
239,0.39655,40.466
240,0.398217,40.302
241,0.399883,40.187
242,0.40155,40.187
243,0.403217,40.112
244,0.404883,40.033
245,0.40655,39.976
246,0.408217,39.976
247,0.409883,39.942
248,0.41155,39.9
249,0.4132,39.885
250,0.414867,39.885
251,0.416533,39.861
252,0.4182,39.835
253,0.419867,39.835
254,0.421533,39.788
255,0.4232,39.733
256,0.424867,39.726
257,0.426533,39.726
258,0.42825,39.713
259,0.429867,39.721
260,0.431533,39.741
261,0.4332,39.741
262,0.4349,39.741
263,0.436533,39.747
264,0.4382,39.745
265,0.439867,39.745
266,0.441533,39.786
267,0.4432,39.828
268,0.444867,39.828
269,0.4466,39.855
270,0.4482,39.851
271,0.449867,39.829
272,0.451533,39.829
273,0.4532,39.785
274,0.454867,39.768
275,0.456517,39.807
276,0.458183,39.807
277,0.45985,39.81
278,0.461517,39.828
279,0.463183,39.821
280,0.46485,39.821
281,0.466517,39.8
282,0.468183,39.816
283,0.46985,39.833
284,0.471517,39.833
285,0.473167,39.835
286,0.474833,39.83
287,0.4765,39.83
288,0.478167,39.813
289,0.47995,39.795
290,0.4815,39.802
291,0.483167,39.802
292,0.484833,39.813
293,0.4865,39.816
294,0.488167,39.845
295,0.489833,39.845
296,0.4915,39.867
297,0.493167,39.892
298,0.494833,39.893
299,0.4965,39.893
300,0.498167,39.893
301,0.499833,39.896
302,0.5014999999999999,39.896
303,0.503167,39.881
304,0.504867,39.897
305,0.5065,39.876
306,0.508167,39.876
307,0.509833,39.864
308,0.5115,39.852
309,0.513167,39.849
310,0.514833,39.849
311,0.5165,39.854
312,0.518167,39.84
313,0.519833,39.822
314,0.521533,39.822
315,0.523167,39.796
316,0.524833,39.781
317,0.5265,39.776
318,0.5281670000000001,39.776
319,0.529833,39.785
320,0.5315,39.78
321,0.53315,39.78
322,0.534817,39.78
323,0.536483,39.794
324,0.53815,39.794
325,0.539817,39.794
326,0.541483,39.82
327,0.54315,39.811
328,0.544817,39.817
329,0.5464830000000001,39.817
330,0.54815,39.816
331,0.549817,39.794
332,0.5514829999999999,39.789
333,0.55315,39.789
334,0.554817,39.772
335,0.5565,39.761
336,0.55815,39.761
337,0.559817,39.757
338,0.561483,39.784
339,0.56315,39.773
340,0.564867,39.773
341,0.566483,39.783
342,0.56815,39.796
343,0.569817,39.79
344,0.571483,39.79
345,0.57315,39.805
346,0.574817,39.826
347,0.5765,39.835
348,0.5781500000000001,39.835
349,0.579817,39.843
350,0.581483,39.835
351,0.5831499999999999,39.816
352,0.584817,39.816
353,0.586483,39.798
354,0.58815,39.757
355,0.589817,39.757
356,0.591483,39.746
357,0.593133,39.737
358,0.5948,39.753
359,0.596467,39.753
360,0.5982499999999999,39.759
361,0.5998,39.782
362,0.601467,39.76
363,0.603133,39.76
364,0.6048,39.706
365,0.606467,39.704
366,0.608133,39.684
367,0.6098,39.684
368,0.611467,39.715
369,0.613133,39.755
370,0.614833,39.755
371,0.616467,39.761
372,0.618133,39.747
373,0.6198,39.756
374,0.621467,39.756
375,0.623133,39.745
376,0.6248,39.742
377,0.626467,39.748
378,0.6281330000000001,39.748
379,0.6298,39.721
380,0.631467,39.685
381,0.6331329999999999,39.656
382,0.6348,39.656
383,0.636467,39.631
384,0.638133,39.641
385,0.6398,39.641
386,0.641467,39.671
387,0.643133,39.7
388,0.6448,39.724
389,0.646467,39.724
390,0.648133,39.712
391,0.6498,39.704
392,0.6515,39.7
393,0.6531169999999999,39.7
394,0.654783,39.703
395,0.65645,39.703
396,0.658117,39.678
397,0.659783,39.678
398,0.66145,39.672
399,0.663117,39.67
400,0.664783,39.636
401,0.66645,39.636
402,0.668117,39.644
403,0.669783,39.618
404,0.67145,39.618
405,0.673117,39.59
406,0.674783,39.62
407,0.67645,39.645
408,0.678117,39.645
409,0.679783,39.677
410,0.68145,39.697
411,0.683183,39.704
412,0.684783,39.704
413,0.68645,39.684
414,0.688117,39.665
415,0.6898,39.639
416,0.69145,39.639
417,0.693117,39.604
418,0.694783,39.604
419,0.69645,39.604
420,0.698117,39.598
421,0.6999,39.583
422,0.70145,39.581
423,0.703117,39.581
424,0.704783,39.604
425,0.70645,39.626
426,0.708117,39.655
427,0.7097830000000001,39.655
428,0.711433,39.661
429,0.7131,39.617
430,0.714767,39.584
431,0.716567,39.584
432,0.7181,39.569
433,0.719767,39.56
434,0.721433,39.605
435,0.7231,39.605
436,0.7247670000000001,39.63
437,0.726433,39.618
438,0.728133,39.618
439,0.7297670000000001,39.642
440,0.731433,39.639
441,0.7331,39.61
442,0.7347669999999999,39.61
443,0.736433,39.621
444,0.7381,39.625
445,0.739767,39.577
446,0.741433,39.577
447,0.7431,39.571
448,0.744767,39.586
449,0.746417,39.566
450,0.7480830000000001,39.566
451,0.74975,39.555
452,0.751417,39.538
453,0.7530829999999999,39.538
454,0.75475,39.494
455,0.756417,39.472
456,0.758083,39.487
457,0.75975,39.487
458,0.761417,39.516
459,0.763083,39.529
460,0.76475,39.534
461,0.766417,39.534
462,0.768083,39.528
463,0.76975,39.528
464,0.7714,39.518
465,0.7730669999999999,39.518
466,0.774767,39.5
467,0.77645,39.491
468,0.778067,39.491
469,0.779733,39.499
470,0.7814,39.538
471,0.783067,39.556
472,0.784733,39.556
473,0.7864,39.59
474,0.788067,39.559
475,0.789733,39.53
476,0.7914,39.53
477,0.793133,39.542
478,0.794733,39.5
479,0.7964,39.484
480,0.798067,39.484
481,0.799733,39.453
482,0.801417,39.449
483,0.803067,39.492
484,0.804733,39.492
485,0.8064,39.504
486,0.808067,39.544
487,0.809733,39.544
488,0.8114,39.545
489,0.813067,39.52
490,0.814733,39.534
491,0.8164,39.534
492,0.818067,39.504
493,0.819733,39.494
494,0.8214,39.485
495,0.823067,39.485
496,0.824733,39.46
497,0.8264,39.475
498,0.828067,39.474
499,0.8297330000000001,39.474
500,0.8314,39.456
501,0.83305,39.451
502,0.834833,39.441
503,0.836383,39.441
504,0.83805,39.444
505,0.839717,39.442
506,0.841383,39.442
507,0.84305,39.432
508,0.8447170000000001,39.442
509,0.846383,39.44
510,0.84805,39.44
511,0.8497169999999999,39.435
512,0.851483,39.472
513,0.85305,39.469
514,0.8547169999999999,39.469
515,0.856383,39.469
516,0.85805,39.469
517,0.859717,39.443
518,0.861383,39.443
519,0.86305,39.429
520,0.864717,39.431
521,0.866383,39.431
522,0.868083,39.473
523,0.869717,39.48
524,0.871417,39.463
525,0.87305,39.463
526,0.874717,39.433
527,0.876383,39.385
528,0.87805,39.391
529,0.879717,39.391
530,0.881383,39.425
531,0.88305,39.453
532,0.884717,39.46
533,0.886383,39.46
534,0.88805,39.443
535,0.8897,39.411
536,0.891383,39.411
537,0.893033,39.379
538,0.8947000000000001,39.388
539,0.896367,39.378
540,0.898033,39.378
541,0.8997000000000001,39.393
542,0.901367,39.395
543,0.903033,39.377
544,0.9046999999999999,39.377
545,0.906367,39.382
546,0.908033,39.355
547,0.9097,39.335
548,0.911367,39.335
549,0.913033,39.317
550,0.9147,39.3
551,0.916367,39.305
552,0.918033,39.305
553,0.919717,39.328
554,0.921367,39.353
555,0.923033,39.353
556,0.9247,39.363
557,0.9263670000000001,39.355
558,0.928033,39.338
559,0.9297,39.338
560,0.9313669999999999,39.305
561,0.933033,39.309
562,0.9347,39.322
563,0.9364170000000001,39.322
564,0.938033,39.318
565,0.9397,39.317
566,0.941367,39.31
567,0.943033,39.31
568,0.944733,39.278
569,0.946367,39.273
570,0.948033,39.273
571,0.9497,39.304
572,0.951367,39.282
573,0.953083,39.293
574,0.9546829999999999,39.293
575,0.95635,39.306
576,0.958017,39.314
577,0.9597,39.354
578,0.96135,39.354
579,0.963017,39.376
580,0.964683,39.378
581,0.96635,39.368
582,0.968017,39.368
583,0.9698,39.339
584,0.97135,39.338
585,0.973017,39.321
586,0.974683,39.321
587,0.9763500000000001,39.321
588,0.978017,39.308
589,0.979683,39.308
590,0.9813499999999999,39.288
591,0.983017,39.311
592,0.984683,39.283
593,0.9863499999999999,39.283
594,0.988017,39.285
595,0.989683,39.29
596,0.99135,39.273
597,0.993017,39.273
598,0.994683,39.298
599,0.99635,39.352
600,0.998017,39.35
601,0.999683,39.35
602,1.00135,39.355
603,1.003017,39.358
604,1.004683,39.358
605,1.00635,39.319
606,1.008017,39.292
607,1.009683,39.302
608,1.011333,39.302
609,1.013,39.271
610,1.014667,39.267
611,1.016383,39.323
612,1.018,39.323
613,1.019667,39.3
614,1.021333,39.306
615,1.023,39.287
616,1.024683,39.287
617,1.026333,39.262
618,1.028,39.273
619,1.029667,39.273
620,1.031333,39.29
621,1.033,39.295
622,1.034667,39.266
623,1.036333,39.266
624,1.037983,39.265
625,1.03965,39.238
626,1.041317,39.273
627,1.042983,39.273
628,1.04465,39.283
629,1.046317,39.257
630,1.047983,39.262
631,1.04965,39.262
632,1.051317,39.232
633,1.052983,39.225
634,1.054683,39.224
635,1.056317,39.224
636,1.057983,39.189
637,1.05965,39.178
638,1.061317,39.178
639,1.062983,39.173
640,1.06465,39.203
641,1.066317,39.239
642,1.067983,39.239
643,1.06965,39.275
644,1.07135,39.31
645,1.072967,39.279
646,1.074633,39.279
647,1.0763,39.266
648,1.077967,39.227
649,1.079633,39.184
650,1.0813,39.184
651,1.082967,39.193
652,1.084633,39.195
653,1.0863,39.195
654,1.088067,39.2
655,1.089633,39.206
656,1.091333,39.235
657,1.092967,39.235
658,1.094633,39.244
659,1.0963,39.241
660,1.097967,39.288
661,1.099633,39.288
662,1.1013,39.278
663,1.102967,39.26
664,1.104633,39.257
665,1.1063,39.257
666,1.107967,39.217
667,1.109633,39.186
668,1.111333,39.197
669,1.112967,39.197
670,1.114633,39.209
671,1.1163,39.241
672,1.117967,39.241
673,1.119633,39.269
674,1.1213,39.282
675,1.122967,39.304
676,1.124633,39.304
677,1.1263,39.288
678,1.127967,39.291
679,1.129633,39.277
680,1.1313,39.277
681,1.13295,39.241
682,1.134633,39.217
683,1.136283,39.186
684,1.13795,39.186
685,1.139617,39.182
686,1.141283,39.209
687,1.14295,39.209
688,1.144617,39.217
689,1.146283,39.217
690,1.14795,39.212
691,1.149617,39.212
692,1.151283,39.203
693,1.15295,39.228
694,1.154617,39.258
695,1.156283,39.258
696,1.15795,39.293
697,1.159617,39.32
698,1.161333,39.297
699,1.16295,39.297
700,1.164617,39.259
701,1.166283,39.226
702,1.16795,39.191
703,1.169617,39.191
704,1.171283,39.182
705,1.172967,39.195
706,1.174617,39.195
707,1.176283,39.204
708,1.17795,39.209
709,1.179617,39.218
710,1.181283,39.218
711,1.18295,39.229
712,1.184617,39.225
713,1.186283,39.207
714,1.18795,39.207
715,1.18965,39.224
716,1.191283,39.253
717,1.192933,39.269
718,1.1946,39.269
719,1.196267,39.301
720,1.197933,39.276
721,1.199617,39.276
722,1.201317,39.24
723,1.202933,39.231
724,1.2046,39.232
725,1.2064,39.232
726,1.207933,39.224
727,1.2096,39.237
728,1.211267,39.228
729,1.212933,39.228
730,1.2146,39.223
731,1.216267,39.235
732,1.217933,39.247
733,1.2196,39.247
734,1.221267,39.271
735,1.222933,39.274
736,1.2246,39.274
737,1.226267,39.3
738,1.227933,39.282
739,1.2296,39.288
740,1.231267,39.288
741,1.232933,39.265
742,1.2346,39.236
743,1.236267,39.219
744,1.237933,39.219
745,1.239633,39.193
746,1.241267,39.2
747,1.242933,39.204
748,1.2446,39.204
749,1.246267,39.231
750,1.247933,39.238
751,1.2496,39.244
752,1.25125,39.244
753,1.252917,39.257
754,1.254583,39.282
755,1.25625,39.282
756,1.257917,39.298
757,1.259583,39.325
758,1.26125,39.351
759,1.262917,39.351
760,1.264583,39.319
761,1.26625,39.307
762,1.267917,39.282
763,1.269583,39.282
764,1.27125,39.282
765,1.272917,39.288
766,1.274583,39.311
767,1.276267,39.311
768,1.277917,39.342
769,1.279583,39.338
770,1.28125,39.338
771,1.282917,39.36
772,1.284583,39.361
773,1.28625,39.393
774,1.287917,39.393
775,1.289583,39.395
776,1.291267,39.396
777,1.292917,39.423
778,1.294583,39.423
779,1.29625,39.398
780,1.297917,39.437
781,1.299583,39.473
782,1.30125,39.473
783,1.302917,39.48
784,1.304583,39.481
785,1.30625,39.452
786,1.307933,39.452
787,1.309617,39.463
788,1.31125,39.446
789,1.3129,39.446
790,1.314567,39.496
791,1.316233,39.528
792,1.3179,39.526
793,1.319567,39.526
794,1.321233,39.56
795,1.3229,39.537
796,1.3247,39.522
797,1.326233,39.522
798,1.3279,39.492
799,1.32955,39.493
800,1.331217,39.484
801,1.332883,39.484
802,1.33455,39.508
803,1.336217,39.535
804,1.337883,39.535
805,1.33955,39.54
806,1.341217,39.594
807,1.342883,39.595
808,1.34455,39.595
809,1.346217,39.602
810,1.347883,39.609
811,1.34955,39.623
812,1.351217,39.623
813,1.352883,39.689
814,1.35455,39.752
815,1.356217,39.781
816,1.357883,39.781
817,1.35955,39.808
818,1.361217,39.783
819,1.3629,39.795
820,1.36455,39.795
821,1.366217,39.836
822,1.367883,39.846
823,1.36955,39.846
824,1.371217,39.859
825,1.372867,39.861
826,1.374533,39.857
827,1.3762,39.857
828,1.377867,39.822
829,1.379533,39.852
830,1.381217,39.858
831,1.382867,39.858
832,1.384533,39.846
833,1.3862,39.852
834,1.387867,39.86
835,1.389533,39.86
836,1.3912,39.864
837,1.392867,39.89
838,1.394533,39.89
839,1.3962,39.96
840,1.397867,39.974
841,1.399533,39.994
842,1.4012,39.994
843,1.402867,40.015
844,1.404533,40
845,1.4062,40.016
846,1.407867,40.016
847,1.409583,40.033
848,1.4112,40.025
849,1.412867,40.028
850,1.414533,40.028
851,1.4162,40.047
852,1.417867,40.087
853,1.419533,40.087
854,1.4212,40.127
855,1.422867,40.186
856,1.424533,40.226
857,1.4262,40.226
858,1.427867,40.222
859,1.429533,40.255
860,1.4312,40.269
861,1.43285,40.269
862,1.434517,40.264
863,1.436183,40.293
864,1.43785,40.292
865,1.439517,40.292
866,1.441183,40.296
867,1.44285,40.315
868,1.444517,40.308
869,1.446183,40.308
870,1.44785,40.364
871,1.449517,40.393
872,1.451183,40.393
873,1.452867,40.434
874,1.454517,40.478
875,1.456217,40.48
876,1.45785,40.48
877,1.459517,40.527
878,1.461183,40.559
879,1.46285,40.577
880,1.464517,40.577
881,1.466183,40.588
882,1.46785,40.572
883,1.469517,40.586
884,1.471183,40.586
885,1.47285,40.644
886,1.474517,40.678
887,1.476183,40.678
888,1.47785,40.703
889,1.479517,40.721
890,1.481183,40.691
891,1.48285,40.691
892,1.484517,40.702
893,1.486183,40.72
894,1.48785,40.742
895,1.4895,40.742
896,1.491167,40.801
897,1.492833,40.816
898,1.4945,40.819
899,1.496167,40.819
900,1.497833,40.802
901,1.4995,40.778
902,1.501167,40.811
903,1.502833,40.811
904,1.5045,40.884
905,1.506167,40.961
906,1.507833,40.961
907,1.5095,41.015
908,1.511167,41.036
909,1.512833,41.025
910,1.5145,41.025
911,1.516167,41.026
912,1.51785,41.055
913,1.5195,41.084
914,1.521167,41.084
915,1.522833,41.129
916,1.5245,41.166
917,1.526167,41.234
918,1.527933,41.234
919,1.5295,41.309
920,1.531167,41.334
921,1.532833,41.334
922,1.5345,41.373
923,1.536167,41.354
924,1.537833,41.337
925,1.5395,41.337
926,1.541167,41.372
927,1.542833,41.354
928,1.5445,41.389
929,1.546167,41.389
930,1.547833,41.413
931,1.5495,41.448
932,1.55115,41.507
933,1.552817,41.507
934,1.554483,41.544
935,1.55615,41.598
936,1.557817,41.6
937,1.559483,41.6
938,1.56115,41.586
939,1.562817,41.59
940,1.564483,41.59
941,1.56615,41.589
942,1.567817,41.612
943,1.569483,41.676
944,1.57115,41.676
945,1.572817,41.723
946,1.574483,41.752
947,1.57615,41.789
948,1.577817,41.789
949,1.579483,41.818
950,1.58115,41.834
951,1.582817,41.885
952,1.584483,41.885
953,1.58615,41.921
954,1.587817,41.977
955,1.589483,41.977
956,1.591167,42.015
957,1.592817,42.03
958,1.594483,42.059
959,1.596167,42.059
960,1.597817,42.086
961,1.599483,42.117
962,1.60115,42.149
963,1.602817,42.149
964,1.604483,42.173
965,1.60615,42.16
966,1.607817,42.188
967,1.609483,42.188
968,1.611133,42.221
969,1.6128,42.278
970,1.6145,42.333
971,1.616133,42.333
972,1.6178,42.365
973,1.619467,42.38
974,1.621117,42.38
975,1.622783,42.387
976,1.62445,42.403
977,1.626117,42.419
978,1.627783,42.419
979,1.62945,42.444
980,1.631117,42.457
981,1.632783,42.491
982,1.63445,42.491
983,1.636117,42.53
984,1.637783,42.571
985,1.63945,42.602
986,1.641117,42.602
987,1.642783,42.617
988,1.64445,42.631
989,1.646133,42.631
990,1.647783,42.664
991,1.64945,42.705
992,1.651117,42.768
993,1.652783,42.768
994,1.65445,42.804
995,1.656117,42.847
996,1.657783,42.866
997,1.65945,42.866
998,1.661117,42.906
999,1.662867,42.972
1000,1.66445,43.01
1001,1.666117,43.01
1002,1.667783,43.055
1003,1.669483,43.076
1004,1.671117,43.076
1005,1.672767,43.061
1006,1.674433,43.057
1007,1.6761,43.096
1008,1.677767,43.096
1009,1.679517,43.107
1010,1.6811,43.158
1011,1.682767,43.189
1012,1.684433,43.189
1013,1.6861,43.216
1014,1.687767,43.246
1015,1.689433,43.257
1016,1.6911,43.257
