"ID","sea_time","fid_signal"
1,0,1169.22
2,0.001667,1170.561
3,0.003333,1168.475
4,0.005067,1169.071
5,0.006667,1169.071
6,0.008333,1167.432
7,0.01,1166.463
8,0.011683,1166.761
9,0.013333,1166.761
10,0.015033,1164.898
11,0.016667,1163.93
12,0.018333,1163.93
13,0.02,1164.302
14,0.02175,1166.388
15,0.023333,1168.177
16,0.025,1168.177
17,0.026667,1169.816
18,0.028333,1168.102
19,0.03,1165.792
20,0.031667,1165.792
21,0.033333,1164.526
22,0.035,1163.483
23,0.036667,1165.718
24,0.03845,1165.718
25,0.04,1165.792
26,0.04165,1166.09
27,0.043317,1166.09
28,0.044983,1168.475
29,0.04665,1167.059
30,0.048317,1167.432
31,0.049983,1167.432
32,0.05165,1169.145
33,0.053333,1169.667
34,0.054983,1173.168
35,0.05665,1173.168
36,0.058317,1171.678
37,0.059983,1171.231
38,0.06165,1168.475
39,0.063317,1168.475
40,0.064983,1165.941
41,0.06665,1168.027
42,0.068317,1168.027
43,0.069983,1166.984
44,0.07165000000000001,1167.506
45,0.07331699999999999,1166.463
46,0.07498299999999999,1166.463
47,0.07665,1162.589
48,0.078317,1161.62
49,0.079983,1163.334
50,0.08165,1163.334
51,0.083317,1167.059
52,0.084983,1169.965
53,0.08665,1171.157
54,0.08831700000000001,1171.157
55,0.08998299999999999,1168.549
56,0.09165,1165.867
57,0.093317,1167.58
58,0.094983,1167.58
59,0.09665,1166.761
60,0.09835000000000001,1166.09
61,0.099983,1166.09
62,0.101633,1167.506
63,0.1033,1165.643
64,0.104967,1166.91
65,0.106717,1166.91
66,0.1083,1168.996
67,0.109967,1166.165
68,0.111633,1166.537
69,0.1133,1166.537
70,0.114967,1166.314
71,0.116633,1167.208
72,0.1183,1169.518
73,0.119967,1169.518
74,0.121633,1168.996
75,0.123367,1169.89
76,0.12495,1169.89
77,0.126617,1171.231
78,0.128283,1169.592
79,0.12995,1170.039
80,0.131617,1170.039
81,0.133283,1168.177
82,0.13495,1164.451
83,0.136617,1166.314
84,0.138283,1166.314
85,0.140033,1166.388
86,0.141617,1165.047
87,0.143283,1165.196
88,0.14495,1165.196
89,0.146617,1163.408
90,0.148283,1163.259
91,0.14995,1163.259
92,0.151617,1163.259
93,0.153283,1164.526
94,0.15495,1164.377
95,0.156717,1164.377
96,0.158283,1165.643
97,0.15995,1168.102
98,0.161617,1167.282
99,0.163267,1167.282
100,0.164933,1168.475
101,0.1666,1167.357
102,0.168267,1166.537
103,0.169933,1166.537
104,0.1716,1165.643
105,0.173267,1164.302
106,0.174933,1166.686
107,0.1766,1166.686
108,0.178267,1166.835
109,0.179933,1166.761
110,0.1816,1166.761
111,0.183267,1168.922
112,0.184933,1168.922
113,0.186617,1170.412
114,0.188267,1170.412
115,0.189933,1173.019
116,0.1916,1173.392
117,0.193267,1172.125
118,0.194933,1172.125
119,0.196633,1171.38
120,0.198267,1169.816
121,0.199933,1167.282
122,0.2016,1167.282
123,0.203267,1166.016
124,0.204933,1166.984
125,0.2066,1164.973
126,0.208267,1164.973
127,0.209933,1165.867
128,0.2116,1166.686
129,0.213267,1166.686
130,0.214933,1164.749
131,0.2166,1166.239
132,0.218267,1165.718
133,0.219917,1165.718
134,0.221583,1165.42
135,0.22325,1163.93
136,0.224917,1163.781
137,0.226583,1163.781
138,0.22825,1163.855
139,0.229917,1163.557
140,0.231583,1162.961
141,0.23325,1162.961
142,0.234917,1162.663
143,0.236583,1165.122
144,0.23825,1165.122
145,0.239917,1166.165
146,0.241617,1168.549
147,0.24325,1169.965
148,0.244917,1169.965
149,0.246583,1168.475
150,0.24825,1167.804
151,0.249917,1169.145
152,0.251583,1169.145
153,0.25325,1173.988
154,0.254917,1182.407
155,0.256583,1192.912
156,0.2583,1192.912
157,0.259917,1205.578
158,0.261583,1219.213
159,0.26325,1219.213
160,0.264917,1236.647
161,0.266583,1258.925
162,0.26825,1281.053
163,0.269917,1281.053
164,0.271583,1309.961
165,0.27325,1340.657
166,0.27505,1376.495
167,0.276583,1376.495
168,0.278267,1419.038
169,0.279917,1465.157
170,0.281567,1517.534
171,0.283233,1517.534
172,0.2849,1576.021
173,0.286567,1641.661
174,0.288233,1713.708
175,0.2899,1713.708
176,0.291567,1792.386
177,0.293233,1880.303
178,0.2949,1880.303
179,0.296567,1976.043
180,0.298233,2076.998
181,0.2999,2185.628
182,0.301567,2185.628
183,0.303233,2303.124
184,0.3049,2428.442
185,0.306567,2565.458
186,0.308233,2565.458
187,0.3099,2714.097
188,0.311567,2874.509
189,0.313233,3046.691
190,0.3149,3046.691
191,0.316567,3230.423
192,0.318233,3428.385
193,0.3199,3428.385
194,0.321567,3637.001
195,0.323233,3865.436
196,0.3249,4111.603
197,0.326567,4111.603
198,0.328233,4374.832
199,0.3299,4657.805
200,0.331567,4964.694
201,0.333233,4964.694
202,0.3349,5298.406
203,0.336567,5667.433
204,0.338233,6081.238
205,0.339917,6081.238
206,0.341583,6544.292
207,0.343217,7073.358
208,0.344883,7683.709
209,0.34655,7683.709
210,0.348217,8383.394
211,0.349883,9183.288
212,0.35155,9183.288
213,0.353217,10080.934
214,0.354883,11058.077
215,0.35655,12090.43
216,0.358217,12090.43
217,0.359883,13137.311
218,0.36155,14151.559
219,0.363217,15080.72
220,0.364883,15080.72
221,0.36655,15880.689
222,0.368217,16511.455
223,0.369883,16949.848
224,0.37155,16949.848
225,0.373217,17185.658
226,0.374883,17218.516
227,0.37655,17218.516
228,0.378217,17064.66
229,0.379883,16741.529
230,0.38155,16286.373
231,0.383217,16286.373
232,0.384883,15728.474
233,0.38655,15091.971
234,0.388217,14405.176
235,0.389883,14405.176
236,0.39155,13686.195
237,0.393233,12959.614
238,0.394883,12241.08
239,0.39655,12241.08
240,0.398217,11544.302
241,0.399883,10873.377
242,0.40155,10233.596
243,0.4032,10233.596
244,0.404867,9626.896000000001
245,0.406533,9056.852000000001
246,0.4082,9056.852000000001
247,0.409867,8523.688
248,0.411533,8022.264
249,0.4132,7554.814
250,0.414883,7554.814
251,0.416517,7122.01
252,0.418217,6722.286
253,0.41995,6351.62
254,0.421517,6351.62
255,0.423183,6012.693
256,0.42485,5696.938
257,0.426517,5405.247
258,0.428183,5405.247
259,0.42985,5134.94
260,0.431517,4884.228
261,0.433183,4884.228
262,0.43485,4653.037
263,0.436517,4436.821
264,0.438183,4240.498
265,0.43985,4240.498
266,0.441517,4057.363
267,0.443183,3884.286
268,0.44485,3727.004
269,0.446517,3727.004
270,0.448183,3579.781
271,0.44985,3442.541
272,0.451517,3319.606
273,0.453183,3319.606
274,0.45485,3200.77
275,0.456517,3091.469
276,0.458183,3091.469
277,0.45985,2991.185
278,0.4615,2893.358
279,0.463167,2804.845
280,0.464833,2804.845
281,0.4665,2721.995
282,0.468167,2641.901
283,0.469833,2566.725
284,0.4715,2566.725
285,0.473167,2495.572
286,0.474833,2427.176
287,0.4765,2365.783
288,0.478167,2365.783
289,0.479833,2310.872
290,0.4815,2260.357
291,0.483167,2209.395
292,0.484833,2209.395
293,0.4865,2161.563
294,0.488183,2115.443
295,0.489867,2115.443
296,0.4915,2072.304
297,0.4932,2031.252
298,0.494833,1993.552
299,0.4965,1993.552
300,0.498167,1957.566
301,0.499833,1921.877
302,0.5014999999999999,1891.628
303,0.503167,1891.628
304,0.504833,1860.857
305,0.5065,1835.749
306,0.508167,1808.107
307,0.509833,1808.107
308,0.5116000000000001,1782.328
309,0.513167,1758.337
310,0.514833,1758.337
311,0.5165,1732.111
312,0.518167,1710.951
313,0.519833,1687.706
314,0.5215,1687.706
315,0.52315,1666.024
316,0.524817,1643.3
317,0.526483,1621.619
318,0.52815,1621.619
319,0.529817,1603.663
320,0.531483,1588.315
321,0.53315,1574.01
322,0.534817,1574.01
323,0.536483,1559.928
324,0.53815,1544.803
325,0.539817,1528.487
326,0.541483,1528.487
327,0.54315,1514.107
328,0.544817,1504.198
329,0.5464830000000001,1504.198
330,0.54815,1491.681
331,0.549817,1479.685
332,0.5514829999999999,1467.392
333,0.55315,1467.392
334,0.554817,1453.906
335,0.5564829999999999,1445.934
336,0.55815,1434.46
337,0.559817,1434.46
338,0.561483,1424.924
339,0.563167,1415.536
340,0.564817,1405.999
341,0.566517,1405.999
342,0.56815,1398.921
343,0.569817,1394.525
344,0.571483,1394.525
345,0.57315,1388.565
346,0.574817,1383.573
347,0.576483,1379.848
348,0.5781500000000001,1379.848
349,0.579817,1370.832
350,0.581483,1362.711
351,0.583133,1352.578
352,0.5848,1352.578
353,0.586467,1342.222
354,0.588133,1334.921
355,0.589817,1330.152
356,0.591467,1330.152
357,0.593133,1325.682
358,0.5948,1323.074
359,0.596517,1319.498
360,0.598133,1319.498
361,0.5998,1314.804
362,0.601467,1310.557
363,0.603133,1310.557
364,0.6048,1306.012
365,0.606467,1298.711
366,0.608133,1294.464
367,0.6098,1294.464
368,0.611467,1289.397
369,0.613133,1284.257
370,0.6148,1286.268
371,0.616467,1286.268
372,0.618133,1282.468
373,0.6198,1281.649
374,0.621467,1280.01
375,0.623133,1280.01
376,0.6248,1275.018
377,0.626467,1270.1
378,0.6281330000000001,1270.1
379,0.6299169999999999,1267.046
380,0.631467,1263.32
381,0.6331329999999999,1260.489
382,0.6348,1260.489
383,0.636467,1259.297
384,0.638133,1256.615
385,0.6398,1254.231
386,0.641467,1254.231
387,0.64315,1254.082
388,0.644833,1252.592
389,0.646483,1250.803
390,0.6481170000000001,1250.803
391,0.649783,1249.611
392,0.65145,1245.141
393,0.6531169999999999,1245.141
394,0.654783,1241.788
395,0.65645,1240
396,0.658117,1236.796
397,0.659783,1236.796
398,0.66145,1235.604
399,0.663117,1233.369
400,0.664783,1231.804
401,0.66645,1231.804
402,0.668117,1231.357
403,0.669783,1231.432
404,0.67145,1233.965
405,0.673117,1233.965
406,0.674783,1232.922
407,0.67645,1229.644
408,0.678117,1224.875
409,0.679783,1224.875
410,0.68145,1219.734
411,0.683117,1213.998
412,0.684783,1213.998
413,0.68645,1210.794
414,0.688117,1210.496
415,0.689783,1209.378
416,0.69145,1209.378
417,0.693117,1211.762
418,0.694783,1214.519
419,0.69645,1211.986
420,0.698117,1211.986
421,0.699783,1210.868
422,0.70145,1210.049
423,0.7030999999999999,1207.516
424,0.704767,1207.516
425,0.706433,1207.292
426,0.708083,1206.771
427,0.709767,1206.771
428,0.71145,1205.131
429,0.713083,1207.814
430,0.7148,1210.719
431,0.716417,1210.719
432,0.718083,1212.06
433,0.71975,1211.464
434,0.72145,1209.229
435,0.723083,1209.229
436,0.72475,1206.547
437,0.726417,1203.716
438,0.728083,1202.449
439,0.72975,1202.449
440,0.731417,1199.842
441,0.733083,1199.096
442,0.73475,1199.469
443,0.736417,1199.469
444,0.738083,1200.81
445,0.73975,1200.438
446,0.741417,1200.438
447,0.743083,1201.853
448,0.74475,1199.096
449,0.746417,1196.265
450,0.748183,1196.265
451,0.74975,1195.595
452,0.751417,1192.689
453,0.7530829999999999,1191.199
454,0.75475,1191.199
455,0.756417,1189.783
456,0.758083,1191.72
457,0.75975,1190.677
458,0.7614,1190.677
459,0.7630670000000001,1193.509
460,0.76475,1194.477
461,0.7664,1194.477
462,0.7680670000000001,1193.21
463,0.769733,1194.85
464,0.7714,1194.254
465,0.7730669999999999,1194.254
466,0.774733,1191.795
467,0.7764,1189.411
468,0.778067,1186.43
469,0.779733,1186.43
470,0.7814,1183.674
471,0.783067,1183.823
472,0.784733,1183.823
473,0.7864,1183.823
474,0.788083,1182.78
475,0.789733,1185.611
476,0.7914,1184.866
477,0.793067,1184.866
478,0.794733,1183.972
479,0.7964,1184.27
480,0.798067,1184.27
481,0.799733,1183.897
482,0.8014,1184.344
483,0.803067,1184.121
484,0.804733,1184.121
485,0.8064170000000001,1185.313
486,0.808067,1183.376
487,0.809733,1182.929
488,0.8114,1182.929
489,0.813067,1183.078
490,0.814733,1184.344
491,0.8164,1184.94
492,0.818067,1184.94
493,0.819733,1185.536
494,0.821383,1188.144
495,0.8230499999999999,1188.144
496,0.824717,1185.611
497,0.826383,1183.972
498,0.82805,1184.121
499,0.829717,1184.121
500,0.831383,1180.992
501,0.833083,1180.023
502,0.834717,1180.172
503,0.836383,1180.172
504,0.83805,1178.011
505,0.839717,1177.937
506,0.841383,1175.851
507,0.84305,1175.851
508,0.8447170000000001,1175.851
509,0.846383,1176.819
510,0.84805,1176.819
511,0.8497670000000001,1176.894
512,0.851383,1180.321
513,0.85305,1180.47
514,0.8547169999999999,1180.47
515,0.856383,1177.862
516,0.85805,1175.627
517,0.859717,1174.584
518,0.861433,1174.584
519,0.86305,1173.765
520,0.864717,1174.51
521,0.866483,1177.341
522,0.86805,1177.341
523,0.869717,1174.957
524,0.871383,1174.807
525,0.87305,1174.51
526,0.874717,1174.51
527,0.876383,1171.306
528,0.87805,1171.082
529,0.879717,1171.082
530,0.881367,1172.274
531,0.883167,1175.627
532,0.8847,1178.16
533,0.886367,1178.16
534,0.888033,1180.023
535,0.8897,1181.588
536,0.891367,1180.768
537,0.893033,1180.768
538,0.8947000000000001,1180.246
539,0.896367,1183.152
540,0.898033,1180.693
541,0.899733,1180.693
542,0.901367,1180.768
543,0.903033,1183.376
544,0.9046999999999999,1183.376
545,0.906367,1180.843
546,0.908033,1181.588
547,0.9097,1180.023
548,0.911367,1180.023
549,0.913033,1178.309
550,0.9147,1180.172
551,0.916367,1179.352
552,0.918033,1179.352
553,0.9197,1177.341
554,0.921367,1176.074
555,0.923033,1171.976
556,0.9247,1171.976
557,0.9263670000000001,1172.87
558,0.928033,1173.094
559,0.9297,1173.988
560,0.9313669999999999,1173.988
561,0.933033,1176.372
562,0.934717,1176.596
563,0.9363669999999999,1176.596
564,0.938033,1179.799
565,0.9397,1179.129
566,0.941367,1176.596
567,0.943017,1176.596
568,0.9446830000000001,1173.615
569,0.94635,1170.337
570,0.948017,1171.678
571,0.9496830000000001,1171.678
572,0.95135,1172.349
573,0.953017,1174.807
574,0.9546829999999999,1175.702
575,0.95635,1175.702
576,0.958017,1175.702
577,0.959683,1177.937
578,0.96135,1177.937
579,0.963017,1177.862
580,0.964683,1180.172
581,0.96635,1178.756
582,0.968067,1178.756
583,0.969683,1178.458
584,0.97135,1177.266
585,0.973017,1177.564
586,0.974683,1177.564
587,0.976383,1179.427
588,0.978017,1178.831
589,0.979683,1179.427
590,0.9813499999999999,1179.427
591,0.983017,1175.329
592,0.98475,1172.2
593,0.9863499999999999,1171.157
594,0.988017,1171.157
595,0.989683,1169.071
596,0.99135,1169.518
597,0.993017,1169.518
598,0.994683,1167.879
599,0.99635,1168.922
600,0.998,1168.698
601,0.99965,1168.698
602,1.001433,1169.667
603,1.002983,1169.89
604,1.00465,1169.369
605,1.006317,1169.369
606,1.007983,1172.87
607,1.00965,1171.604
608,1.011317,1173.243
609,1.012983,1173.243
610,1.014717,1174.584
611,1.016317,1172.796
612,1.017983,1172.796
613,1.01965,1175.255
614,1.021317,1175.478
615,1.022983,1175.031
616,1.02465,1175.031
617,1.026317,1175.851
618,1.027983,1173.988
619,1.02965,1173.019
620,1.031317,1173.019
621,1.032983,1173.541
622,1.03465,1171.157
623,1.036317,1170.337
624,1.037983,1170.337
625,1.03965,1168.698
626,1.041317,1167.58
627,1.042983,1167.58
628,1.04465,1167.506
629,1.046317,1168.922
630,1.047983,1169.071
631,1.04965,1169.071
632,1.051317,1166.388
633,1.052983,1169.294
634,1.05465,1172.125
635,1.056317,1172.125
636,1.057983,1176.968
637,1.05965,1177.937
638,1.061333,1175.18
639,1.062967,1175.18
640,1.064633,1174.063
641,1.0663,1171.529
642,1.067967,1172.87
643,1.069633,1172.87
644,1.0713,1174.659
645,1.072967,1171.529
646,1.074633,1171.529
647,1.0763,1172.423
648,1.077967,1172.647
649,1.079633,1170.486
650,1.081317,1170.486
651,1.082967,1172.274
652,1.084633,1170.933
653,1.086333,1171.306
654,1.087967,1171.306
655,1.089633,1171.902
656,1.0913,1170.412
657,1.092967,1171.827
658,1.094633,1171.827
659,1.0963,1169.816
660,1.097967,1172.125
661,1.099633,1172.125
662,1.1013,1173.019
663,1.103,1173.615
664,1.104633,1175.702
665,1.1063,1175.702
666,1.107967,1174.36
667,1.109633,1173.913
668,1.1113,1169.965
669,1.112967,1169.965
670,1.114633,1167.133
671,1.1163,1168.698
672,1.117967,1171.082
673,1.119733,1171.082
674,1.121283,1174.807
675,1.12295,1175.404
676,1.124617,1171.827
677,1.126283,1171.827
678,1.12795,1171.306
679,1.129617,1170.71
680,1.131283,1170.71
681,1.13295,1174.807
682,1.134617,1177.788
683,1.136283,1176.894
684,1.13795,1176.894
685,1.139617,1175.255
686,1.141283,1172.125
687,1.14295,1169.667
688,1.144617,1169.667
689,1.146283,1168.698
690,1.14795,1168.102
691,1.149617,1170.039
692,1.151283,1170.039
693,1.152983,1173.466
694,1.154617,1172.2
695,1.156333,1174.286
696,1.15795,1174.286
697,1.159617,1170.933
698,1.161283,1167.879
699,1.16295,1167.879
700,1.164617,1170.635
701,1.166283,1168.847
702,1.16795,1170.859
703,1.169617,1170.859
704,1.171283,1171.902
705,1.17295,1171.529
706,1.174617,1171.678
707,1.176283,1171.678
708,1.17795,1171.306
709,1.179617,1169.965
710,1.181267,1169.145
711,1.182933,1169.145
712,1.1846,1168.624
713,1.186267,1167.133
714,1.187933,1167.133
715,1.1896,1169.071
716,1.191267,1171.082
717,1.192933,1172.572
718,1.1946,1172.572
719,1.196267,1175.106
720,1.197933,1174.435
721,1.1996,1173.168
722,1.201267,1173.168
723,1.202933,1172.349
724,1.20465,1171.306
725,1.206267,1170.486
726,1.207933,1170.486
727,1.2096,1169.145
728,1.211267,1169.518
729,1.212933,1169.518
730,1.2146,1167.879
731,1.216267,1167.953
732,1.217933,1170.859
733,1.2196,1170.859
734,1.221317,1169.816
735,1.222933,1168.847
736,1.2246,1167.729
737,1.226283,1167.729
738,1.227983,1165.494
739,1.2296,1165.718
740,1.231267,1168.624
741,1.232933,1168.624
742,1.2346,1170.486
743,1.236267,1169.518
744,1.237967,1169.145
745,1.2396,1169.145
746,1.24125,1166.761
747,1.242917,1164.302
748,1.244583,1164.302
749,1.24625,1165.718
750,1.247917,1168.922
751,1.249583,1169.667
752,1.25125,1169.667
753,1.252917,1170.412
754,1.254583,1168.624
755,1.25625,1167.58
756,1.257917,1167.58
757,1.259583,1168.251
758,1.26125,1170.188
759,1.262917,1172.647
760,1.264583,1172.647
761,1.26625,1173.466
762,1.267917,1174.584
763,1.269583,1174.584
764,1.27125,1172.498
765,1.272917,1170.188
766,1.274583,1166.612
767,1.27625,1166.612
768,1.277917,1164.973
769,1.279583,1165.718
770,1.28125,1165.867
771,1.282917,1165.867
772,1.284583,1166.91
773,1.28625,1166.239
774,1.287917,1161.844
775,1.289567,1161.844
776,1.291233,1161.769
777,1.2929,1161.62
778,1.294567,1161.62
779,1.296233,1163.259
780,1.297933,1167.208
781,1.299583,1169.816
782,1.301233,1169.816
783,1.302883,1172.796
784,1.30455,1172.721
785,1.306217,1172.2
786,1.307883,1172.2
787,1.30955,1172.647
788,1.311217,1170.039
789,1.312883,1169.965
790,1.31455,1169.965
791,1.316217,1169.667
792,1.317883,1167.282
793,1.31955,1166.537
794,1.321217,1166.537
795,1.322933,1164.6
796,1.32455,1167.133
797,1.326217,1167.133
798,1.327883,1167.655
799,1.32955,1169.294
800,1.331217,1170.412
801,1.332883,1170.412
802,1.33455,1167.432
803,1.336217,1168.251
804,1.337883,1166.612
805,1.33955,1166.612
806,1.341217,1169.741
807,1.342883,1170.337
808,1.34455,1167.58
809,1.346217,1167.58
810,1.347883,1169.965
811,1.34955,1169.89
812,1.351217,1169.89
813,1.352883,1170.635
814,1.35455,1174.212
815,1.356317,1174.063
816,1.357883,1174.063
817,1.35955,1172.796
818,1.3612,1173.615
819,1.362867,1174.063
820,1.364533,1174.063
821,1.3662,1171.827
822,1.367867,1172.498
823,1.369533,1173.913
824,1.3712,1173.913
825,1.372867,1174.063
826,1.374533,1176.819
827,1.376267,1176.521
828,1.37795,1176.521
829,1.379533,1175.925
830,1.3812,1174.212
831,1.382867,1174.212
832,1.384533,1174.659
833,1.3862,1173.988
834,1.387867,1171.827
835,1.389533,1171.827
836,1.3912,1171.902
837,1.392867,1172.2
838,1.394533,1173.094
839,1.396217,1173.094
840,1.397867,1176.149
841,1.399533,1174.584
842,1.4012,1172.274
843,1.402867,1172.274
844,1.404533,1169.518
845,1.4062,1165.718
846,1.407867,1165.718
847,1.409533,1166.09
848,1.4112,1165.122
849,1.412867,1164.675
850,1.414533,1164.675
851,1.4162,1167.879
852,1.417867,1167.655
853,1.419533,1170.039
854,1.421183,1170.039
855,1.42285,1171.38
856,1.424517,1168.475
857,1.426183,1171.008
858,1.42785,1171.008
859,1.429517,1171.678
860,1.431183,1173.094
861,1.43285,1173.094
862,1.434517,1177.49
863,1.436183,1177.117
864,1.43785,1174.286
865,1.439517,1174.286
866,1.441233,1175.553
867,1.442917,1171.976
868,1.444517,1169.741
869,1.446183,1169.741
870,1.44785,1170.561
871,1.449517,1166.314
872,1.451183,1166.165
873,1.45285,1166.165
874,1.454517,1164.6
875,1.456183,1161.918
876,1.45785,1164.898
877,1.459517,1164.898
878,1.461183,1166.463
879,1.46285,1168.027
880,1.464517,1168.027
881,1.466183,1169.071
882,1.46785,1166.165
883,1.469517,1164.6
884,1.471183,1164.6
885,1.47285,1163.781
886,1.474617,1164.451
887,1.476183,1164.451
888,1.47785,1164.451
889,1.479517,1163.483
890,1.481167,1166.984
891,1.482833,1167.879
892,1.4845,1167.879
893,1.486167,1168.4
894,1.487833,1170.114
895,1.4895,1170.114
896,1.491167,1166.165
897,1.492833,1166.314
898,1.4945,1166.835
899,1.496167,1166.835
900,1.497833,1165.122
901,1.4995,1165.792
902,1.501167,1162.514
903,1.502833,1162.514
904,1.5045,1164.6
905,1.506167,1164.898
906,1.507833,1164.675
907,1.5095,1164.675
908,1.511167,1165.047
909,1.512833,1162.216
910,1.5145,1165.271
911,1.516167,1165.271
912,1.517867,1166.463
913,1.519517,1169.071
914,1.521167,1169.071
915,1.522833,1171.976
916,1.5245,1172.2
917,1.526167,1173.913
