"ID","sea_time","fid_signal"
1,0,1167.879
2,0.001667,1171.529
3,0.003383,1171.38
4,0.005,1171.38
5,0.006667,1171.38
6,0.008399999999999999,1167.208
7,0.01,1166.463
8,0.011667,1166.463
9,0.013333,1167.879
10,0.015,1168.698
11,0.016667,1168.698
12,0.018333,1170.188
13,0.02,1170.933
14,0.021667,1169.369
15,0.023333,1169.369
16,0.024983,1168.102
17,0.026667,1168.475
18,0.02835,1164.377
19,0.029983,1164.377
20,0.03165,1167.059
21,0.033317,1169.294
22,0.034983,1169.518
23,0.03665,1169.518
24,0.038317,1170.859
25,0.04,1167.357
26,0.041767,1166.239
27,0.043317,1166.239
28,0.044983,1167.432
29,0.04665,1166.835
30,0.048317,1166.835
31,0.049983,1168.251
32,0.05165,1169.518
33,0.053317,1169.145
34,0.054983,1169.145
35,0.05665,1172.572
36,0.058317,1174.063
37,0.059983,1175.18
38,0.061633,1175.18
39,0.0633,1175.776
40,0.064967,1173.094
41,0.066633,1173.094
42,0.0683,1170.263
43,0.069967,1168.549
44,0.071633,1169.965
45,0.0733,1169.965
46,0.07496700000000001,1173.317
47,0.07663300000000001,1176.149
48,0.078333,1175.255
49,0.079967,1175.255
50,0.081633,1172.125
51,0.083283,1168.847
52,0.08495,1166.314
53,0.086617,1166.314
54,0.088283,1168.027
55,0.08995,1168.326
56,0.091617,1167.729
57,0.093283,1167.729
58,0.09495000000000001,1169.592
59,0.09661699999999999,1169.071
60,0.098283,1169.071
61,0.09995,1171.231
62,0.101617,1172.051
63,0.103283,1170.114
64,0.10495,1170.114
65,0.106617,1169.071
66,0.108283,1166.91
67,0.109967,1168.922
68,0.111617,1168.922
69,0.113283,1168.996
70,0.11495,1169.741
71,0.116617,1170.412
72,0.118283,1170.412
73,0.11995,1166.537
74,0.121617,1167.879
75,0.123283,1167.879
76,0.12495,1168.102
77,0.126683,1166.612
78,0.128283,1169.294
79,0.12995,1169.294
80,0.131617,1170.859
81,0.133283,1170.337
82,0.13495,1170.114
83,0.136617,1170.114
84,0.138283,1167.059
85,0.13995,1164.824
86,0.1416,1165.494
87,0.143267,1165.494
88,0.144967,1167.059
89,0.1466,1169.592
90,0.148267,1169.592
91,0.149933,1169.592
92,0.1516,1167.58
93,0.153267,1167.953
94,0.154933,1167.953
95,0.1566,1168.027
96,0.158267,1169.741
97,0.160033,1174.36
98,0.1616,1174.36
99,0.163267,1173.466
100,0.164933,1171.753
101,0.1666,1169.294
102,0.168267,1169.294
103,0.169933,1164.377
104,0.1716,1163.855
105,0.173267,1166.165
106,0.174933,1166.165
107,0.1766,1167.133
108,0.178267,1166.463
109,0.179933,1166.463
110,0.1816,1165.42
111,0.183267,1165.271
112,0.184933,1167.133
113,0.1866,1167.133
114,0.188267,1169.518
115,0.189933,1172.721
116,0.1916,1173.988
117,0.193267,1173.988
118,0.194933,1171.455
119,0.1966,1169.518
120,0.1983,1167.133
121,0.199933,1167.133
122,0.2016,1164.153
123,0.203267,1165.196
124,0.204917,1167.059
125,0.206583,1167.059
126,0.20825,1166.388
127,0.209917,1165.42
128,0.211583,1165.42
129,0.21325,1165.643
130,0.214933,1165.792
131,0.2166,1165.792
132,0.21825,1165.792
133,0.219917,1166.537
134,0.221583,1168.102
135,0.22325,1166.761
136,0.224917,1166.761
137,0.226583,1169.518
138,0.22825,1170.933
139,0.229917,1168.027
140,0.231583,1168.027
141,0.23325,1168.4
142,0.234917,1168.475
143,0.236583,1168.475
144,0.23825,1169.89
145,0.239917,1169.145
146,0.241583,1169.965
147,0.24325,1169.965
148,0.244967,1171.604
149,0.246583,1169.741
150,0.24825,1171.455
151,0.249917,1171.455
152,0.251583,1170.933
153,0.25325,1167.953
154,0.254917,1169.741
155,0.256583,1169.741
156,0.25825,1172.647
157,0.259917,1175.702
158,0.261583,1175.702
159,0.26325,1178.682
160,0.2649,1177.49
161,0.266567,1175.851
162,0.268233,1175.851
163,0.2699,1173.317
164,0.271567,1169.369
165,0.273233,1166.91
166,0.2749,1166.91
167,0.276567,1164.749
168,0.27835,1164.228
169,0.2799,1163.93
170,0.281567,1163.93
171,0.283233,1164.228
172,0.2849,1164.749
173,0.286567,1164.6
174,0.288267,1164.6
175,0.2899,1165.196
176,0.291583,1165.494
177,0.293267,1165.494
178,0.2949,1168.847
179,0.296567,1171.529
180,0.298233,1175.329
181,0.2999,1175.329
182,0.301567,1179.725
183,0.303233,1182.333
184,0.3049,1184.27
185,0.306567,1184.27
186,0.308233,1186.803
187,0.3099,1188.889
188,0.311567,1188.74
189,0.313233,1188.74
190,0.3149,1192.465
191,0.316567,1198.798
192,0.318233,1198.798
193,0.3199,1208.112
194,0.321567,1219.287
195,0.323233,1230.538
196,0.324883,1230.538
197,0.32655,1241.341
198,0.328217,1251.772
199,0.329883,1263.395
200,0.33155,1263.395
201,0.333217,1272.783
202,0.334883,1279.786
203,0.33655,1287.088
204,0.338217,1287.088
205,0.339883,1293.272
206,0.34155,1299.977
207,0.343217,1305.416
208,0.344883,1305.416
209,0.34655,1310.408
210,0.348217,1316.369
211,0.349883,1316.369
212,0.35155,1321.584
213,0.3532,1323.074
214,0.354867,1321.658
215,0.356533,1321.658
216,0.3582,1317.933
217,0.359867,1313.686
218,0.361583,1313.537
219,0.363267,1313.537
220,0.364867,1311.526
221,0.366533,1308.844
222,0.3682,1304.001
223,0.369867,1304.001
224,0.371533,1294.315
225,0.3732,1285.449
226,0.374867,1285.449
227,0.376533,1273.751
228,0.3782,1265.034
229,0.37995,1258.999
230,0.381533,1258.999
231,0.383183,1251.027
232,0.38485,1244.545
233,0.386517,1237.839
234,0.388183,1237.839
235,0.389867,1230.091
236,0.391517,1222.491
237,0.393183,1217.723
238,0.39485,1217.723
239,0.396517,1212.582
240,0.398183,1207.516
241,0.39985,1204.684
242,0.401517,1204.684
243,0.403183,1199.693
244,0.40485,1195.744
245,0.406517,1195.744
246,0.408183,1192.912
247,0.40985,1192.093
248,0.411517,1192.391
249,0.413183,1192.391
250,0.41485,1188.442
251,0.416517,1185.983
252,0.418183,1182.109
253,0.41985,1182.109
254,0.421517,1178.458
255,0.423183,1179.129
256,0.42485,1179.501
257,0.426517,1179.501
258,0.428183,1180.693
259,0.42985,1180.47
260,0.431517,1180.47
261,0.433183,1179.129
262,0.43485,1176.447
263,0.436517,1175.18
264,0.438217,1175.18
265,0.439867,1173.69
266,0.441517,1170.859
267,0.443167,1172.125
268,0.444833,1172.125
269,0.4465,1171.678
270,0.448167,1171.082
271,0.449833,1172.349
272,0.4515,1172.349
273,0.453167,1171.306
274,0.454833,1169.518
275,0.4565,1169.518
276,0.458167,1172.274
277,0.459833,1173.69
278,0.4615,1172.274
279,0.463167,1172.274
280,0.464833,1175.404
281,0.4665,1174.51
282,0.468167,1172.125
283,0.469833,1172.125
284,0.4715,1174.957
285,0.473167,1173.168
286,0.474833,1170.039
287,0.4765,1170.039
288,0.478167,1174.063
289,0.479833,1173.913
290,0.481533,1176.596
291,0.483167,1176.596
292,0.484833,1177.49
293,0.4865,1176.894
294,0.488167,1176.894
295,0.489833,1178.458
296,0.4915,1177.192
297,0.493167,1176.819
298,0.494833,1176.819
299,0.4965,1175.553
300,0.498233,1170.933
301,0.499833,1168.102
302,0.5014999999999999,1168.102
303,0.503167,1171.082
304,0.504817,1169.89
305,0.506483,1170.039
306,0.50815,1170.039
307,0.509817,1169.145
308,0.5115,1165.792
309,0.5132,1163.855
310,0.514817,1163.855
311,0.516483,1163.855
312,0.5181829999999999,1165.047
313,0.519817,1165.047
314,0.521483,1165.867
315,0.52315,1169.145
316,0.524817,1169.443
317,0.526483,1169.443
318,0.52815,1172.349
319,0.529817,1174.435
320,0.531583,1172.498
321,0.53315,1172.498
322,0.534817,1171.827
323,0.536483,1170.486
324,0.53815,1168.996
325,0.539817,1168.996
326,0.541483,1169.518
327,0.54315,1173.466
328,0.544817,1173.466
329,0.5464830000000001,1172.051
330,0.54815,1174.51
331,0.549817,1177.117
332,0.5514829999999999,1177.117
333,0.55315,1175.404
334,0.554817,1178.384
335,0.5564829999999999,1176.074
336,0.55815,1176.074
337,0.559817,1175.18
338,0.561483,1176.223
339,0.563133,1175.925
340,0.5648,1175.925
341,0.5664670000000001,1177.49
342,0.568133,1179.352
343,0.5698,1179.352
344,0.5714669999999999,1180.023
345,0.573133,1178.756
346,0.5748,1178.16
347,0.576467,1178.16
348,0.578133,1177.341
349,0.579817,1177.415
350,0.581467,1180.246
351,0.583133,1180.246
352,0.5848,1178.086
353,0.586467,1175.18
354,0.588133,1173.913
355,0.5898,1173.913
356,0.591467,1169.965
357,0.593133,1171.604
358,0.5948,1175.404
359,0.5965,1175.404
360,0.598133,1174.137
361,0.5998,1176.596
362,0.601467,1176.596
363,0.603133,1178.309
364,0.6048,1177.415
365,0.606467,1179.352
366,0.608133,1179.352
367,0.6098,1178.086
368,0.611467,1174.733
369,0.613133,1173.988
370,0.6148,1173.988
371,0.6165,1174.286
372,0.618133,1174.882
373,0.6198,1174.733
374,0.621467,1174.733
375,0.623133,1175.106
376,0.624783,1173.913
377,0.62645,1173.913
378,0.628117,1173.839
379,0.629783,1177.49
380,0.63145,1174.36
381,0.6331830000000001,1174.36
382,0.634783,1173.094
383,0.63645,1172.572
384,0.638117,1169.443
385,0.639783,1169.443
386,0.64145,1171.902
387,0.643117,1174.063
388,0.644767,1174.286
389,0.646433,1174.286
390,0.6481,1174.36
391,0.649883,1173.69
392,0.651433,1173.69
393,0.6531,1174.137
394,0.654767,1170.486
395,0.656467,1171.827
396,0.6581,1171.827
397,0.659767,1172.274
398,0.661433,1170.263
399,0.6631,1171.827
400,0.664767,1171.827
401,0.6664330000000001,1172.274
402,0.6681,1172.274
403,0.669767,1173.466
404,0.6714329999999999,1173.466
405,0.6731,1177.266
406,0.674767,1177.192
407,0.676433,1176.745
408,0.6781,1176.745
409,0.679767,1178.607
410,0.681433,1176.521
411,0.6831,1176.521
412,0.684783,1178.086
413,0.6864170000000001,1178.533
414,0.688083,1176.223
415,0.68975,1176.223
416,0.6914169999999999,1174.659
417,0.693083,1170.561
418,0.69475,1171.678
419,0.696417,1171.678
420,0.698083,1171.976
421,0.69975,1171.38
422,0.701417,1173.541
423,0.703083,1173.541
424,0.70475,1171.678
425,0.706417,1171.231
426,0.708083,1171.231
427,0.70975,1173.69
428,0.711417,1174.733
429,0.713083,1176.372
430,0.71475,1176.372
431,0.716417,1176.819
432,0.718083,1176.67
433,0.719783,1176.074
434,0.721417,1176.074
435,0.723083,1176.149
436,0.72475,1176.894
437,0.726417,1178.756
438,0.728083,1178.756
439,0.72975,1180.097
440,0.731417,1178.16
441,0.733083,1177.639
442,0.73475,1177.639
443,0.736417,1176
444,0.738083,1174.584
445,0.73975,1174.584
446,0.741417,1175.702
447,0.743083,1175.925
448,0.744733,1177.341
449,0.7464,1177.341
450,0.748067,1176.745
451,0.749733,1173.615
452,0.7514,1172.945
453,0.753067,1172.945
454,0.754733,1173.913
455,0.7564,1175.776
456,0.758067,1177.564
457,0.759733,1177.564
458,0.7614,1175.627
459,0.7630670000000001,1172.945
460,0.764733,1172.945
461,0.7664,1169.741
462,0.768167,1171.455
463,0.769733,1172.721
464,0.7714,1172.721
465,0.7730669999999999,1171.753
466,0.774733,1173.988
467,0.776433,1174.882
468,0.778067,1174.882
469,0.779733,1176.596
470,0.7814,1175.329
471,0.783067,1176.074
472,0.784733,1176.074
473,0.7864,1175.031
474,0.788067,1174.51
475,0.789733,1176.372
476,0.7914,1176.372
477,0.793067,1176.372
478,0.794733,1176
479,0.7964,1176
480,0.7981,1174.286
481,0.799733,1174.435
482,0.8014,1172.125
483,0.803067,1172.125
484,0.804717,1171.678
485,0.806383,1174.212
486,0.80805,1175.031
487,0.809717,1175.031
488,0.811383,1176.298
489,0.8130500000000001,1176
490,0.814717,1176.67
491,0.816383,1176.67
492,0.8180500000000001,1176.298
493,0.819717,1175.925
494,0.821383,1175.925
495,0.8230499999999999,1179.352
496,0.824717,1178.682
497,0.826383,1178.086
498,0.82805,1178.086
499,0.829717,1178.086
500,0.831383,1173.019
501,0.83305,1173.839
502,0.834717,1173.839
503,0.836383,1175.255
504,0.83805,1176.819
505,0.839717,1177.713
506,0.841383,1177.713
507,0.84305,1175.627
508,0.8447170000000001,1175.851
509,0.8464,1176.521
510,0.84805,1176.521
511,0.8497169999999999,1180.321
512,0.851383,1181.513
513,0.853117,1181.513
514,0.8547169999999999,1183.301
515,0.856383,1180.619
516,0.85805,1177.937
517,0.859717,1177.937
518,0.861383,1177.788
519,0.86305,1174.137
520,0.8647,1176
521,0.866367,1176
522,0.8680330000000001,1173.839
523,0.86975,1173.168
524,0.871367,1174.733
525,0.8730329999999999,1174.733
526,0.8747,1174.733
527,0.876367,1177.49
528,0.878033,1177.49
529,0.8797,1177.862
530,0.881367,1177.192
531,0.883033,1173.988
532,0.8847,1173.988
533,0.886467,1175.478
534,0.888033,1176.372
535,0.8897,1176.298
536,0.891367,1176.298
537,0.893033,1177.49
538,0.8947000000000001,1176.894
539,0.896367,1176.149
540,0.898033,1176.149
541,0.8997000000000001,1174.063
542,0.901367,1175.255
543,0.903033,1175.255
544,0.9046999999999999,1175.18
545,0.906367,1171.976
546,0.908033,1172.349
547,0.9097,1172.349
548,0.911367,1173.168
549,0.913033,1171.678
550,0.9147,1172.572
551,0.916367,1172.572
552,0.918033,1172.498
553,0.9197,1172.796
554,0.921367,1173.392
555,0.923033,1173.392
556,0.924683,1174.36
557,0.92635,1176.596
558,0.928017,1172.423
559,0.929683,1172.423
560,0.93135,1169.89
561,0.933017,1171.529
562,0.934683,1171.529
563,0.936333,1171.976
564,0.9379999999999999,1177.415
565,0.939717,1180.321
566,0.941333,1180.321
567,0.9429999999999999,1180.023
568,0.944667,1179.501
569,0.946333,1175.478
570,0.948,1175.478
571,0.949667,1175.329
572,0.951333,1175.851
573,0.953,1175.329
574,0.954667,1175.329
575,0.956333,1176.074
576,0.958,1175.925
577,0.959667,1175.925
578,0.961333,1174.733
579,0.963,1175.106
580,0.9646670000000001,1175.329
581,0.966333,1175.329
582,0.968,1175.553
583,0.9696669999999999,1178.309
584,0.971383,1176.223
585,0.973,1176.223
586,0.974667,1174.51
587,0.976333,1173.913
588,0.978,1170.635
589,0.979667,1170.635
590,0.981333,1169.816
591,0.9829830000000001,1170.561
592,0.98465,1171.082
593,0.986317,1171.082
594,0.9879829999999999,1171.678
595,0.98965,1174.584
596,0.991317,1174.584
597,0.9929829999999999,1176.447
598,0.99465,1177.49
599,0.996317,1177.415
600,0.997983,1177.415
601,0.99965,1177.043
602,1.001317,1175.478
603,1.002983,1174.435
604,1.00475,1174.435
605,1.006317,1174.286
606,1.007983,1175.702
607,1.00965,1177.415
608,1.011317,1177.415
609,1.012983,1176.67
610,1.014667,1176.968
611,1.016317,1176.968
612,1.018033,1173.839
613,1.01965,1171.529
614,1.021333,1170.486
615,1.022983,1170.486
616,1.02465,1168.251
617,1.026317,1168.773
618,1.027983,1170.784
619,1.02965,1170.784
620,1.031317,1171.008
621,1.032983,1174.212
622,1.03465,1173.243
623,1.036317,1173.243
624,1.037983,1172.349
625,1.03965,1171.082
626,1.041317,1171.082
627,1.042983,1167.953
628,1.044633,1167.506
629,1.0463,1165.792
630,1.047967,1165.792
631,1.049633,1165.271
632,1.0513,1165.643
633,1.052967,1167.804
634,1.054633,1167.804
635,1.0563,1167.804
636,1.057967,1170.859
637,1.059633,1172.274
638,1.0613,1172.274
639,1.062967,1171.38
640,1.064633,1173.541
641,1.0663,1173.839
642,1.067967,1173.839
643,1.069633,1175.031
644,1.0713,1176.149
645,1.072967,1176.149
646,1.074633,1176.521
647,1.0763,1176.819
648,1.078017,1175.851
649,1.079633,1175.851
650,1.0813,1178.682
651,1.082967,1176.223
652,1.084633,1175.18
653,1.086317,1175.18
654,1.087967,1175.329
655,1.0897,1172.721
656,1.0913,1174.659
657,1.092967,1174.659
658,1.094633,1174.137
659,1.0963,1174.063
660,1.097967,1174.063
661,1.099633,1175.255
662,1.1013,1173.168
663,1.102967,1171.306
664,1.104617,1171.306
665,1.106283,1168.4
666,1.10795,1165.271
667,1.109617,1164.749
668,1.111283,1164.749
669,1.11295,1164.526
670,1.114617,1167.879
671,1.116283,1168.102
672,1.11795,1168.102
673,1.119617,1171.753
674,1.121283,1174.957
675,1.123067,1172.647
676,1.124617,1172.647
677,1.126283,1174.584
678,1.12795,1172.87
679,1.129617,1172.87
680,1.131283,1172.945
681,1.13295,1174.286
682,1.134617,1173.913
683,1.136283,1173.913
684,1.13795,1176.149
685,1.139617,1177.639
686,1.141283,1180.097
687,1.14295,1180.097
688,1.144617,1181.066
689,1.146283,1179.948
690,1.14795,1177.117
691,1.149617,1177.117
692,1.151283,1174.807
693,1.15295,1173.615
694,1.154633,1173.615
695,1.156283,1173.317
696,1.15795,1175.404
697,1.159617,1176.074
698,1.161283,1176.074
699,1.16295,1177.788
700,1.1646,1175.553
701,1.166267,1171.678
702,1.167933,1171.678
703,1.1696,1169.071
704,1.171267,1167.282
705,1.172933,1169.965
706,1.1746,1169.965
707,1.176267,1170.412
708,1.177967,1171.604
709,1.1796,1171.976
710,1.181267,1171.976
711,1.182933,1171.678
712,1.1846,1175.627
713,1.186267,1175.627
714,1.187933,1175.702
715,1.1896,1175.478
716,1.191267,1174.882
717,1.192933,1174.882
718,1.1946,1174.733
719,1.196267,1172.572
720,1.197933,1172.87
721,1.1996,1172.87
722,1.201267,1173.466
723,1.202933,1169.89
724,1.2046,1171.082
725,1.206267,1171.082
726,1.207983,1170.039
727,1.2096,1167.133
728,1.211267,1167.133
729,1.212933,1168.922
730,1.2146,1169.89
731,1.216267,1170.337
732,1.217933,1170.337
733,1.2196,1171.008
734,1.221267,1169.294
735,1.222933,1166.761
736,1.224667,1166.761
737,1.226267,1167.655
738,1.2279,1169.667
739,1.229567,1169.816
740,1.231233,1169.816
741,1.2329,1172.796
742,1.234567,1172.796
743,1.236233,1172.796
744,1.2379,1172.945
745,1.239567,1174.882
746,1.241333,1174.807
747,1.2429,1174.807
748,1.244567,1175.702
749,1.246233,1175.553
750,1.2479,1174.36
751,1.249567,1174.36
752,1.251233,1172.721
753,1.2529,1168.773
754,1.254567,1167.58
755,1.256233,1167.58
756,1.2579,1167.357
757,1.259567,1170.71
758,1.261233,1173.913
759,1.2629,1173.913
760,1.264617,1175.851
761,1.266233,1175.255
762,1.2679,1175.255
763,1.269567,1174.137
764,1.271233,1173.988
765,1.2729,1170.561
766,1.274567,1170.561
767,1.276233,1173.317
768,1.2779,1174.733
769,1.279567,1174.36
770,1.281233,1174.36
771,1.2829,1175.255
772,1.28455,1176.223
773,1.286217,1175.925
774,1.287883,1175.925
775,1.28955,1175.627
776,1.291217,1175.106
777,1.292883,1175.106
778,1.29455,1171.529
779,1.296217,1168.996
780,1.297883,1166.835
781,1.2996,1166.835
782,1.301217,1169.369
783,1.302883,1170.188
784,1.30455,1169.518
785,1.306217,1169.518
786,1.307883,1169.965
787,1.30955,1170.412
788,1.311217,1171.008
789,1.312883,1171.008
790,1.31455,1173.988
791,1.316217,1172.796
792,1.317883,1172.2
793,1.31955,1172.2
794,1.321217,1170.933
795,1.322883,1170.635
796,1.32455,1170.635
797,1.326217,1174.659
798,1.327883,1173.988
799,1.32955,1173.541
800,1.331217,1173.541
801,1.332883,1171.976
802,1.33455,1170.337
803,1.336217,1169.592
804,1.337883,1169.592
805,1.33955,1168.027
806,1.341217,1167.133
807,1.34295,1170.114
808,1.34455,1170.114
809,1.346233,1172.2
810,1.347867,1178.011
811,1.349533,1178.011
812,1.3512,1181.141
813,1.352867,1178.607
814,1.354533,1176.819
815,1.3562,1176.819
816,1.357867,1172.796
817,1.359617,1172.498
818,1.3612,1170.635
819,1.362867,1170.635
820,1.364533,1170.486
821,1.3662,1170.114
822,1.367867,1170.039
823,1.369533,1170.039
824,1.3712,1170.71
825,1.372867,1172.721
826,1.374533,1175.031
827,1.3763,1175.031
828,1.377867,1173.094
829,1.379533,1172.572
830,1.3812,1172.572
831,1.382867,1168.922
832,1.384533,1168.326
833,1.3862,1167.879
834,1.387867,1167.879
835,1.389533,1168.4
836,1.3912,1171.008
837,1.392867,1169.89
838,1.394533,1169.89
839,1.3962,1169.592
840,1.397867,1169.071
841,1.399533,1167.804
842,1.4012,1167.804
843,1.402867,1167.059
844,1.404517,1167.432
845,1.406183,1167.432
846,1.40785,1167.655
847,1.409517,1167.282
848,1.411183,1170.486
849,1.41285,1170.486
850,1.414517,1169.816
851,1.416183,1169.667
852,1.41785,1168.847
853,1.419517,1168.847
854,1.421183,1167.357
855,1.42285,1167.804
856,1.424533,1169.667
857,1.426183,1169.667
858,1.42785,1173.243
859,1.42955,1171.902
860,1.431183,1172.647
861,1.43285,1172.647
862,1.434517,1173.466
863,1.436183,1172.945
864,1.4379,1172.945
865,1.439517,1172.721
866,1.441183,1173.839
867,1.44285,1173.094
868,1.444517,1173.094
869,1.446183,1172.2
870,1.44785,1176.67
871,1.449517,1176.372
872,1.451183,1176.372
873,1.45285,1175.553
874,1.454517,1177.043
875,1.456183,1175.18
876,1.45785,1175.18
877,1.459517,1173.988
878,1.461233,1172.647
879,1.46285,1172.647
880,1.4645,1168.549
881,1.466167,1167.879
882,1.467833,1169.22
883,1.4695,1169.22
884,1.471167,1171.902
885,1.472833,1172.945
886,1.4745,1172.423
887,1.476167,1172.423
888,1.477833,1172.721
889,1.4795,1168.996
890,1.481167,1170.933
891,1.482833,1170.933
892,1.4845,1173.317
893,1.486167,1172.721
894,1.487833,1172.721
895,1.4895,1175.627
896,1.491167,1176.447
897,1.492833,1175.478
898,1.494583,1175.478
899,1.496167,1174.51
900,1.497833,1173.913
901,1.4995,1172.125
902,1.501167,1172.125
903,1.502833,1171.38
904,1.5045,1171.604
905,1.506167,1172.87
906,1.507833,1172.87
907,1.5095,1171.38
908,1.511167,1168.326
909,1.512867,1166.314
910,1.5145,1166.314
911,1.5162,1163.706
912,1.517817,1163.632
913,1.519483,1163.632
914,1.52115,1167.133
915,1.522817,1169.145
916,1.524467,1170.188
917,1.526133,1170.188
918,1.5278,1172.572
919,1.529467,1170.784
920,1.531133,1172.349
921,1.5328,1172.349
922,1.534467,1173.094
923,1.536133,1174.584
