"ID","sea_time","fid_signal"
1,0,1174.957
2,0.001667,1174.957
3,0.003333,1174.882
4,0.005,1174.212
5,0.006667,1174.212
6,0.008333,1172.2
7,0.0101,1167.357
8,0.011667,1165.941
9,0.013333,1165.941
10,0.015,1167.804
11,0.016667,1169.518
12,0.018333,1175.18
13,0.02,1175.18
14,0.0217,1173.839
15,0.023333,1174.36
16,0.025,1176.819
17,0.026667,1176.819
18,0.028333,1171.38
19,0.03,1168.996
20,0.031667,1168.996
21,0.033333,1167.059
22,0.035017,1162.514
23,0.03665,1166.165
24,0.038317,1166.165
25,0.039983,1170.71
26,0.04165,1173.541
27,0.043317,1176.745
28,0.044983,1176.745
29,0.04665,1175.925
30,0.048317,1175.478
31,0.049983,1172.423
32,0.05165,1172.423
33,0.053333,1173.019
34,0.054983,1172.349
35,0.05665,1171.008
36,0.058317,1171.008
37,0.059983,1169.965
38,0.06165,1164.675
39,0.063317,1164.675
40,0.064983,1162.291
41,0.06665,1159.385
42,0.068317,1160.8
43,0.069983,1160.8
44,0.07165000000000001,1159.012
45,0.07331699999999999,1161.173
46,0.07498299999999999,1167.208
47,0.07665,1167.208
48,0.078317,1169.22
49,0.079983,1172.721
50,0.08165,1173.765
51,0.083317,1173.765
52,0.08500000000000001,1172.349
53,0.08665,1170.039
54,0.08831700000000001,1170.039
55,0.08998299999999999,1170.933
56,0.09165,1168.698
57,0.093317,1170.561
58,0.09505,1170.561
59,0.096633,1170.561
60,0.0983,1168.773
61,0.099967,1173.019
62,0.101633,1173.019
63,0.1033,1171.306
64,0.104967,1173.392
65,0.106633,1175.553
66,0.1083,1175.553
67,0.109967,1173.69
68,0.1117,1170.635
69,0.1133,1170.635
70,0.114967,1165.941
71,0.116633,1166.612
72,0.1183,1168.177
73,0.12,1168.177
74,0.121633,1168.027
75,0.1233,1174.584
76,0.124967,1172.349
77,0.126633,1172.349
78,0.1284,1169.965
79,0.129967,1173.541
80,0.131633,1168.698
81,0.1333,1168.698
82,0.134967,1171.827
83,0.136633,1171.306
84,0.1383,1167.804
85,0.139967,1167.804
86,0.141633,1171.678
87,0.1433,1169.965
88,0.144967,1169.965
89,0.146633,1170.114
90,0.1483,1172.87
91,0.149967,1174.137
92,0.151633,1174.137
93,0.1533,1178.011
94,0.15495,1177.862
95,0.156617,1176.149
96,0.158283,1176.149
97,0.15995,1172.945
98,0.161633,1169.518
99,0.163333,1169.965
100,0.16495,1169.965
101,0.166617,1167.506
102,0.168283,1166.388
103,0.16995,1166.388
104,0.171617,1166.91
105,0.173283,1165.196
106,0.17495,1167.432
107,0.176617,1167.432
108,0.178283,1172.274
109,0.17995,1172.721
110,0.181617,1171.902
111,0.183283,1171.902
112,0.18495,1172.498
113,0.186617,1170.561
114,0.188283,1168.4
115,0.18995,1168.4
116,0.191617,1172.423
117,0.193283,1173.615
118,0.19495,1173.988
119,0.196617,1173.988
120,0.198283,1175.329
121,0.19995,1173.168
122,0.201617,1173.168
123,0.203317,1170.337
124,0.20495,1168.698
125,0.206617,1167.059
126,0.208283,1167.059
127,0.20995,1168.549
128,0.211617,1168.102
129,0.213267,1166.835
130,0.214933,1166.835
131,0.2166,1167.655
132,0.218267,1168.624
133,0.219933,1173.094
134,0.2216,1173.094
135,0.223267,1174.659
136,0.224933,1174.957
137,0.2266,1174.957
138,0.228267,1175.106
139,0.229983,1171.082
140,0.2316,1169.741
141,0.233283,1169.741
142,0.234933,1169.145
143,0.236583,1165.42
144,0.23825,1166.686
145,0.239917,1166.686
146,0.241583,1169.741
147,0.24325,1170.859
148,0.244917,1173.913
149,0.2467,1173.913
150,0.24825,1176
151,0.249917,1177.043
152,0.251583,1174.063
153,0.25325,1174.063
154,0.254917,1174.063
155,0.256583,1173.019
156,0.25825,1173.019
157,0.259917,1168.847
158,0.261583,1167.655
159,0.26325,1165.569
160,0.264917,1165.569
161,0.266583,1167.357
162,0.26825,1169.816
163,0.269917,1171.976
164,0.271583,1171.976
165,0.27325,1175.031
166,0.274917,1174.882
167,0.276567,1176.447
168,0.278233,1176.447
169,0.2799,1179.501
170,0.281567,1178.98
171,0.283233,1178.98
172,0.2849,1176.447
173,0.286567,1176.67
174,0.288233,1176.372
175,0.2899,1176.372
176,0.291567,1174.212
177,0.29325,1177.117
178,0.2949,1178.086
179,0.296567,1178.086
180,0.298233,1183.897
181,0.2999,1190.752
182,0.301567,1196.489
183,0.30325,1196.489
184,0.3049,1199.767
185,0.306567,1202.673
186,0.308233,1202.673
187,0.3099,1211.166
188,0.311567,1217.276
189,0.313233,1229.048
190,0.3149,1229.048
191,0.316567,1239.181
192,0.318233,1245.067
193,0.3199,1251.101
194,0.321567,1251.101
195,0.323233,1256.54
196,0.3249,1259.372
197,0.326567,1263.618
198,0.328233,1263.618
199,0.3299,1270.25
200,0.33155,1277.402
201,0.333233,1285.002
202,0.3349,1285.002
203,0.33655,1291.335
204,0.338217,1295.954
205,0.339883,1295.954
206,0.34155,1295.507
207,0.343217,1295.06
208,0.344883,1292.899
209,0.34655,1292.899
210,0.3483,1292.005
211,0.349883,1293.644
212,0.35155,1294.836
213,0.353217,1294.836
214,0.354883,1299.679
215,0.35655,1299.605
216,0.358217,1297.444
217,0.359883,1297.444
218,0.36155,1298.264
219,0.363217,1293.868
220,0.364933,1292.601
221,0.36655,1292.601
222,0.368217,1290.515
223,0.369883,1284.406
224,0.37155,1284.406
225,0.373217,1279.637
226,0.374883,1275.465
227,0.37655,1268.387
228,0.378217,1268.387
229,0.379917,1262.799
230,0.381617,1255.795
231,0.383217,1247.6
232,0.384883,1247.6
233,0.38655,1242.459
234,0.388217,1234.934
235,0.389883,1229.495
236,0.39155,1229.495
237,0.393217,1221.448
238,0.394867,1213.178
239,0.396533,1213.178
240,0.3982,1210.347
241,0.399867,1204.61
242,0.401533,1204.535
243,0.4032,1204.535
244,0.404867,1206.845
245,0.406533,1201.034
246,0.4082,1200.214
247,0.409867,1200.214
248,0.411533,1197.904
249,0.4132,1193.062
250,0.414867,1192.093
251,0.416533,1192.093
252,0.4182,1189.336
253,0.419867,1184.046
254,0.421533,1184.046
255,0.4232,1181.141
256,0.424867,1176.745
257,0.426533,1175.329
258,0.4282,1175.329
259,0.429867,1179.278
260,0.431533,1178.756
261,0.4332,1181.29
262,0.434867,1181.29
263,0.436533,1180.619
264,0.4382,1176.521
265,0.439867,1175.478
266,0.441533,1175.478
267,0.4432,1172.945
268,0.444867,1173.094
269,0.446533,1170.412
270,0.4482,1170.412
271,0.449867,1172.274
272,0.451533,1175.478
273,0.4532,1175.478
274,0.45485,1178.458
275,0.456533,1179.278
276,0.458183,1176
277,0.459867,1176
278,0.461567,1176.223
279,0.463183,1172.647
280,0.46485,1172.572
281,0.466583,1172.572
282,0.468183,1177.862
283,0.46985,1177.49
284,0.471517,1177.713
285,0.473183,1177.713
286,0.47485,1179.799
287,0.476517,1175.702
288,0.478183,1175.702
289,0.47985,1175.627
290,0.481517,1176.894
291,0.483217,1177.266
292,0.48485,1177.266
293,0.486517,1178.384
294,0.488183,1179.725
295,0.48985,1178.905
296,0.491517,1178.905
297,0.493183,1178.458
298,0.49485,1175.776
299,0.496517,1170.412
300,0.498183,1170.412
301,0.49995,1168.4
302,0.501517,1167.282
303,0.503183,1169.89
304,0.50485,1169.89
305,0.506517,1174.286
306,0.5081830000000001,1176.223
307,0.50985,1176.223
308,0.511517,1176.819
309,0.5131829999999999,1176.074
310,0.514833,1172.498
311,0.5165,1172.498
312,0.518167,1173.615
313,0.519833,1174.063
314,0.521533,1175.031
315,0.523167,1175.031
316,0.524833,1180.47
317,0.5265,1182.184
318,0.52815,1180.992
319,0.529817,1180.992
320,0.531483,1179.576
321,0.53315,1176.149
322,0.534817,1176.149
323,0.536483,1173.317
324,0.53815,1173.615
325,0.539817,1175.776
326,0.541483,1175.776
327,0.54315,1176.819
328,0.544817,1176.968
329,0.5464830000000001,1178.682
330,0.54815,1178.682
331,0.549817,1177.117
332,0.551517,1177.043
333,0.55315,1176.968
334,0.554817,1176.968
335,0.5564829999999999,1175.925
336,0.55815,1174.063
337,0.559817,1174.063
338,0.561483,1174.435
339,0.56315,1172.349
340,0.564817,1173.168
341,0.566483,1173.168
342,0.56815,1176.149
343,0.569817,1176.074
344,0.571483,1180.246
345,0.57315,1180.246
346,0.574817,1180.097
347,0.576467,1179.427
348,0.578133,1178.756
349,0.5798,1178.756
350,0.581467,1176.372
351,0.583133,1175.627
352,0.58485,1175.925
353,0.586467,1175.925
354,0.588133,1177.564
355,0.5898,1178.16
356,0.591467,1178.16
357,0.593133,1178.309
358,0.5948,1178.607
359,0.596467,1176.372
360,0.598133,1176.372
361,0.5998,1173.466
362,0.601483,1173.69
363,0.603133,1174.212
364,0.6048,1174.212
365,0.606467,1173.988
366,0.608133,1177.341
367,0.6098,1177.713
368,0.611467,1177.713
369,0.613133,1177.043
370,0.6148,1178.831
371,0.616467,1178.831
372,0.61825,1178.905
373,0.6198,1180.396
374,0.621467,1180.843
375,0.623133,1180.843
376,0.6248,1180.693
377,0.626467,1182.482
378,0.6281330000000001,1178.235
379,0.6298,1178.235
380,0.631467,1176.67
381,0.6331329999999999,1176.745
382,0.6348,1176.447
383,0.63645,1176.447
384,0.638117,1179.65
385,0.639783,1180.396
386,0.641467,1180.992
387,0.643167,1180.992
388,0.644783,1180.097
389,0.64645,1179.203
390,0.6481170000000001,1179.203
391,0.649783,1180.321
392,0.65145,1180.619
393,0.6531169999999999,1179.948
394,0.654783,1179.948
395,0.65645,1178.831
396,0.658117,1176.149
397,0.659783,1176
398,0.661483,1176
399,0.663117,1175.851
400,0.664783,1175.925
401,0.66645,1178.533
402,0.668117,1178.533
403,0.669783,1176.372
404,0.67145,1176
405,0.673117,1176
406,0.674783,1176.819
407,0.67645,1178.384
408,0.678117,1180.097
409,0.679783,1180.097
410,0.68145,1180.097
411,0.683117,1180.917
412,0.6848,1178.682
413,0.68645,1178.682
414,0.688117,1179.203
415,0.689783,1179.054
416,0.69145,1179.576
417,0.693117,1179.576
418,0.694767,1180.843
419,0.696433,1180.992
420,0.6981000000000001,1180.992
421,0.699767,1181.364
422,0.701433,1180.992
423,0.703117,1179.203
424,0.704767,1179.203
425,0.706433,1178.086
426,0.7081,1178.831
427,0.709767,1178.235
428,0.711433,1178.235
429,0.7131,1180.693
430,0.714767,1181.29
431,0.716433,1180.693
432,0.7181,1180.693
433,0.719783,1178.533
434,0.721433,1174.807
435,0.723117,1174.51
436,0.7247670000000001,1174.51
437,0.726433,1176.223
438,0.7281,1179.576
439,0.7297670000000001,1179.576
440,0.731433,1179.203
441,0.7331,1177.415
442,0.7347669999999999,1176.223
443,0.736517,1176.223
444,0.7381,1175.329
445,0.739767,1178.309
446,0.741433,1177.862
447,0.7431,1177.862
448,0.744767,1174.882
449,0.746433,1175.106
450,0.7481,1175.329
451,0.749767,1175.329
452,0.751433,1177.341
453,0.7531,1181.811
454,0.754767,1181.811
455,0.756417,1181.96
456,0.758083,1180.693
457,0.75975,1177.788
458,0.761417,1177.788
459,0.763083,1177.937
460,0.76475,1179.278
461,0.766417,1179.65
462,0.768083,1179.65
463,0.76975,1182.109
464,0.771417,1177.639
465,0.773083,1176.298
466,0.77475,1176.298
467,0.776417,1174.957
468,0.778083,1175.776
469,0.7797500000000001,1179.129
470,0.781417,1179.129
471,0.783083,1182.035
472,0.7847499999999999,1187.324
473,0.786417,1187.324
474,0.788083,1186.952
475,0.78975,1185.76
476,0.791417,1179.948
477,0.793083,1179.948
478,0.79475,1177.639
479,0.796417,1176.67
480,0.798083,1175.925
481,0.79975,1175.925
482,0.801417,1180.097
483,0.803117,1178.384
484,0.804767,1179.278
485,0.8064170000000001,1179.278
486,0.808083,1180.172
487,0.80975,1179.576
488,0.8114170000000001,1179.576
489,0.813083,1178.533
490,0.814733,1179.576
491,0.8164,1176.745
492,0.818067,1176.745
493,0.819717,1172.647
494,0.82145,1173.168
495,0.8230499999999999,1171.902
496,0.824717,1171.902
497,0.826383,1174.584
498,0.82805,1177.937
499,0.829717,1178.682
500,0.831383,1178.682
501,0.83305,1182.035
502,0.834717,1182.78
503,0.836383,1182.109
504,0.83805,1182.109
505,0.839717,1181.737
506,0.841383,1176.447
507,0.84305,1176.447
508,0.8447170000000001,1173.541
509,0.846383,1173.243
510,0.84805,1171.008
511,0.8497169999999999,1171.008
512,0.851383,1173.541
513,0.85305,1176.298
514,0.854783,1179.427
515,0.856383,1179.427
516,0.85805,1182.407
517,0.859733,1182.482
518,0.861383,1181.513
519,0.86305,1181.513
520,0.864717,1178.309
521,0.866383,1176.596
522,0.86805,1176.596
523,0.869717,1176.223
524,0.871383,1174.212
525,0.87305,1173.317
526,0.874717,1173.317
527,0.876367,1174.063
528,0.878033,1175.329
529,0.8797,1177.713
530,0.881367,1177.713
531,0.8831,1179.874
532,0.8847,1179.278
533,0.886367,1176.298
534,0.888033,1176.298
535,0.8897,1175.106
536,0.891367,1174.807
537,0.893033,1174.807
538,0.8947000000000001,1175.404
539,0.896367,1178.011
540,0.898033,1179.576
541,0.8997000000000001,1179.576
542,0.901367,1177.117
543,0.903033,1176.596
544,0.9046999999999999,1176.149
545,0.906367,1176.149
546,0.908033,1176.447
547,0.9097,1178.384
548,0.911367,1178.533
549,0.913033,1178.533
550,0.9147,1178.905
551,0.916367,1175.627
552,0.918033,1175.329
553,0.9197,1175.329
554,0.921367,1175.851
555,0.923033,1174.435
556,0.9247,1174.435
557,0.9263670000000001,1176.819
558,0.928033,1176.67
559,0.9297,1176
560,0.9313669999999999,1176
561,0.933033,1176.447
562,0.934683,1176.894
563,0.93635,1177.862
564,0.938017,1177.862
565,0.939733,1178.458
566,0.94135,1178.086
567,0.943017,1179.129
568,0.9446830000000001,1179.129
569,0.94635,1178.384
570,0.948017,1175.702
571,0.9496830000000001,1175.702
572,0.951367,1173.988
573,0.953017,1170.039
574,0.9546829999999999,1168.251
575,0.95645,1168.251
576,0.958017,1170.859
577,0.959717,1170.486
578,0.96135,1171.976
579,0.963017,1171.976
580,0.964683,1174.659
581,0.96635,1175.478
582,0.968017,1177.788
583,0.969683,1177.788
584,0.97135,1178.905
585,0.973117,1177.862
586,0.974683,1176.074
587,0.9763500000000001,1176.074
588,0.978017,1176.521
589,0.979683,1176.372
590,0.9813499999999999,1176.372
591,0.983017,1177.937
592,0.984683,1178.011
593,0.9863499999999999,1177.639
594,0.988017,1177.639
595,0.989683,1175.18
596,0.99135,1172.647
597,0.993017,1171.082
598,0.994667,1171.082
599,0.996333,1169.592
600,0.998,1172.796
601,0.999667,1174.36
602,1.001333,1174.36
603,1.003,1175.702
604,1.004667,1176.745
605,1.006333,1176.745
606,1.008,1175.18
607,1.009667,1176.298
608,1.011333,1179.799
609,1.013,1179.799
610,1.014667,1181.066
611,1.016333,1183.823
612,1.018,1184.419
613,1.019667,1184.419
614,1.021333,1182.482
615,1.023,1182.109
616,1.024667,1180.396
617,1.026333,1180.396
618,1.028033,1179.948
619,1.029667,1179.799
620,1.031333,1179.501
621,1.033,1179.501
622,1.034667,1180.768
623,1.036333,1180.023
624,1.038,1180.023
625,1.039667,1177.49
626,1.04135,1173.541
627,1.043,1172.349
628,1.044667,1172.349
629,1.046333,1169.89
630,1.048,1171.157
631,1.049667,1174.733
632,1.051333,1174.733
633,1.053,1173.765
634,1.05465,1174.584
635,1.056317,1172.87
636,1.058,1172.87
637,1.05965,1170.337
638,1.061317,1170.039
639,1.062983,1170.039
640,1.06465,1172.274
641,1.066317,1175.404
642,1.067983,1176.745
643,1.06965,1176.745
644,1.071317,1178.16
645,1.072983,1177.117
646,1.0747,1177.266
647,1.076317,1177.266
648,1.077983,1178.309
649,1.07965,1179.427
650,1.081317,1178.235
651,1.082983,1178.235
652,1.08465,1178.309
653,1.086317,1178.98
654,1.088,1175.776
655,1.08965,1175.776
656,1.091433,1176.521
657,1.092983,1175.851
658,1.09465,1175.851
659,1.096317,1175.255
660,1.097983,1175.776
661,1.09965,1175.255
662,1.101317,1175.255
663,1.102983,1174.659
664,1.10465,1173.243
665,1.106317,1174.063
666,1.108,1174.063
667,1.10965,1172.051
668,1.1113,1171.008
669,1.112967,1170.71
670,1.114633,1170.71
671,1.116283,1170.188
672,1.11795,1170.337
673,1.119617,1170.337
674,1.121283,1169.741
675,1.12295,1169.294
676,1.124617,1170.188
677,1.126283,1170.188
678,1.12795,1174.435
679,1.129617,1175.702
680,1.131283,1178.384
681,1.132967,1178.384
682,1.134617,1176.67
683,1.136283,1174.584
684,1.13795,1174.882
685,1.139617,1174.882
686,1.141283,1175.18
687,1.14295,1176
688,1.144617,1176
689,1.146283,1175.627
690,1.14795,1175.851
691,1.149617,1175.031
692,1.151283,1175.031
693,1.15295,1174.807
694,1.154617,1173.988
695,1.156283,1174.063
696,1.15795,1174.063
697,1.159617,1174.584
698,1.161283,1175.702
699,1.16295,1177.713
700,1.164617,1177.713
701,1.166283,1179.352
702,1.16795,1178.98
703,1.169617,1178.235
704,1.171283,1178.235
705,1.17295,1180.097
706,1.1746,1178.831
707,1.176333,1178.831
708,1.177933,1178.905
709,1.1796,1177.341
710,1.181267,1174.807
711,1.182933,1174.807
712,1.1846,1176
713,1.186267,1176.149
714,1.187933,1178.682
715,1.1896,1178.682
716,1.191267,1179.799
717,1.193017,1177.266
718,1.1946,1178.98
719,1.196267,1178.98
720,1.197933,1179.278
721,1.1996,1179.129
722,1.201267,1179.129
723,1.202933,1180.172
724,1.2046,1178.235
725,1.206267,1177.043
726,1.207933,1177.043
727,1.2097,1177.49
728,1.211267,1177.862
729,1.212933,1178.16
730,1.2146,1178.16
731,1.216267,1175.553
732,1.217933,1171.38
733,1.2196,1171.976
734,1.221267,1171.976
735,1.222933,1173.392
736,1.224633,1174.36
737,1.226317,1175.553
738,1.227933,1175.553
739,1.2296,1172.796
740,1.231267,1167.729
741,1.232933,1167.729
742,1.234583,1167.133
743,1.23625,1166.016
744,1.237917,1167.208
745,1.239583,1167.208
746,1.24125,1171.455
747,1.242917,1173.615
748,1.244583,1174.807
749,1.24625,1174.807
750,1.247917,1175.404
751,1.249583,1171.604
752,1.25125,1169.816
753,1.25295,1169.816
754,1.254583,1171.753
755,1.25625,1169.816
756,1.257917,1169.816
757,1.259583,1172.349
758,1.26125,1174.286
759,1.262933,1173.392
760,1.264583,1173.392
761,1.26625,1175.553
762,1.267917,1175.553
763,1.269583,1172.721
764,1.27125,1172.721
765,1.272917,1170.784
766,1.274583,1169.816
767,1.27625,1170.263
768,1.277917,1170.263
769,1.279583,1173.765
770,1.28125,1175.329
771,1.282917,1175.851
772,1.284583,1175.851
773,1.28625,1177.117
774,1.287917,1173.988
775,1.289583,1173.988
776,1.29125,1176.149
777,1.2929,1176.894
778,1.294583,1175.18
779,1.296267,1175.18
780,1.2979,1175.255
781,1.299567,1170.039
782,1.301233,1168.251
783,1.3029,1168.251
784,1.304567,1166.686
785,1.306233,1170.114
786,1.3079,1176.67
787,1.309567,1176.67
788,1.31135,1176.372
789,1.3129,1177.639
790,1.314567,1177.639
791,1.316233,1174.137
792,1.3179,1171.827
793,1.319567,1174.36
794,1.321233,1174.36
795,1.3229,1177.117
796,1.3246,1180.172
797,1.326233,1179.278
798,1.327933,1179.278
799,1.329567,1179.054
800,1.331233,1176.074
801,1.3329,1175.329
802,1.334567,1175.329
803,1.336233,1176
804,1.3379,1173.094
805,1.339567,1173.094
806,1.341233,1174.733
807,1.3429,1171.38
808,1.344667,1171.604
809,1.346233,1171.604
810,1.3479,1174.882
811,1.349567,1173.913
812,1.351233,1177.043
813,1.3529,1177.043
814,1.35455,1176.894
815,1.356217,1172.87
816,1.357883,1170.412
817,1.35955,1170.412
818,1.361217,1172.274
819,1.362883,1172.423
820,1.36455,1174.063
821,1.366217,1174.063
822,1.367883,1176.894
823,1.36955,1173.168
824,1.371217,1173.168
825,1.372883,1169.592
826,1.37455,1169.294
827,1.376217,1170.039
828,1.377883,1170.039
829,1.37955,1172.945
830,1.381217,1178.309
831,1.382883,1179.278
832,1.38455,1179.278
833,1.38625,1176.149
834,1.387883,1176
835,1.38955,1176.223
836,1.391217,1176.223
837,1.392883,1178.309
838,1.394567,1180.917
839,1.396217,1180.917
840,1.397883,1181.364
841,1.39955,1178.607
842,1.4012,1176.745
843,1.402867,1176.745
844,1.404533,1173.69
845,1.4062,1171.604
846,1.407867,1170.933
847,1.409533,1170.933
848,1.4112,1170.486
849,1.41285,1173.094
850,1.414517,1174.063
851,1.416183,1174.063
852,1.41785,1175.106
853,1.419517,1175.031
854,1.421183,1173.392
855,1.42285,1173.392
856,1.424517,1174.807
857,1.426183,1175.329
858,1.42785,1175.329
859,1.429533,1174.435
860,1.431183,1176.596
861,1.43285,1176
862,1.434517,1176
863,1.436183,1175.404
864,1.437867,1177.49
865,1.439517,1176.745
866,1.441183,1176.745
867,1.44285,1175.106
868,1.444517,1174.882
869,1.446217,1172.945
870,1.44785,1172.945
871,1.449517,1171.902
872,1.451183,1172.796
873,1.45285,1172.796
874,1.454517,1175.031
875,1.456183,1177.937
876,1.45785,1178.533
877,1.459517,1178.533
878,1.461183,1180.396
879,1.46295,1179.203
880,1.464517,1178.756
881,1.466183,1178.756
882,1.46785,1176.819
883,1.469517,1176.596
884,1.471183,1178.235
885,1.472867,1178.235
886,1.474583,1174.733
887,1.476167,1175.925
888,1.477833,1175.925
889,1.4795,1174.286
890,1.481167,1169.89
891,1.482833,1170.039
892,1.4845,1170.039
893,1.486167,1171.753
894,1.487833,1173.168
895,1.4895,1175.031
896,1.491167,1175.031
897,1.492833,1177.415
898,1.4945,1175.702
899,1.496167,1173.317
900,1.497833,1173.317
901,1.4995,1176.149
902,1.501167,1176.298
903,1.502833,1178.384
904,1.5045,1178.384
905,1.506167,1177.639
906,1.507833,1173.317
907,1.5095,1173.317
908,1.511167,1170.784
909,1.512833,1167.357
910,1.5145,1169.89
911,1.516167,1169.89
912,1.517833,1171.082
913,1.5195,1173.168
914,1.521167,1175.18
915,1.522833,1175.18
916,1.5245,1172.2
917,1.526167,1169.294
918,1.527833,1168.698
919,1.5295,1168.698
920,1.53115,1169.89
921,1.532833,1173.765
922,1.5345,1173.765
923,1.53615,1178.16
924,1.537817,1178.533
