"ID","sea_time","fid_signal"
1,0,1165.718
2,0.001667,1166.686
3,0.003333,1167.729
4,0.005,1167.059
5,0.006667,1167.059
6,0.008333,1166.388
7,0.01,1167.357
8,0.011667,1167.357
9,0.013333,1168.847
10,0.015,1169.741
11,0.016667,1166.314
12,0.01835,1166.314
13,0.02,1162.812
14,0.021667,1161.322
15,0.023333,1163.259
16,0.025,1163.259
17,0.02665,1164.526
18,0.028317,1165.196
19,0.029983,1162.961
20,0.03165,1162.961
21,0.033317,1163.334
22,0.035017,1163.11
23,0.03665,1164.228
24,0.038317,1164.228
25,0.039983,1165.047
26,0.04165,1161.769
27,0.043317,1161.769
28,0.044983,1161.769
29,0.04665,1164.898
30,0.048317,1167.282
31,0.049983,1167.282
32,0.051717,1170.263
33,0.053317,1172.647
34,0.054983,1170.486
35,0.056667,1170.486
36,0.058317,1168.177
37,0.059983,1166.016
38,0.06165,1165.196
39,0.063317,1165.196
40,0.064967,1166.91
41,0.066633,1169.369
42,0.068367,1169.369
43,0.069967,1169.816
44,0.071633,1169.89
45,0.0733,1168.549
46,0.07496700000000001,1168.549
47,0.07663300000000001,1166.835
48,0.07829999999999999,1165.718
49,0.079967,1164.451
50,0.081633,1164.451
51,0.0833,1162.589
52,0.085067,1159.385
53,0.086617,1161.099
54,0.088283,1161.099
55,0.08995,1162.887
56,0.091617,1165.718
57,0.093283,1165.718
58,0.09495000000000001,1168.102
59,0.09661699999999999,1167.879
60,0.098283,1166.612
61,0.09995,1166.612
62,0.101617,1164.451
63,0.103283,1164.898
64,0.10495,1163.334
65,0.106633,1163.334
66,0.108283,1163.11
67,0.11,1166.537
68,0.111617,1167.506
69,0.113283,1167.506
70,0.11495,1171.231
71,0.116617,1173.541
72,0.118283,1173.466
73,0.11995,1173.466
74,0.121617,1172.274
75,0.123283,1171.678
76,0.12495,1171.678
77,0.126617,1171.902
78,0.128283,1168.698
79,0.12995,1167.729
80,0.131617,1167.729
81,0.133283,1165.047
82,0.13495,1162.142
83,0.136617,1163.11
84,0.138283,1163.11
85,0.13995,1164.824
86,0.141617,1166.91
87,0.143283,1168.027
88,0.14495,1168.027
89,0.1466,1168.996
90,0.148267,1169.294
91,0.149933,1169.294
92,0.1516,1167.133
93,0.153317,1166.09
94,0.154933,1163.781
95,0.1566,1163.781
96,0.158267,1163.259
97,0.159933,1163.408
98,0.1616,1162.812
99,0.163267,1162.812
100,0.164933,1164.451
101,0.1666,1164.004
102,0.168267,1163.855
103,0.169983,1163.855
104,0.1716,1167.133
105,0.173267,1169.741
106,0.174933,1171.008
107,0.1766,1171.008
108,0.178267,1171.902
109,0.179933,1171.455
110,0.181633,1171.455
111,0.183267,1167.729
112,0.184983,1164.824
113,0.186683,1162.216
114,0.188267,1162.216
115,0.189933,1160.428
116,0.1916,1161.471
117,0.193267,1162.812
118,0.194933,1162.812
119,0.1966,1163.855
120,0.198267,1164.526
121,0.199933,1165.271
122,0.2016,1165.271
123,0.203383,1164.824
124,0.204933,1165.047
125,0.2066,1165.047
126,0.20825,1163.632
127,0.209917,1160.949
128,0.211583,1161.62
129,0.21325,1161.62
130,0.214917,1162.738
131,0.216583,1162.589
132,0.21825,1166.239
133,0.219917,1166.239
134,0.221583,1169.294
135,0.22325,1168.549
136,0.224917,1170.114
137,0.226583,1170.114
138,0.22825,1167.655
139,0.229917,1165.643
140,0.2316,1165.047
141,0.23325,1165.047
142,0.234917,1164.079
143,0.236583,1164.302
144,0.23825,1164.302
145,0.239917,1162.961
146,0.241583,1163.93
147,0.24325,1164.451
148,0.244917,1164.451
149,0.246583,1166.239
150,0.24825,1168.475
151,0.249917,1170.859
152,0.251583,1170.859
153,0.25325,1170.561
154,0.254933,1171.008
155,0.256583,1168.922
156,0.25825,1168.922
157,0.259917,1166.388
158,0.261617,1166.165
159,0.26325,1166.165
160,0.264917,1164.004
161,0.266567,1164.377
162,0.268233,1166.09
163,0.2699,1166.09
164,0.271567,1169.592
165,0.273233,1169.667
166,0.2749,1169.145
167,0.276567,1169.145
168,0.278233,1168.102
169,0.2799,1165.345
170,0.281567,1164.228
171,0.283233,1164.228
172,0.2849,1162.887
173,0.286567,1161.844
174,0.288233,1161.844
175,0.2899,1161.546
176,0.291567,1162.365
177,0.293233,1164.153
178,0.2949,1164.153
179,0.296567,1166.835
180,0.298233,1166.239
181,0.2999,1165.718
182,0.301567,1165.718
183,0.303233,1168.549
184,0.3049,1166.016
185,0.306567,1168.922
186,0.308233,1168.922
187,0.3099,1168.549
188,0.311567,1165.867
189,0.313233,1168.922
190,0.3149,1168.922
191,0.316567,1167.879
192,0.318233,1170.561
193,0.3199,1170.561
194,0.321683,1170.859
195,0.323233,1167.133
196,0.3249,1165.867
197,0.326567,1165.867
198,0.328217,1164.079
199,0.329883,1163.036
200,0.33155,1165.569
201,0.333233,1165.569
202,0.334933,1167.804
203,0.33655,1167.357
204,0.338217,1170.263
205,0.339883,1170.263
206,0.34155,1170.784
207,0.343217,1171.008
208,0.344883,1171.008
209,0.34655,1172.498
210,0.348217,1172.87
211,0.349883,1174.063
212,0.351567,1174.063
213,0.35325,1174.137
214,0.354883,1174.435
215,0.356533,1172.274
216,0.3582,1172.274
217,0.359867,1171.455
218,0.361533,1170.412
219,0.3632,1171.753
220,0.364867,1171.753
221,0.366533,1174.36
222,0.3682,1171.082
223,0.369867,1168.698
224,0.371533,1168.698
225,0.3732,1166.09
226,0.374867,1166.016
227,0.376533,1166.016
228,0.3782,1166.463
229,0.379867,1168.549
230,0.381533,1168.4
231,0.3832,1168.4
232,0.384867,1165.494
233,0.386517,1168.102
234,0.388183,1169.145
235,0.389867,1169.145
236,0.391517,1170.933
237,0.393183,1170.784
238,0.39485,1170.933
239,0.396517,1170.933
240,0.398183,1172.349
241,0.399883,1170.263
242,0.401517,1170.263
243,0.403183,1171.976
244,0.40485,1172.349
245,0.406567,1168.996
246,0.408183,1168.996
247,0.40985,1171.678
248,0.411517,1175.478
249,0.413183,1178.98
250,0.41485,1178.98
251,0.416517,1184.344
252,0.418183,1187.921
253,0.41985,1191.646
254,0.421517,1191.646
255,0.4232,1195.967
256,0.42485,1205.504
257,0.426517,1220.182
258,0.428183,1220.182
259,0.42985,1233.369
260,0.431517,1253.858
261,0.433183,1253.858
262,0.434867,1280.233
263,0.436517,1313.686
264,0.438183,1361.147
265,0.43995,1361.147
266,0.441517,1415.536
267,0.443183,1477.45
268,0.44485,1548.231
269,0.446517,1548.231
270,0.448167,1626.015
271,0.449833,1713.783
272,0.4515,1808.927
273,0.453167,1808.927
274,0.454833,1911.819
275,0.4565,2021.343
276,0.458167,2021.343
277,0.459833,2136.454
278,0.4615,2257.6
279,0.463167,2381.802
280,0.464833,2381.802
281,0.4665,2504.96
282,0.468167,2627.969
283,0.469833,2744.272
284,0.4715,2744.272
285,0.473167,2856.105
286,0.474833,2964.735
287,0.476533,3065.765
288,0.478167,3065.765
289,0.479833,3161.803
290,0.4815,3250.688
291,0.483167,3250.688
292,0.484833,3331.08
293,0.4865,3405.809
294,0.488167,3473.684
295,0.489833,3473.684
296,0.4915,3534.034
297,0.493167,3587.827
298,0.494833,3628.88
299,0.4965,3628.88
300,0.498167,3664.941
301,0.499833,3689.229
302,0.5014999999999999,3707.632
303,0.503167,3707.632
304,0.504833,3725.29
305,0.506483,3732.592
306,0.50815,3741.235
307,0.509817,3741.235
308,0.5115,3743.842
309,0.5132,3740.638
310,0.514817,3740.638
311,0.516483,3741.16
312,0.51815,3734.082
313,0.519817,3724.471
314,0.521483,3724.471
315,0.52315,3713.22
316,0.524867,3696.531
317,0.526483,3681.854
318,0.52815,3681.854
319,0.529817,3666.952
320,0.531483,3648.028
321,0.53315,3628.06
322,0.534817,3628.06
323,0.536483,3605.634
324,0.53815,3581.42
325,0.539817,3581.42
326,0.541483,3559.962
327,0.54315,3538.43
328,0.544817,3517.494
329,0.5464830000000001,3517.494
330,0.54815,3496.781
331,0.549817,3475.323
332,0.5514829999999999,3450.885
333,0.553167,3450.885
334,0.554817,3425.777
335,0.5564829999999999,3404.021
336,0.558267,3381.148
337,0.559817,3381.148
338,0.561483,3357.008
339,0.56315,3333.464
340,0.564817,3307.089
341,0.5664670000000001,3307.089
342,0.568133,3282.726
343,0.5698,3264.025
344,0.5714669999999999,3264.025
345,0.573133,3242.567
346,0.5748,3221.407
347,0.576467,3201.514
348,0.578133,3201.514
349,0.5798,3180.578
350,0.581467,3162.623
351,0.583133,3142.878
352,0.5848,3142.878
353,0.586467,3120.527
354,0.588133,3100.783
355,0.5898,3079.846
356,0.591467,3079.846
357,0.593133,3062.561
358,0.5948,3045.797
359,0.596467,3045.797
360,0.598133,3025.606
361,0.5998,3006.98
362,0.601467,2987.087
363,0.603133,2987.087
364,0.60485,2968.982
365,0.606467,2952.367
366,0.608133,2932.996
367,0.6098,2932.996
368,0.611467,2912.506
369,0.613133,2894.178
370,0.6148,2875.403
371,0.616467,2875.403
372,0.618133,2858.713
373,0.6198,2845.004
374,0.621467,2830.476
375,0.623167,2830.476
376,0.6248,2814.382
377,0.62645,2800.673
378,0.628117,2800.673
379,0.629783,2786.219
380,0.63145,2767.518
381,0.633117,2752.468
382,0.6348,2752.468
383,0.63645,2736.822
384,0.638117,2718.419
385,0.639783,2703.294
386,0.64145,2703.294
387,0.6431829999999999,2689.362
388,0.644783,2672.598
389,0.646433,2657.846
390,0.6481,2657.846
391,0.649767,2641.007
392,0.651433,2624.169
393,0.6531,2624.169
394,0.654767,2610.534
395,0.656433,2596.527
396,0.6581,2584.383
397,0.659767,2584.383
398,0.661433,2570.45
399,0.6631,2554.432
400,0.664767,2540.126
401,0.6664330000000001,2540.126
402,0.6681,2527.088
403,0.669767,2514.496
404,0.6714329999999999,2504.811
405,0.6731,2504.811
406,0.674767,2494.082
407,0.67655,2479.553
408,0.6781,2479.553
409,0.679767,2463.981
410,0.681433,2447.739
411,0.6831,2435.595
412,0.684767,2435.595
413,0.6864170000000001,2427.772
414,0.688083,2418.16
415,0.68975,2407.953
416,0.6914169999999999,2407.953
417,0.693083,2396.628
418,0.69475,2386.123
419,0.69645,2375.767
420,0.698083,2375.767
421,0.699783,2365.857
422,0.701417,2353.564
423,0.703083,2342.09
424,0.70475,2342.09
425,0.706417,2333.82
426,0.708083,2324.358
427,0.70975,2324.358
428,0.711417,2315.268
429,0.713083,2301.41
430,0.71475,2288.371
431,0.716417,2288.371
432,0.718083,2277.196
433,0.71975,2266.541
434,0.721417,2259.687
435,0.723083,2259.687
436,0.72475,2249.181
437,0.726417,2238.676
438,0.728083,2227.351
439,0.72975,2227.351
440,0.731417,2217.069
441,0.733083,2206.34
442,0.73475,2206.34
443,0.736417,2196.655
444,0.738083,2190.098
445,0.73975,2180.115
446,0.741417,2180.115
447,0.743083,2171.025
448,0.74475,2162.084
449,0.7464,2151.43
450,0.748067,2151.43
451,0.749733,2140.328
452,0.7514,2131.835
453,0.753067,2122.67
454,0.754733,2122.67
455,0.7564,2112.389
456,0.758067,2105.012
457,0.759733,2095.327
458,0.761467,2095.327
459,0.763083,2086.088
460,0.764733,2079.979
461,0.7664,2079.979
462,0.768083,2072.081
463,0.769733,2067.387
464,0.7714,2064.034
465,0.7730669999999999,2064.034
466,0.774733,2059.564
467,0.7764,2052.858
468,0.778133,2046.004
469,0.779733,2046.004
470,0.7814,2038.479
471,0.783067,2027.824
472,0.784733,2022.237
473,0.7864,2022.237
474,0.788067,2015.01
475,0.789733,2005.026
476,0.7914,2005.026
477,0.793067,1998.171
478,0.794733,1991.987
479,0.7964,1987.219
480,0.798067,1987.219
481,0.799733,1981.035
482,0.8014,1975.372
483,0.803067,1968.071
484,0.804733,1968.071
485,0.806383,1958.683
486,0.80805,1954.138
487,0.809733,1947.88
488,0.8115,1947.88
489,0.8130500000000001,1939.535
490,0.814717,1933.798
491,0.816383,1924.336
492,0.8180500000000001,1924.336
493,0.819717,1917.183
494,0.821383,1909.509
495,0.8230499999999999,1909.509
496,0.824717,1903.251
497,0.826383,1899.078
498,0.82805,1893.565
499,0.829717,1893.565
500,0.831383,1889.84
501,0.83305,1882.389
502,0.834717,1877.174
503,0.836383,1877.174
504,0.838083,1872.182
505,0.839717,1866.818
506,0.841383,1862.571
507,0.84305,1862.571
508,0.8447170000000001,1856.461
509,0.846383,1850.426
510,0.84805,1850.426
511,0.8497169999999999,1848.489
512,0.851383,1847.222
513,0.85305,1841.262
514,0.85475,1841.262
515,0.856383,1836.866
516,0.85805,1828.149
517,0.859717,1820.698
518,0.861383,1820.698
519,0.86305,1820.028
520,0.864717,1815.259
521,0.866367,1811.907
522,0.8680330000000001,1811.907
523,0.8697,1807.958
524,0.871367,1802.594
525,0.8730329999999999,1802.594
526,0.8747,1799.539
527,0.876367,1796.111
528,0.878033,1790.822
529,0.8797,1790.822
530,0.881367,1783.222
531,0.883033,1777.858
532,0.8847,1771.599
533,0.886367,1771.599
534,0.888033,1766.607
535,0.8897,1762.211
536,0.891367,1756.996
537,0.893033,1756.996
538,0.8947000000000001,1753.941
539,0.896433,1750.514
540,0.898033,1747.906
541,0.8997000000000001,1747.906
542,0.901367,1744.703
543,0.903033,1740.232
544,0.9046999999999999,1740.232
545,0.906367,1735.762
546,0.908033,1730.099
547,0.9097,1724.884
548,0.9114,1724.884
549,0.9131,1720.935
550,0.9147,1717.508
551,0.916367,1716.763
552,0.918033,1716.763
553,0.9197,1714.677
554,0.921367,1710.653
555,0.923033,1707.599
556,0.9247,1707.599
557,0.92635,1703.65
558,0.928017,1696.87
559,0.9298,1692.697
560,0.93135,1692.697
561,0.933017,1687.333
562,0.934683,1683.906
563,0.93635,1683.906
564,0.9379999999999999,1684.353
565,0.939667,1683.757
566,0.941333,1681.596
567,0.9429999999999999,1681.596
568,0.944667,1679.435
569,0.946367,1676.157
570,0.948,1672.655
571,0.949667,1672.655
572,0.951333,1671.538
573,0.953,1666.62
574,0.954667,1660.138
575,0.956333,1660.138
576,0.958,1653.433
577,0.959667,1647.1
578,0.961333,1647.1
579,0.963,1644.269
580,0.9646670000000001,1643.598
581,0.966333,1644.418
582,0.968,1644.418
583,0.9696669999999999,1643.673
584,0.971333,1639.575
585,0.973,1634.21
586,0.974667,1634.21
587,0.976333,1628.399
588,0.978,1625.568
589,0.979667,1624.897
590,0.981367,1624.897
591,0.983,1625.046
592,0.984667,1621.619
593,0.986333,1621.619
594,0.9879829999999999,1618.49
595,0.98965,1617
596,0.991317,1614.317
597,0.9929829999999999,1614.317
598,0.99465,1613.2
599,0.996317,1609.474
600,0.997983,1605.079
601,0.99965,1605.079
602,1.001317,1602.322
603,1.002983,1600.385
604,1.00465,1596.659
605,1.006317,1596.659
606,1.007983,1593.009
607,1.00965,1590.773
608,1.011317,1590.177
609,1.012983,1590.177
610,1.014667,1590.773
611,1.016317,1589.06
612,1.017983,1589.06
613,1.01965,1586.08
614,1.021317,1582.578
615,1.023,1578.033
616,1.02465,1578.033
617,1.026317,1574.68
618,1.027983,1570.955
619,1.02965,1565.59
620,1.031367,1565.59
621,1.032983,1563.132
622,1.03465,1561.12
623,1.036317,1559.63
624,1.037983,1559.63
625,1.03965,1562.089
626,1.041317,1564.473
627,1.042983,1564.473
628,1.04465,1561.344
629,1.046317,1557.246
630,1.048017,1551.658
631,1.049633,1551.658
632,1.0513,1543.76
633,1.052967,1543.313
634,1.054633,1545.474
635,1.0563,1545.474
636,1.057967,1541.972
637,1.059667,1540.482
638,1.0613,1538.843
639,1.062967,1538.843
640,1.064633,1533.18
641,1.0663,1534
642,1.067967,1534
643,1.069633,1532.808
644,1.0713,1531.914
645,1.072967,1533.628
646,1.074633,1533.628
647,1.0763,1531.392
648,1.077967,1529.753
649,1.079633,1523.048
650,1.0813,1523.048
651,1.082967,1517.758
652,1.084633,1514.629
653,1.0863,1512.244
654,1.087967,1512.244
655,1.089633,1510.978
656,1.0913,1509.339
657,1.092967,1507.029
658,1.094633,1507.029
659,1.0963,1505.241
660,1.097967,1507.252
661,1.099633,1507.252
662,1.1013,1507.699
663,1.102967,1506.507
664,1.104633,1504.347
665,1.106283,1504.347
666,1.10795,1501.888
667,1.109633,1497.12
668,1.111333,1495.406
669,1.11295,1495.406
670,1.114617,1493.767
671,1.116317,1490.414
672,1.11795,1489.222
673,1.119617,1489.222
674,1.121283,1487.732
675,1.12295,1486.838
676,1.124617,1486.838
677,1.126283,1485.273
678,1.127983,1484.379
679,1.129617,1482.442
680,1.131283,1482.442
681,1.13295,1480.654
682,1.134617,1481.846
683,1.136283,1479.313
684,1.13795,1479.313
685,1.139617,1476.258
686,1.141283,1474.395
687,1.14295,1469.105
688,1.144617,1469.105
689,1.146283,1470.298
690,1.14795,1469.552
691,1.149633,1469.627
692,1.151283,1469.627
693,1.15295,1469.925
694,1.154617,1469.031
695,1.156283,1469.031
696,1.15795,1472.16
697,1.159617,1470.149
698,1.161283,1469.627
699,1.16295,1469.627
700,1.164617,1466.274
701,1.166383,1461.729
702,1.167933,1462.4
703,1.1696,1462.4
704,1.171267,1460.388
705,1.172933,1458.377
706,1.1746,1456.291
707,1.176267,1456.291
708,1.177933,1451.224
709,1.1796,1449.361
710,1.181267,1449.361
711,1.182933,1449.958
712,1.1846,1452.193
713,1.186267,1448.765
714,1.187933,1448.765
715,1.1896,1445.487
716,1.191267,1443.55
717,1.192933,1440.57
718,1.1946,1440.57
719,1.196267,1441.687
720,1.197933,1441.613
721,1.199633,1438.26
722,1.201267,1438.26
723,1.202967,1434.684
724,1.2046,1433.566
725,1.206267,1435.354
726,1.207933,1435.354
727,1.2096,1436.994
728,1.211267,1437.292
729,1.212933,1437.292
730,1.2146,1438.484
731,1.216267,1437.068
732,1.217933,1435.429
733,1.2196,1435.429
734,1.221267,1433.343
735,1.222933,1431.033
736,1.2246,1427.829
737,1.22625,1427.829
738,1.227917,1425.669
739,1.229567,1425.371
740,1.231233,1423.657
741,1.2329,1423.657
742,1.234567,1422.018
743,1.236233,1420.602
744,1.2379,1420.602
745,1.239567,1417.92
746,1.241233,1417.324
747,1.2429,1417.92
748,1.244567,1417.92
749,1.246233,1415.685
750,1.2479,1412.854
751,1.249567,1409.575
752,1.251233,1409.575
753,1.2529,1409.054
754,1.254567,1409.352
755,1.256233,1411.438
756,1.2579,1411.438
757,1.259567,1411.587
758,1.261233,1406.819
759,1.2629,1406.819
760,1.264567,1404.881
761,1.266233,1403.242
762,1.26795,1402.572
763,1.269567,1402.572
764,1.271233,1402.795
765,1.2729,1401.976
766,1.274567,1402.497
767,1.276267,1402.497
768,1.2779,1401.752
769,1.279567,1399.89
770,1.281233,1401.156
771,1.2829,1401.156
772,1.28465,1398.623
773,1.286233,1395.792
774,1.287883,1397.207
775,1.28955,1397.207
776,1.291217,1393.631
777,1.292883,1391.023
778,1.29455,1391.023
779,1.296217,1392.961
780,1.297883,1390.055
781,1.29955,1390.874
782,1.301217,1390.874
783,1.302883,1390.949
784,1.30455,1390.204
785,1.306217,1391.321
786,1.307883,1391.321
787,1.30955,1387.894
788,1.311217,1387.447
789,1.312883,1386.926
790,1.31455,1386.926
791,1.316217,1382.902
792,1.317883,1382.008
793,1.31955,1382.008
794,1.321217,1382.53
795,1.322883,1382.455
796,1.32455,1384.541
797,1.326217,1384.541
798,1.327883,1385.734
799,1.32955,1382.53
800,1.331217,1378.581
801,1.332883,1378.581
802,1.33455,1378.953
803,1.336217,1380.146
804,1.337883,1379.848
805,1.33955,1379.848
806,1.341217,1379.848
807,1.342883,1373.813
808,1.34455,1370.087
809,1.346233,1370.087
810,1.347867,1369.268
811,1.349533,1369.119
812,1.3512,1369.119
813,1.352867,1371.652
814,1.35455,1373.068
815,1.356233,1373.068
816,1.357867,1373.068
817,1.359533,1371.503
818,1.3612,1371.205
819,1.362867,1367.629
820,1.364533,1367.629
821,1.3662,1364.797
822,1.367867,1361.37
823,1.3696,1357.794
824,1.3712,1357.794
825,1.372867,1356.974
826,1.374533,1357.123
827,1.3762,1357.123
828,1.377867,1358.986
829,1.379533,1362.488
830,1.3812,1361.37
831,1.382867,1361.37
832,1.384533,1362.339
833,1.386217,1360.849
834,1.387867,1357.794
835,1.389533,1357.794
836,1.3912,1357.347
837,1.392867,1356.751
838,1.394533,1355.484
839,1.3962,1355.484
840,1.397867,1354.59
841,1.399533,1354.963
842,1.4012,1355.037
843,1.402967,1355.037
844,1.404533,1356.825
845,1.406183,1354.068
846,1.40785,1354.068
847,1.409517,1354.143
848,1.411183,1351.386
849,1.41285,1348.928
850,1.414517,1348.928
851,1.416183,1348.779
852,1.41785,1347.735
853,1.419517,1346.916
854,1.421183,1346.916
855,1.422883,1348.779
856,1.424517,1346.767
857,1.426183,1342.893
858,1.42785,1342.893
859,1.429517,1341.03
860,1.431183,1336.262
861,1.43285,1336.262
862,1.434517,1338.273
863,1.436183,1338.72
864,1.43785,1337.826
865,1.439517,1337.826
866,1.4412,1341.477
867,1.44285,1341.03
868,1.444517,1343.191
869,1.446233,1343.191
870,1.44785,1343.042
871,1.449517,1338.273
872,1.451183,1338.795
873,1.45285,1338.795
874,1.454517,1337.975
875,1.456183,1339.54
876,1.45785,1339.54
877,1.459517,1340.657
878,1.461183,1339.167
879,1.46285,1337.379
880,1.464517,1337.379
881,1.466167,1334.995
882,1.467833,1333.579
883,1.4695,1333.207
884,1.471167,1333.207
885,1.472833,1330.972
886,1.4745,1330.823
887,1.476167,1333.132
888,1.477833,1333.132
889,1.4795,1332.685
890,1.481167,1334.25
891,1.482833,1335.889
892,1.4845,1335.889
893,1.4862,1333.728
894,1.487833,1330.301
895,1.4895,1330.301
896,1.491167,1329.556
897,1.492833,1325.235
898,1.4945,1322.18
899,1.496167,1322.18
900,1.497833,1322.553
901,1.4995,1319.2
902,1.501167,1320.168
903,1.502833,1320.168
904,1.5045,1322.702
905,1.506167,1322.776
906,1.507833,1323.372
907,1.5095,1323.372
908,1.511167,1321.51
909,1.512833,1318.008
910,1.5145,1318.008
911,1.516167,1318.231
912,1.517833,1319.796
913,1.5195,1319.274
914,1.521233,1319.274
915,1.522817,1321.733
916,1.524483,1322.553
917,1.52615,1319.945
918,1.5278,1319.945
919,1.529467,1319.423
920,1.531133,1319.2
921,1.5328,1316.369
922,1.534467,1316.369
923,1.536133,1317.114
924,1.537917,1318.678
