"ID","sea_time","fid_signal"
1,0,37.466
2,0.001667,37.466
3,0.003333,37.476
4,0.005,37.476
5,0.006667,37.49
6,0.008333,37.413
7,0.01,37.273
8,0.011667,37.273
9,0.013333,37.159
10,0.015,37.089
11,0.016667,37.148
12,0.018333,37.148
13,0.02,37.313
14,0.021667,37.45
15,0.023333,37.45
16,0.025,37.539
17,0.026667,37.531
18,0.0284,37.488
19,0.03,37.488
20,0.031667,37.487
21,0.033333,37.46
22,0.035,37.476
23,0.036667,37.476
24,0.038333,37.491
25,0.040017,37.491
26,0.0417,37.491
27,0.043317,37.491
28,0.045017,37.503
29,0.04665,37.504
30,0.048317,37.504
31,0.049983,37.477
32,0.05165,37.47
33,0.053317,37.475
34,0.054983,37.475
35,0.05665,37.479
36,0.058317,37.473
37,0.059983,37.476
38,0.06175,37.476
39,0.063317,37.497
40,0.064983,37.502
41,0.06665,37.499
42,0.068317,37.499
43,0.069983,37.503
44,0.07165000000000001,37.461
45,0.07331699999999999,37.461
46,0.07498299999999999,37.447
47,0.07665,37.437
48,0.078317,37.456
49,0.079983,37.456
50,0.08165,37.514
51,0.083317,37.525
52,0.084983,37.555
53,0.08665,37.555
54,0.08831700000000001,37.526
55,0.08998299999999999,37.482
56,0.09165,37.488
57,0.093317,37.488
58,0.094983,37.476
59,0.09665,37.473
60,0.098317,37.488
61,0.099983,37.488
62,0.10165,37.482
63,0.103317,37.483
64,0.104967,37.483
65,0.106633,37.51
66,0.1083,37.511
67,0.109967,37.545
68,0.111633,37.545
69,0.1133,37.544
70,0.114967,37.536
71,0.116633,37.508
72,0.1183,37.508
73,0.120033,37.472
74,0.121633,37.474
75,0.1233,37.461
76,0.124967,37.461
77,0.126633,37.475
78,0.1283,37.493
79,0.129967,37.493
80,0.131633,37.511
81,0.1333,37.523
82,0.134967,37.549
83,0.136633,37.549
84,0.1383,37.564
85,0.139967,37.554
86,0.141633,37.556
87,0.1433,37.556
88,0.144967,37.549
89,0.14665,37.512
90,0.1483,37.515
91,0.149967,37.515
92,0.151633,37.502
93,0.1533,37.486
94,0.154967,37.499
95,0.156633,37.499
96,0.1583,37.481
97,0.159967,37.487
98,0.161633,37.487
99,0.163383,37.502
100,0.16495,37.483
101,0.166617,37.458
102,0.168283,37.458
103,0.16995,37.45
104,0.171617,37.429
105,0.173283,37.462
106,0.17495,37.462
107,0.176617,37.512
108,0.178283,37.515
109,0.180067,37.506
110,0.181617,37.506
111,0.183283,37.493
112,0.18495,37.46
113,0.186617,37.46
114,0.188283,37.469
115,0.18995,37.503
116,0.191617,37.499
117,0.193283,37.499
118,0.19495,37.514
119,0.196683,37.506
120,0.198317,37.497
121,0.19995,37.497
122,0.201617,37.495
123,0.203283,37.488
124,0.20495,37.488
125,0.206617,37.488
126,0.208283,37.471
127,0.20995,37.465
128,0.211617,37.478
129,0.213283,37.478
130,0.21495,37.488
131,0.216617,37.49
132,0.218283,37.49
133,0.219933,37.517
134,0.2216,37.528
135,0.223267,37.514
136,0.224917,37.514
137,0.226583,37.539
138,0.22825,37.522
139,0.229917,37.507
140,0.231583,37.507
141,0.23325,37.509
142,0.234917,37.479
143,0.236583,37.476
144,0.23825,37.476
145,0.239917,37.465
146,0.241583,37.453
147,0.24325,37.453
148,0.244917,37.455
149,0.246583,37.479
150,0.24825,37.479
151,0.249917,37.479
152,0.251583,37.497
153,0.25325,37.5
154,0.254917,37.494
155,0.256583,37.494
156,0.25825,37.506
157,0.259917,37.526
158,0.261583,37.546
159,0.26325,37.546
160,0.26495,37.552
161,0.266583,37.583
162,0.26825,37.583
163,0.269917,37.587
164,0.271617,37.584
165,0.27325,37.59
166,0.274917,37.59
167,0.276583,37.587
168,0.27825,37.585
169,0.279917,37.592
170,0.28165,37.592
171,0.28325,37.592
172,0.2849,37.576
173,0.286567,37.586
174,0.288233,37.586
175,0.2899,37.611
176,0.291567,37.63
177,0.293233,37.687
178,0.2949,37.687
179,0.296567,37.761
180,0.298333,37.859
181,0.2999,37.859
182,0.301567,37.996
183,0.303233,38.136
184,0.3049,38.323
185,0.306567,38.323
186,0.308233,38.548
187,0.3099,38.782
188,0.311567,39.115
189,0.313233,39.115
190,0.315,39.474
191,0.316567,39.874
192,0.318233,40.375
193,0.3199,40.375
194,0.321567,40.934
195,0.323233,41.605
196,0.3249,41.605
197,0.326567,42.354
198,0.328233,43.22
199,0.3299,44.218
200,0.331567,44.218
201,0.333233,45.323
202,0.3349,46.594
203,0.336567,48.006
204,0.338233,48.006
205,0.3399,49.572
206,0.341583,51.307
207,0.343233,53.269
208,0.344883,53.269
209,0.34655,55.442
210,0.348217,57.85
211,0.349883,60.549
212,0.35155,60.549
213,0.353217,63.526
214,0.354883,66.852
215,0.35655,66.852
216,0.358217,70.545
217,0.359883,74.621
218,0.361567,79.14100000000001
219,0.363217,79.14100000000001
220,0.364883,84.134
221,0.36655,89.667
222,0.368217,95.801
223,0.369883,95.801
224,0.37155,102.594
225,0.373217,110.149
226,0.374883,118.475
227,0.37655,118.475
228,0.378217,127.676
229,0.379883,137.752
230,0.38155,137.752
231,0.383217,148.719
232,0.384883,160.621
233,0.38655,173.388
234,0.388217,173.388
235,0.389883,186.982
236,0.39155,201.283
237,0.393217,216.182
238,0.394883,216.182
239,0.39655,231.512
240,0.398217,247.097
241,0.399967,262.783
242,0.40155,262.783
243,0.403217,278.424
244,0.404883,293.862
245,0.406533,308.953
246,0.4082,308.953
247,0.409867,323.591
248,0.411533,337.631
249,0.4132,337.631
250,0.414867,351.01
251,0.416667,363.668
252,0.4182,375.525
253,0.419867,375.525
254,0.421533,386.541
255,0.4232,396.7
256,0.424867,406.031
257,0.426533,406.031
258,0.4282,414.518
259,0.429867,422.223
260,0.431533,429.117
261,0.4333,429.117
262,0.434867,435.288
263,0.436533,440.75
264,0.4382,440.75
265,0.439883,445.536
266,0.441533,449.741
267,0.4432,453.296
268,0.444867,453.296
269,0.446533,456.296
270,0.4482,458.778
271,0.449867,460.717
272,0.451567,460.717
273,0.4532,462.223
274,0.454867,463.334
275,0.456533,464.023
276,0.4582,464.023
277,0.459867,464.408
278,0.461533,464.517
279,0.4632,464.517
280,0.464867,464.331
281,0.466517,463.869
282,0.468183,463.151
283,0.46985,463.151
284,0.471517,462.183
285,0.473183,460.99
286,0.47485,459.635
287,0.476517,459.635
288,0.478183,458.086
289,0.47985,456.374
290,0.481517,454.574
291,0.483183,454.574
292,0.484917,452.651
293,0.486517,450.622
294,0.488183,448.516
295,0.48985,448.516
296,0.491517,446.282
297,0.493183,443.967
298,0.49485,443.967
299,0.496517,441.594
300,0.498183,439.148
301,0.49985,436.658
302,0.501517,436.658
303,0.503183,434.143
304,0.50485,431.575
305,0.506517,428.945
306,0.5081830000000001,428.945
307,0.509833,426.261
308,0.5115,423.561
309,0.513167,420.862
310,0.514833,420.862
311,0.5165,418.136
312,0.518167,415.418
313,0.519833,415.418
314,0.5215,412.658
315,0.52315,409.897
316,0.524817,407.149
317,0.526517,407.149
318,0.5282,404.403
319,0.529817,401.61
320,0.531483,398.766
321,0.53315,398.766
322,0.534883,395.942
323,0.536483,393.103
324,0.53815,390.311
325,0.539817,390.311
326,0.541483,387.529
327,0.54315,384.73
328,0.544817,381.952
329,0.5464830000000001,381.952
330,0.54815,379.214
331,0.549817,376.473
332,0.551583,376.473
333,0.55315,373.755
334,0.554817,371.014
335,0.5564829999999999,368.233
336,0.55815,368.233
337,0.559817,365.509
338,0.5615329999999999,362.796
339,0.56315,360.078
340,0.564817,360.078
341,0.566483,357.379
342,0.56815,354.713
343,0.569817,352.03
344,0.571483,352.03
345,0.57315,349.391
346,0.574817,346.764
347,0.576483,346.764
348,0.5781500000000001,344.113
349,0.579817,341.498
350,0.581483,338.898
351,0.5831499999999999,338.898
352,0.5848,336.317
353,0.586467,333.761
354,0.588133,331.166
355,0.5898,331.166
356,0.591467,328.597
357,0.593133,326.056
358,0.5948,323.524
359,0.596467,323.524
360,0.598133,321.057
361,0.5998,318.598
362,0.601467,316.158
363,0.603133,316.158
364,0.6048,313.722
365,0.606467,311.319
366,0.608133,311.319
367,0.6098,308.922
368,0.611467,306.505
369,0.613133,304.13
370,0.6148670000000001,304.13
371,0.616467,301.723
372,0.618133,299.338
373,0.6198,296.996
374,0.621467,296.996
375,0.623133,294.653
376,0.6248,292.362
377,0.626467,290.089
378,0.6281330000000001,290.089
379,0.629817,287.835
380,0.631467,285.605
381,0.6331329999999999,285.605
382,0.6348,283.375
383,0.636483,281.148
384,0.638133,278.939
385,0.6398,278.939
386,0.641467,276.747
387,0.643133,274.602
388,0.644783,272.455
389,0.64645,272.455
390,0.6481170000000001,270.309
391,0.649783,268.18
392,0.65145,266.04
393,0.653133,266.04
394,0.654783,263.963
395,0.65645,261.93
396,0.658117,261.93
397,0.659783,259.919
398,0.66145,257.945
399,0.663117,255.958
400,0.664783,255.958
401,0.66645,253.967
402,0.668117,251.985
403,0.669883,250.027
404,0.67145,250.027
405,0.673117,248.092
406,0.674783,246.179
407,0.67645,244.266
408,0.678117,244.266
409,0.679783,242.358
410,0.68145,240.459
411,0.683117,238.577
412,0.684783,238.577
413,0.68645,236.725
414,0.688117,234.891
415,0.689783,234.891
416,0.69145,233.106
417,0.693117,231.326
418,0.694783,229.578
419,0.69645,229.578
420,0.698117,227.857
421,0.699783,226.102
422,0.70145,224.364
423,0.703133,224.364
424,0.704767,222.626
425,0.70645,220.884
426,0.7081499999999999,219.192
427,0.709767,219.192
428,0.711433,217.531
429,0.7131,215.884
430,0.714767,215.884
431,0.716433,214.293
432,0.7181,212.719
433,0.719767,211.123
434,0.721433,211.123
435,0.7231,209.561
436,0.7247670000000001,207.97
437,0.726433,206.424
438,0.7281,206.424
439,0.7297670000000001,204.909
440,0.731433,203.405
441,0.7331,201.917
442,0.7347669999999999,201.917
443,0.736433,200.406
444,0.7381,198.913
445,0.739767,197.437
446,0.741433,197.437
447,0.7431,195.974
448,0.744767,194.538
449,0.746433,194.538
450,0.7481,193.112
451,0.749767,191.695
452,0.751433,190.309
453,0.7531,190.309
454,0.754767,188.91
455,0.756433,187.545
456,0.7581,186.174
457,0.759767,186.174
458,0.761433,184.819
459,0.7631,183.523
460,0.76475,182.243
461,0.766417,182.243
462,0.768083,180.985
463,0.76975,179.721
464,0.7715,178.444
465,0.773083,178.444
466,0.77475,177.137
467,0.776417,175.839
468,0.7781,175.839
469,0.779833,174.604
470,0.781417,173.39
471,0.783083,172.219
472,0.7847499999999999,172.219
473,0.786417,171.045
474,0.788183,169.85
475,0.78975,168.668
476,0.791417,168.668
477,0.793083,167.485
478,0.79475,166.347
479,0.796417,165.19
480,0.798083,165.19
481,0.79975,164.031
482,0.8014,162.909
483,0.803067,162.909
484,0.804733,161.811
485,0.8064,160.714
486,0.808067,159.632
487,0.809733,159.632
488,0.8114,158.536
489,0.813067,157.441
490,0.814733,156.404
491,0.8164,156.404
492,0.818067,155.384
493,0.819733,154.371
494,0.8214,153.375
495,0.823067,153.375
496,0.824717,152.359
497,0.826383,151.332
498,0.82805,151.332
499,0.829717,150.36
500,0.831383,149.384
501,0.83305,148.407
502,0.834717,148.407
503,0.836383,147.453
504,0.83805,146.498
505,0.839717,145.538
506,0.841383,145.538
507,0.84305,144.566
508,0.8447170000000001,143.636
509,0.846417,142.684
510,0.84805,142.684
511,0.8497169999999999,141.753
512,0.851383,140.882
513,0.85305,140.882
514,0.8547169999999999,139.996
515,0.8564000000000001,139.127
516,0.85805,138.266
517,0.859717,138.266
518,0.861383,137.392
519,0.86305,136.537
520,0.864717,135.703
521,0.866383,135.703
522,0.86805,134.856
523,0.869717,134.017
524,0.871383,133.167
525,0.8731,133.167
526,0.874717,132.341
527,0.876383,131.549
528,0.87805,130.801
529,0.879717,130.801
530,0.881383,130.025
531,0.88305,129.247
532,0.8847,129.247
533,0.886367,128.465
534,0.888033,127.642
535,0.8897,126.871
536,0.891367,126.871
537,0.893033,126.106
538,0.8947000000000001,125.347
539,0.896367,124.625
540,0.898033,124.625
541,0.8997000000000001,123.922
542,0.901367,123.225
543,0.903033,122.533
544,0.9046999999999999,122.533
545,0.906467,121.812
546,0.908033,121.118
547,0.9097,121.118
548,0.911367,120.415
549,0.913033,119.723
550,0.9147,119.067
551,0.916367,119.067
552,0.918033,118.385
553,0.9197,117.727
554,0.921367,117.068
555,0.923033,117.068
556,0.9247,116.383
557,0.9264,115.732
558,0.928033,115.053
559,0.9297,115.053
560,0.9313669999999999,114.398
561,0.933033,113.78
562,0.9347,113.117
563,0.9363669999999999,113.117
564,0.938033,112.513
565,0.9397,111.908
566,0.941367,111.908
567,0.943017,111.292
568,0.944717,110.722
569,0.9464,110.138
570,0.948017,110.138
571,0.9496830000000001,109.539
572,0.95135,108.962
573,0.953017,108.36
574,0.9546829999999999,108.36
575,0.95635,107.785
576,0.958017,107.238
577,0.959683,106.7
578,0.96135,106.7
579,0.963017,106.157
580,0.964683,105.602
581,0.96635,105.602
582,0.968017,105.035
583,0.969683,104.466
584,0.97135,103.953
585,0.973017,103.953
586,0.974683,103.392
587,0.9763500000000001,102.866
588,0.978017,102.351
589,0.979683,102.351
590,0.9813499999999999,101.823
591,0.983017,101.325
592,0.984683,100.845
593,0.9863499999999999,100.845
594,0.988017,100.362
595,0.989683,99.88
596,0.991417,99.408
597,0.993017,99.408
598,0.994683,98.89100000000001
599,0.99635,98.398
600,0.9980329999999999,98.398
601,0.999683,97.887
602,1.00135,97.375
603,1.003017,96.91
604,1.004667,96.91
605,1.006333,96.447
606,1.008,96.004
607,1.009667,95.563
608,1.011333,95.563
609,1.013,95.137
610,1.014667,94.703
611,1.016333,94.241
612,1.018017,94.241
613,1.019667,93.821
614,1.021333,93.36499999999999
615,1.023,93.36499999999999
616,1.024767,92.92400000000001
617,1.026333,92.499
618,1.028,92.078
619,1.029667,92.078
620,1.031333,91.655
621,1.033,91.224
622,1.034667,90.801
623,1.036333,90.801
624,1.038033,90.364
625,1.039667,89.92700000000001
626,1.041333,89.511
627,1.043,89.511
628,1.044667,89.125
629,1.046333,88.749
630,1.048,88.41500000000001
631,1.049667,88.41500000000001
632,1.051333,88.044
633,1.053,87.68300000000001
634,1.054667,87.68300000000001
635,1.056333,87.32599999999999
636,1.058,86.94499999999999
637,1.059667,86.568
638,1.061333,86.568
639,1.063,86.15900000000001
640,1.06465,85.776
641,1.066317,85.36799999999999
642,1.067983,85.36799999999999
643,1.06965,85.006
644,1.071317,84.657
645,1.072983,84.26000000000001
646,1.07465,84.26000000000001
647,1.076367,83.92
648,1.077983,83.566
649,1.07965,83.566
650,1.081317,83.21599999999999
651,1.082983,82.886
652,1.08465,82.53
653,1.086317,82.53
654,1.087983,82.188
655,1.08965,81.855
656,1.091317,81.562
657,1.092967,81.562
658,1.094633,81.245
659,1.0963,80.94
660,1.097967,80.634
661,1.099633,80.634
662,1.1013,80.324
663,1.102967,80.002
664,1.104633,80.002
665,1.1063,79.693
666,1.107967,79.364
667,1.1097,79.027
668,1.1113,79.027
669,1.112967,78.729
670,1.114667,78.434
671,1.1163,78.158
672,1.117967,78.158
673,1.119633,77.873
674,1.1213,77.596
675,1.122967,77.28
676,1.124617,77.28
677,1.12635,76.997
678,1.12795,76.696
679,1.129617,76.395
680,1.131283,76.395
681,1.13295,76.104
682,1.134617,75.78400000000001
683,1.136283,75.78400000000001
684,1.13795,75.509
685,1.139617,75.226
686,1.141283,74.973
687,1.142967,74.973
688,1.144617,74.72199999999999
689,1.146283,74.47499999999999
690,1.14795,74.229
691,1.149617,74.229
692,1.151283,73.93600000000001
693,1.15295,73.66200000000001
694,1.154617,73.379
695,1.156283,73.379
696,1.15795,73.139
697,1.159717,72.925
698,1.161283,72.925
699,1.16295,72.68899999999999
700,1.164617,72.446
701,1.166283,72.172
702,1.16795,72.172
703,1.169617,71.91800000000001
704,1.171283,71.669
705,1.17295,71.437
706,1.174617,71.437
707,1.176283,71.193
708,1.17795,70.92700000000001
709,1.179617,70.688
710,1.181283,70.688
711,1.18295,70.41800000000001
712,1.1846,70.211
713,1.186267,70.044
714,1.187933,70.044
715,1.1896,69.852
716,1.191267,69.654
717,1.19295,69.654
718,1.1946,69.44
719,1.196267,69.18000000000001
720,1.197933,68.923
721,1.1996,68.923
722,1.201283,68.693
723,1.202933,68.431
724,1.2046,68.19499999999999
725,1.206267,68.19499999999999
726,1.207933,67.976
727,1.2096,67.76300000000001
728,1.211267,67.553
729,1.212933,67.553
730,1.2146,67.366
731,1.2163,67.15900000000001
732,1.217933,67.15900000000001
733,1.2196,66.977
734,1.221267,66.786
735,1.222933,66.613
736,1.2246,66.613
737,1.226267,66.43899999999999
738,1.227933,66.206
739,1.2296,66.005
740,1.231267,66.005
741,1.232933,65.76300000000001
742,1.2346,65.54900000000001
743,1.236267,65.348
744,1.237933,65.348
745,1.2396,65.16500000000001
746,1.241267,64.974
747,1.242933,64.974
748,1.244683,64.78700000000001
749,1.24625,64.654
750,1.247917,64.5
751,1.249583,64.5
752,1.25125,64.349
753,1.252917,64.184
754,1.254583,63.961
755,1.25625,63.961
756,1.257917,63.767
757,1.259583,63.58
758,1.26125,63.412
759,1.262917,63.412
760,1.264583,63.252
761,1.26625,63.101
762,1.267917,62.921
763,1.269583,62.921
764,1.27125,62.715
765,1.272917,62.54
766,1.274583,62.54
767,1.27625,62.344
768,1.278033,62.162
769,1.279583,62.005
770,1.28125,62.005
771,1.282917,61.844
772,1.284583,61.692
773,1.28625,61.566
774,1.287917,61.566
775,1.289583,61.405
776,1.29125,61.255
777,1.29295,61.083
778,1.294583,61.083
779,1.296283,60.937
780,1.297917,60.806
781,1.299583,60.806
782,1.30125,60.664
783,1.302917,60.545
784,1.304567,60.385
785,1.306233,60.385
786,1.3079,60.26
787,1.309567,60.1
788,1.311233,59.927
789,1.3129,59.927
790,1.314567,59.772
791,1.316233,59.583
792,1.3179,59.453
793,1.319567,59.453
794,1.321233,59.269
795,1.3229,59.129
796,1.324567,58.973
797,1.326233,58.973
798,1.3279,58.792
799,1.329567,58.702
800,1.331233,58.702
801,1.3329,58.565
802,1.334567,58.444
803,1.336233,58.336
804,1.3379,58.336
805,1.339567,58.19
806,1.341233,58.039
807,1.3429,57.906
808,1.344567,57.906
809,1.346233,57.776
810,1.3479,57.632
811,1.349567,57.508
812,1.351233,57.508
813,1.3529,57.409
814,1.354567,57.282
815,1.356233,57.282
816,1.3579,57.206
817,1.359567,57.122
818,1.361233,56.981
819,1.362983,56.981
820,1.364567,56.834
821,1.366283,56.668
822,1.367883,56.511
823,1.36955,56.511
824,1.371217,56.374
825,1.372883,56.271
826,1.37455,56.144
827,1.376217,56.144
828,1.377883,56.033
829,1.37955,55.945
830,1.381217,55.835
831,1.382883,55.835
832,1.384533,55.727
833,1.3862,55.588
834,1.387867,55.588
835,1.389533,55.461
836,1.3912,55.341
837,1.392867,55.259
838,1.394533,55.259
839,1.396317,55.166
840,1.397867,55.059
841,1.399533,54.96
842,1.4012,54.96
843,1.402867,54.818
844,1.404533,54.698
845,1.4062,54.594
846,1.407867,54.594
847,1.409533,54.469
848,1.4112,54.359
849,1.412867,54.359
850,1.414533,54.266
851,1.4162,54.139
852,1.417867,54.055
853,1.419533,54.055
854,1.4212,53.956
855,1.422867,53.855
856,1.424517,53.775
857,1.426183,53.775
858,1.42785,53.676
859,1.429517,53.602
860,1.431183,53.485
861,1.43285,53.485
862,1.434567,53.382
863,1.436183,53.265
864,1.43785,53.265
865,1.439517,53.152
866,1.441183,53.088
867,1.44285,53.012
868,1.444517,53.012
869,1.446183,52.921
870,1.44785,52.837
871,1.449517,52.739
872,1.4512,52.739
873,1.452883,52.655
874,1.454517,52.609
875,1.456183,52.53
876,1.45785,52.53
877,1.459517,52.431
878,1.461183,52.338
879,1.46285,52.22
880,1.464517,52.22
881,1.466183,52.104
882,1.46785,52.024
883,1.469517,52.024
884,1.471183,51.942
885,1.47285,51.852
886,1.474517,51.76
887,1.476183,51.76
888,1.47785,51.661
889,1.479517,51.551
890,1.481233,51.46
891,1.482833,51.46
892,1.4845,51.405
893,1.486167,51.318
894,1.487833,51.23
895,1.4895,51.23
896,1.491167,51.142
897,1.492833,51.052
898,1.4945,51.052
899,1.496167,50.956
900,1.497833,50.897
901,1.4995,50.846
902,1.501183,50.846
903,1.502833,50.779
904,1.5045,50.714
905,1.506167,50.617
906,1.507833,50.617
907,1.5095,50.495
908,1.511167,50.41
909,1.512833,50.327
910,1.51455,50.327
911,1.516167,50.261
912,1.517833,50.231
913,1.5195,50.153
914,1.521167,50.153
915,1.522833,50.079
916,1.5245,50.007
917,1.526167,50.007
918,1.527833,49.905
919,1.5295,49.833
920,1.531167,49.769
921,1.532833,49.769
922,1.5345,49.695
923,1.536167,49.639
924,1.537833,49.563
925,1.5395,49.563
926,1.541167,49.514
927,1.542867,49.441
928,1.544483,49.37
929,1.54615,49.37
930,1.547817,49.309
931,1.549483,49.254
932,1.55115,49.254
933,1.552817,49.187
934,1.554483,49.123
935,1.55615,49.052
936,1.557817,49.052
937,1.559483,48.97
938,1.56115,48.921
939,1.562817,48.832
940,1.564483,48.832
941,1.56615,48.767
942,1.567817,48.684
943,1.569483,48.594
944,1.57115,48.594
945,1.57285,48.549
946,1.574483,48.465
947,1.57615,48.399
948,1.577817,48.399
949,1.579483,48.353
950,1.58115,48.266
951,1.582817,48.266
952,1.584483,48.212
953,1.58615,48.161
954,1.587817,48.095
955,1.589483,48.095
956,1.59115,48.078
957,1.592817,48.042
958,1.594483,47.996
959,1.59615,47.996
960,1.597817,47.92
961,1.599483,47.832
962,1.60115,47.76
963,1.602817,47.76
964,1.604467,47.709
965,1.606133,47.675
966,1.6078,47.675
967,1.609467,47.629
968,1.611133,47.581
969,1.6128,47.499
970,1.614467,47.499
971,1.61615,47.414
972,1.6178,47.336
973,1.619467,47.257
974,1.621133,47.257
