"ID","sea_time","fid_signal"
1,0,38.221
2,0.001667,38.221
3,0.003333,38.279
4,0.005,38.31
5,0.006667,38.297
6,0.008333,38.297
7,0.01,38.169
8,0.011667,37.95
9,0.013333,37.841
10,0.015,37.841
11,0.016683,37.833
12,0.018333,37.927
13,0.02,37.927
14,0.021667,38.102
15,0.023333,38.218
16,0.025,38.271
17,0.026683,38.271
18,0.028333,38.263
19,0.03,38.27
20,0.031667,38.266
21,0.03335,38.266
22,0.035,38.268
23,0.036667,38.283
24,0.038333,38.291
25,0.040017,38.291
26,0.041667,38.256
27,0.043333,38.215
28,0.045,38.215
29,0.046667,38.203
30,0.048333,38.181
31,0.050117,38.176
32,0.05165,38.176
33,0.053317,38.181
34,0.054983,38.178
35,0.0567,38.184
36,0.058317,38.184
37,0.059983,38.189
38,0.06165,38.225
39,0.063317,38.264
40,0.064983,38.264
41,0.06665,38.261
42,0.068317,38.262
43,0.069983,38.262
44,0.07165000000000001,38.23
45,0.07331699999999999,38.202
46,0.07498299999999999,38.233
47,0.07665,38.233
48,0.078317,38.236
49,0.079983,38.274
50,0.08165,38.305
51,0.083317,38.305
52,0.084983,38.287
53,0.08665,38.289
54,0.08831700000000001,38.255
55,0.08998299999999999,38.255
56,0.09165,38.216
57,0.093317,38.233
58,0.094983,38.221
59,0.09665,38.221
60,0.098317,38.208
61,0.099983,38.226
62,0.10165,38.226
63,0.103317,38.193
64,0.104983,38.211
65,0.10665,38.225
66,0.1083,38.225
67,0.109967,38.221
68,0.111633,38.256
69,0.1133,38.259
70,0.114983,38.259
71,0.116683,38.242
72,0.1183,38.21
73,0.119967,38.186
74,0.12165,38.186
75,0.1233,38.172
76,0.124967,38.208
77,0.126633,38.208
78,0.1283,38.263
79,0.129967,38.245
80,0.131633,38.257
81,0.1333,38.257
82,0.135033,38.27
83,0.136633,38.274
84,0.1383,38.321
85,0.139967,38.321
86,0.141633,38.323
87,0.1433,38.286
88,0.144967,38.282
89,0.146633,38.282
90,0.1483,38.261
91,0.149967,38.254
92,0.151633,38.252
93,0.1533,38.252
94,0.154967,38.216
95,0.156633,38.208
96,0.1583,38.208
97,0.159967,38.222
98,0.161617,38.271
99,0.163283,38.315
100,0.16495,38.315
101,0.166617,38.328
102,0.168367,38.306
103,0.169933,38.275
104,0.1716,38.275
105,0.173267,38.272
106,0.174933,38.297
107,0.1766,38.309
108,0.178267,38.309
109,0.179933,38.294
110,0.1816,38.296
111,0.183267,38.296
112,0.184933,38.256
113,0.1866,38.246
114,0.188267,38.254
115,0.189933,38.254
116,0.1916,38.201
117,0.193267,38.21
118,0.19495,38.242
119,0.19665,38.242
120,0.198267,38.227
121,0.199933,38.242
122,0.2016,38.221
123,0.203267,38.221
124,0.204933,38.187
125,0.2066,38.224
126,0.208267,38.227
127,0.209933,38.227
128,0.2116,38.268
129,0.213267,38.297
130,0.21495,38.297
131,0.2166,38.325
132,0.218267,38.339
133,0.219933,38.35
134,0.2216,38.35
135,0.223267,38.348
136,0.224933,38.324
137,0.2266,38.306
138,0.228267,38.306
139,0.229917,38.263
140,0.231583,38.242
141,0.23325,38.223
142,0.234917,38.223
143,0.236583,38.242
144,0.23825,38.277
145,0.239917,38.277
146,0.241583,38.294
147,0.24325,38.293
148,0.244917,38.316
149,0.246583,38.316
150,0.24825,38.324
151,0.249917,38.338
152,0.251583,38.344
153,0.253267,38.344
154,0.254917,38.332
155,0.256583,38.325
156,0.25825,38.335
157,0.259917,38.335
158,0.261583,38.368
159,0.26325,38.397
160,0.264917,38.397
161,0.266583,38.416
162,0.26825,38.453
163,0.269933,38.492
164,0.271583,38.492
165,0.27325,38.525
166,0.274917,38.544
167,0.276583,38.553
168,0.27825,38.553
169,0.279917,38.574
170,0.281583,38.605
171,0.28325,38.678
172,0.284917,38.678
173,0.2867,38.756
174,0.28825,38.805
175,0.2899,38.908
176,0.291567,38.908
177,0.293233,38.987
178,0.2949,39.086
179,0.296567,39.086
180,0.298233,39.27
181,0.2999,39.408
182,0.301567,39.636
183,0.303233,39.636
184,0.3049,39.927
185,0.306567,40.259
186,0.308233,40.773
187,0.3099,40.773
188,0.311567,41.481
189,0.313233,42.491
190,0.3149,43.921
191,0.316567,43.921
192,0.318233,45.885
193,0.3199,48.506
194,0.321567,48.506
195,0.323233,51.882
196,0.3249,56.129
197,0.326567,61.263
198,0.328233,61.263
199,0.3299,67.233
200,0.331567,73.946
201,0.333233,81.18000000000001
202,0.3349,81.18000000000001
203,0.336567,88.669
204,0.338233,96.089
205,0.339933,103.104
206,0.3416,103.104
207,0.343233,109.403
208,0.3449,114.72
209,0.346567,118.826
210,0.348233,118.826
211,0.349883,121.543
212,0.35155,122.853
213,0.353217,122.853
214,0.354883,122.71
215,0.35655,121.266
216,0.358217,118.686
217,0.359883,118.686
218,0.36155,115.118
219,0.363217,110.842
220,0.364883,106.05
221,0.36655,106.05
222,0.368217,100.94
223,0.369883,95.66200000000001
224,0.371617,90.374
225,0.373217,90.374
226,0.374883,85.182
227,0.37655,80.211
228,0.378217,80.211
229,0.379883,75.56
230,0.38155,71.247
231,0.383217,67.30800000000001
232,0.384883,67.30800000000001
233,0.38655,63.727
234,0.388217,60.511
235,0.389883,57.637
236,0.39155,57.637
237,0.393217,55.101
238,0.394883,52.881
239,0.39655,50.951
240,0.398217,50.951
241,0.399883,49.257
242,0.40155,47.776
243,0.403217,46.492
244,0.404983,46.492
245,0.40655,45.396
246,0.408217,44.467
247,0.409867,44.467
248,0.411533,43.671
249,0.4132,42.987
250,0.414867,42.394
251,0.416533,42.394
252,0.4182,41.871
253,0.419867,41.429
254,0.421617,41.042
255,0.4232,41.042
256,0.424867,40.715
257,0.426533,40.447
258,0.4282,40.214
259,0.429867,40.214
260,0.431533,40.005
261,0.4332,39.801
262,0.434867,39.801
263,0.436533,39.636
264,0.4382,39.545
265,0.439867,39.459
266,0.441533,39.459
267,0.443217,39.385
268,0.444867,39.341
269,0.446533,39.271
270,0.4482,39.271
271,0.449867,39.217
272,0.451533,39.195
273,0.453183,39.136
274,0.45485,39.136
275,0.456517,39.075
276,0.458183,39.043
277,0.45985,39.043
278,0.461517,38.995
279,0.463183,38.971
280,0.46485,38.946
281,0.466517,38.946
282,0.468183,38.901
283,0.469833,38.859
284,0.4715,38.846
285,0.473167,38.846
286,0.474833,38.825
287,0.4765,38.841
288,0.478167,38.867
289,0.479833,38.867
290,0.4815,38.855
291,0.4832,38.826
292,0.484833,38.806
293,0.4865,38.806
294,0.488167,38.777
295,0.489883,38.765
296,0.4915,38.765
297,0.493167,38.77
298,0.494833,38.743
299,0.4965,38.746
300,0.498167,38.746
301,0.499833,38.749
302,0.5014999999999999,38.727
303,0.503167,38.736
304,0.504833,38.736
305,0.5065,38.717
306,0.508167,38.709
307,0.509833,38.747
308,0.5115,38.747
309,0.513167,38.75
310,0.514833,38.77
311,0.5165,38.77
312,0.518167,38.746
313,0.519833,38.724
314,0.5215,38.714
315,0.523267,38.714
316,0.524833,38.698
317,0.5265,38.67
318,0.5281670000000001,38.669
319,0.529817,38.669
320,0.531483,38.67
321,0.53315,38.672
322,0.534817,38.698
323,0.536483,38.698
324,0.53815,38.678
325,0.539817,38.651
326,0.541483,38.633
327,0.54315,38.633
328,0.544817,38.632
329,0.5464830000000001,38.629
330,0.54815,38.629
331,0.549817,38.645
332,0.5514829999999999,38.663
333,0.55315,38.691
334,0.554817,38.691
335,0.5564829999999999,38.724
336,0.55815,38.75
337,0.559817,38.74
338,0.561517,38.74
339,0.56315,38.721
340,0.564817,38.699
341,0.566483,38.66
342,0.56815,38.66
343,0.569817,38.669
344,0.571483,38.683
345,0.573167,38.683
346,0.574817,38.687
347,0.576483,38.706
348,0.5781500000000001,38.656
349,0.579817,38.656
350,0.581483,38.633
351,0.5831499999999999,38.647
352,0.584817,38.651
353,0.586483,38.651
354,0.58815,38.676
355,0.5898,38.66
356,0.591467,38.631
357,0.593133,38.631
358,0.5948,38.612
359,0.596467,38.59
360,0.598133,38.594
361,0.5998,38.594
362,0.601467,38.591
363,0.603133,38.619
364,0.6048,38.619
365,0.606467,38.629
366,0.6082,38.628
367,0.6098,38.661
368,0.611467,38.661
369,0.613133,38.636
370,0.6148,38.64
371,0.616467,38.669
372,0.61815,38.669
373,0.6198,38.668
374,0.621467,38.659
375,0.623133,38.669
376,0.6248,38.669
377,0.626467,38.667
378,0.6281330000000001,38.661
379,0.6298,38.661
380,0.631467,38.698
381,0.6331329999999999,38.699
382,0.634867,38.675
383,0.636467,38.675
384,0.638133,38.65
385,0.6398,38.628
386,0.641567,38.619
387,0.643133,38.619
388,0.6448,38.632
389,0.646467,38.666
390,0.648133,38.678
391,0.649783,38.678
392,0.65145,38.701
393,0.6531169999999999,38.718
394,0.654783,38.718
395,0.65645,38.69
396,0.6582,38.669
397,0.659783,38.675
398,0.66145,38.675
399,0.663117,38.65
400,0.664817,38.656
401,0.66645,38.68
402,0.668117,38.68
403,0.669783,38.689
404,0.67145,38.694
405,0.673117,38.688
406,0.674783,38.688
407,0.67645,38.657
408,0.678117,38.653
409,0.679783,38.675
410,0.68145,38.675
411,0.683117,38.706
412,0.684783,38.736
413,0.68645,38.736
414,0.688117,38.736
415,0.689783,38.714
416,0.69145,38.689
417,0.693117,38.689
418,0.694783,38.677
419,0.69645,38.683
420,0.698117,38.698
421,0.699783,38.698
422,0.70145,38.724
423,0.703117,38.715
424,0.704783,38.712
425,0.70645,38.712
426,0.708117,38.711
427,0.7097830000000001,38.71
428,0.711483,38.725
429,0.7131,38.725
430,0.714767,38.708
431,0.716433,38.718
432,0.7181,38.718
433,0.719767,38.688
434,0.721433,38.678
435,0.7231,38.698
436,0.7247670000000001,38.698
437,0.726433,38.685
438,0.7281,38.728
439,0.7297670000000001,38.767
440,0.731433,38.767
441,0.7331,38.792
442,0.7347669999999999,38.821
443,0.736433,38.821
444,0.7381,38.821
445,0.739767,38.788
446,0.741433,38.754
447,0.743183,38.754
448,0.74475,38.725
449,0.746417,38.693
450,0.7480830000000001,38.705
451,0.74975,38.705
452,0.751417,38.695
453,0.7530829999999999,38.696
454,0.75475,38.688
455,0.756417,38.688
456,0.758083,38.671
457,0.759833,38.685
458,0.761417,38.696
459,0.763083,38.696
460,0.76475,38.747
461,0.766417,38.771
462,0.7680670000000001,38.771
463,0.769733,38.747
464,0.7714,38.755
465,0.7730669999999999,38.733
466,0.774733,38.733
467,0.776517,38.744
468,0.778067,38.78
469,0.779733,38.773
470,0.7814,38.773
471,0.783067,38.776
472,0.7847499999999999,38.767
473,0.78645,38.755
474,0.788067,38.755
475,0.789733,38.756
476,0.7914,38.753
477,0.793083,38.761
478,0.794733,38.761
479,0.7964,38.775
480,0.798067,38.755
481,0.799733,38.755
482,0.8014,38.763
483,0.803067,38.762
484,0.804733,38.76
485,0.8064,38.76
486,0.808067,38.767
487,0.809733,38.749
488,0.8114,38.721
489,0.813067,38.721
490,0.814733,38.721
491,0.8164,38.774
492,0.818067,38.793
493,0.819733,38.793
494,0.8214,38.806
495,0.823083,38.801
496,0.824767,38.801
497,0.8264,38.768
498,0.828067,38.787
499,0.829717,38.829
500,0.831383,38.829
501,0.83305,38.87
502,0.834717,38.902
503,0.836383,38.914
504,0.83805,38.914
505,0.839717,38.911
506,0.841383,38.874
507,0.84305,38.852
508,0.8447170000000001,38.852
509,0.846383,38.806
510,0.84805,38.756
511,0.8497169999999999,38.756
512,0.851417,38.733
513,0.85305,38.715
514,0.8547169999999999,38.729
515,0.856383,38.729
516,0.85805,38.777
517,0.859717,38.807
518,0.86145,38.82
519,0.86305,38.82
520,0.864717,38.816
521,0.866383,38.794
522,0.86805,38.795
523,0.869717,38.795
524,0.871383,38.826
525,0.87305,38.862
526,0.874717,38.882
527,0.876383,38.882
528,0.8780829999999999,38.879
529,0.879717,38.847
530,0.881383,38.847
531,0.88305,38.847
532,0.884717,38.834
533,0.886383,38.861
534,0.88805,38.861
535,0.8897,38.894
536,0.891367,38.864
537,0.893033,38.893
538,0.894767,38.893
539,0.896367,38.865
540,0.898033,38.861
541,0.8997000000000001,38.889
542,0.901367,38.889
543,0.903033,38.89
544,0.9046999999999999,38.908
545,0.906367,38.908
546,0.908033,38.899
547,0.9097,38.862
548,0.911367,38.818
549,0.913033,38.818
550,0.9147,38.79
551,0.9163829999999999,38.769
552,0.918033,38.78
553,0.9197,38.78
554,0.921367,38.791
555,0.923033,38.776
556,0.9247,38.785
557,0.9263670000000001,38.785
558,0.928033,38.78
559,0.929733,38.814
560,0.9313669999999999,38.862
561,0.933033,38.862
562,0.9347,38.856
563,0.9363669999999999,38.885
564,0.938033,38.885
565,0.9397,38.878
566,0.941367,38.864
567,0.943033,38.872
568,0.9447,38.872
569,0.946367,38.873
570,0.948033,38.859
571,0.9496830000000001,38.844
572,0.95135,38.844
573,0.953017,38.861
574,0.9546829999999999,38.836
575,0.95635,38.828
576,0.958017,38.828
577,0.959683,38.827
578,0.96135,38.803
579,0.963017,38.803
580,0.964683,38.797
581,0.96635,38.796
582,0.968017,38.808
583,0.969683,38.808
584,0.97135,38.815
585,0.973017,38.812
586,0.974683,38.801
587,0.9763500000000001,38.801
588,0.978017,38.784
589,0.979683,38.802
590,0.9813499999999999,38.814
591,0.983017,38.814
592,0.984683,38.852
593,0.9863499999999999,38.856
594,0.988017,38.828
595,0.989683,38.828
596,0.99135,38.819
597,0.993017,38.787
598,0.994683,38.787
599,0.9964,38.797
600,0.998017,38.807
601,0.999683,38.794
602,1.00135,38.794
603,1.00305,38.77
604,1.004683,38.764
605,1.00635,38.757
606,1.008017,38.757
607,1.009667,38.775
608,1.011333,38.813
609,1.013133,38.825
610,1.014667,38.825
611,1.016333,38.826
612,1.018,38.827
613,1.019667,38.827
614,1.02135,38.821
615,1.023,38.807
616,1.024667,38.815
617,1.026333,38.815
618,1.028,38.838
619,1.029667,38.865
620,1.031333,38.896
621,1.033,38.896
622,1.034667,38.919
623,1.036317,38.902
624,1.037983,38.864
625,1.03965,38.864
626,1.041317,38.829
627,1.042983,38.829
628,1.04465,38.829
629,1.046317,38.861
630,1.047983,38.896
631,1.04965,38.906
632,1.051317,38.906
633,1.052983,38.89
634,1.05465,38.844
635,1.056317,38.818
636,1.057983,38.818
637,1.05965,38.841
638,1.061317,38.832
639,1.062983,38.832
640,1.06465,38.832
641,1.066317,38.826
642,1.067983,38.826
643,1.069633,38.822
644,1.071333,38.822
645,1.073017,38.823
646,1.074683,38.802
647,1.0763,38.802
648,1.077967,38.749
649,1.079633,38.733
650,1.0813,38.74
651,1.082967,38.74
652,1.084633,38.756
653,1.0863,38.782
654,1.087967,38.802
655,1.089633,38.802
656,1.0913,38.808
657,1.092967,38.812
658,1.094633,38.844
659,1.0963,38.844
660,1.098033,38.874
661,1.099633,38.866
662,1.1013,38.866
663,1.102967,38.871
664,1.104633,38.829
665,1.1063,38.799
666,1.107967,38.799
667,1.109633,38.789
668,1.1113,38.785
669,1.112967,38.823
670,1.114633,38.823
671,1.1163,38.854
672,1.117967,38.849
673,1.119633,38.847
674,1.1213,38.847
675,1.122967,38.81
676,1.124633,38.78
677,1.1263,38.799
678,1.12795,38.799
679,1.129617,38.797
680,1.13135,38.794
681,1.13295,38.794
682,1.134617,38.821
683,1.136283,38.839
684,1.13795,38.874
685,1.139617,38.874
686,1.141283,38.882
687,1.14295,38.841
688,1.144617,38.851
689,1.146283,38.851
690,1.14795,38.856
691,1.14965,38.869
692,1.1513,38.875
693,1.15295,38.875
694,1.154617,38.84
695,1.156283,38.813
696,1.15795,38.813
697,1.159617,38.798
698,1.161283,38.798
699,1.16295,38.81
700,1.164617,38.81
701,1.166283,38.806
702,1.16795,38.806
703,1.169617,38.793
704,1.171283,38.793
705,1.17295,38.754
706,1.174617,38.752
707,1.176283,38.764
708,1.17795,38.764
709,1.179617,38.8
710,1.181283,38.821
711,1.18295,38.794
712,1.184617,38.794
713,1.186283,38.759
714,1.18795,38.721
715,1.1896,38.721
716,1.191267,38.724
717,1.192933,38.764
718,1.1946,38.825
719,1.196283,38.825
720,1.197933,38.851
721,1.1996,38.847
722,1.201267,38.829
723,1.202933,38.829
724,1.2046,38.785
725,1.206267,38.754
726,1.207933,38.766
727,1.2096,38.766
728,1.211267,38.745
729,1.212933,38.752
730,1.2146,38.752
731,1.216317,38.771
732,1.217933,38.739
733,1.219633,38.755
734,1.221267,38.755
735,1.222933,38.776
736,1.2246,38.777
737,1.226267,38.794
738,1.227933,38.794
739,1.2296,38.788
740,1.231267,38.76
741,1.232933,38.78
742,1.2346,38.78
743,1.236267,38.782
744,1.237933,38.785
745,1.2396,38.804
746,1.241267,38.804
747,1.242933,38.785
748,1.2446,38.808
749,1.246267,38.808
750,1.247933,38.81
751,1.24965,38.79
752,1.25125,38.789
753,1.252917,38.789
754,1.254583,38.774
755,1.25625,38.778
756,1.257917,38.784
757,1.259583,38.784
758,1.26125,38.777
759,1.262917,38.776
760,1.264583,38.773
761,1.26625,38.773
762,1.267917,38.76
763,1.269583,38.729
764,1.27125,38.729
765,1.272917,38.727
766,1.274583,38.727
767,1.27625,38.715
768,1.277917,38.715
769,1.279583,38.72
770,1.28125,38.729
771,1.282917,38.756
772,1.284583,38.756
773,1.28625,38.8
774,1.287917,38.827
775,1.289583,38.832
776,1.291267,38.832
777,1.292917,38.807
778,1.294583,38.79
779,1.29625,38.79
780,1.297917,38.812
781,1.299583,38.826
782,1.30125,38.818
783,1.30295,38.818
784,1.304583,38.809
785,1.30625,38.795
786,1.307917,38.761
787,1.309583,38.761
788,1.311233,38.774
789,1.3129,38.772
790,1.314567,38.753
791,1.316233,38.753
792,1.3179,38.755
793,1.319567,38.745
794,1.321233,38.779
795,1.3229,38.779
796,1.324567,38.785
797,1.326233,38.794
798,1.327883,38.794
799,1.32955,38.794
800,1.331217,38.736
801,1.332883,38.715
802,1.3346,38.715
803,1.336217,38.706
804,1.337883,38.702
805,1.33955,38.73
806,1.341217,38.73
807,1.342883,38.742
808,1.34455,38.72
809,1.346217,38.724
810,1.347883,38.724
811,1.34955,38.722
812,1.351217,38.722
813,1.352883,38.722
814,1.35455,38.715
815,1.356217,38.716
816,1.357883,38.726
817,1.35955,38.726
818,1.361217,38.742
819,1.362883,38.774
820,1.364583,38.775
821,1.366217,38.775
822,1.368,38.769
823,1.369533,38.759
824,1.371217,38.774
825,1.372867,38.774
826,1.374533,38.796
827,1.3762,38.791
828,1.377867,38.806
829,1.379533,38.806
830,1.3812,38.796
831,1.382867,38.781
832,1.384533,38.781
833,1.3862,38.788
834,1.387867,38.775
835,1.389533,38.748
836,1.3912,38.748
837,1.392883,38.715
838,1.394533,38.71
839,1.3962,38.708
840,1.397867,38.708
841,1.399533,38.724
842,1.4012,38.73
843,1.402867,38.707
844,1.404533,38.707
845,1.4062,38.674
846,1.407867,38.656
847,1.409533,38.656
848,1.4112,38.657
849,1.412867,38.654
850,1.414533,38.68
851,1.4162,38.68
852,1.417867,38.666
853,1.419533,38.66
854,1.4212,38.651
855,1.422867,38.651
856,1.424533,38.664
857,1.4262,38.683
858,1.427867,38.689
859,1.429517,38.689
860,1.431183,38.731
861,1.43285,38.721
862,1.434567,38.741
863,1.436183,38.741
864,1.43785,38.733
865,1.439517,38.716
866,1.441183,38.716
867,1.44285,38.708
868,1.444517,38.672
869,1.446183,38.669
870,1.44785,38.669
871,1.449517,38.66
872,1.451183,38.675
873,1.45285,38.701
874,1.454517,38.701
875,1.456183,38.733
876,1.45785,38.744
877,1.459517,38.718
878,1.461183,38.718
879,1.46285,38.732
880,1.464517,38.725
881,1.466183,38.725
882,1.46785,38.732
883,1.469517,38.75
884,1.471217,38.724
885,1.47285,38.724
886,1.474517,38.718
887,1.476183,38.691
888,1.47785,38.668
889,1.479517,38.668
890,1.481183,38.669
891,1.48285,38.667
892,1.484517,38.677
893,1.4863,38.677
894,1.48785,38.704
895,1.4895,38.718
896,1.491167,38.718
897,1.492833,38.721
898,1.4945,38.71
899,1.496167,38.691
900,1.497833,38.691
901,1.4995,38.673
902,1.501167,38.65
903,1.502967,38.654
904,1.5045,38.654
905,1.506167,38.65
906,1.507833,38.682
907,1.509517,38.711
908,1.511167,38.711
909,1.512833,38.73
910,1.5145,38.728
911,1.516167,38.7
912,1.517833,38.7
913,1.5195,38.667
914,1.521167,38.645
915,1.522833,38.645
916,1.5245,38.646
917,1.526167,38.666
918,1.527833,38.679
919,1.5295,38.679
920,1.531167,38.697
921,1.532833,38.712
922,1.5345,38.718
923,1.536167,38.718
924,1.537833,38.737
925,1.5395,38.717
926,1.541167,38.703
927,1.542833,38.703
928,1.5445,38.666
929,1.546167,38.638
930,1.547833,38.638
931,1.549483,38.633
932,1.55115,38.628
933,1.55285,38.636
934,1.554517,38.636
935,1.55615,38.66
936,1.557817,38.68
937,1.559483,38.69
938,1.56115,38.69
939,1.562817,38.71
940,1.564483,38.68
941,1.56615,38.669
942,1.567817,38.669
943,1.569483,38.67
944,1.571167,38.644
945,1.572817,38.673
946,1.574483,38.673
947,1.576167,38.672
948,1.57785,38.655
949,1.579483,38.655
950,1.58115,38.657
951,1.582817,38.66
952,1.584483,38.679
953,1.58615,38.679
954,1.5879,38.682
955,1.589483,38.676
956,1.59115,38.643
957,1.592817,38.643
958,1.594483,38.654
959,1.59615,38.674
960,1.597817,38.711
961,1.599483,38.711
962,1.60115,38.73
963,1.602817,38.704
964,1.604583,38.671
965,1.60615,38.671
966,1.607817,38.639
967,1.609483,38.625
968,1.611133,38.625
969,1.6128,38.642
970,1.614467,38.642
971,1.616133,38.667
972,1.6178,38.667
973,1.61945,38.652
974,1.621233,38.621
975,1.622783,38.636
976,1.62445,38.636
977,1.626117,38.621
978,1.627783,38.628
979,1.62945,38.628
980,1.631117,38.639
981,1.632783,38.66
982,1.63445,38.646
983,1.636117,38.646
984,1.637783,38.641
985,1.63945,38.628
986,1.641117,38.608
987,1.642817,38.608
988,1.64445,38.628
989,1.646117,38.631
990,1.647783,38.638
991,1.64945,38.638
992,1.651117,38.638
993,1.652817,38.612
994,1.65445,38.642
995,1.656117,38.642
996,1.657783,38.646
997,1.65945,38.66
998,1.661117,38.66
999,1.662783,38.701
1000,1.66445,38.671
1001,1.666117,38.648
1002,1.667783,38.648
1003,1.669433,38.635
1004,1.6711,38.605
1005,1.672767,38.616
1006,1.674433,38.616
1007,1.6761,38.635
1008,1.677767,38.637
1009,1.679433,38.639
1010,1.6811,38.639
