"ID","sea_time","fid_signal"
1,0,1167.133
2,0.001667,1168.4
3,0.003333,1168.4
4,0.005067,1172.498
5,0.0067,1173.466
6,0.008333,1172.423
7,0.01,1172.423
8,0.01165,1169.518
9,0.013317,1164.004
10,0.014983,1162.291
11,0.01665,1162.291
12,0.018317,1162.812
13,0.019983,1164.302
14,0.02165,1164.302
15,0.023317,1170.188
16,0.024983,1172.796
17,0.02665,1175.18
18,0.028317,1175.18
19,0.029983,1173.466
20,0.03165,1172.125
21,0.033317,1174.212
22,0.034983,1174.212
23,0.03665,1175.329
24,0.038317,1176.223
25,0.039983,1172.647
26,0.04165,1172.647
27,0.043317,1167.282
28,0.044983,1166.388
29,0.04665,1166.388
30,0.048317,1167.208
31,0.049983,1169.22
32,0.05165,1171.306
33,0.053317,1171.306
34,0.054983,1171.678
35,0.05665,1172.498
36,0.058317,1172.945
37,0.059983,1172.945
38,0.061683,1173.913
39,0.063317,1171.902
40,0.064983,1168.996
41,0.06665,1168.996
42,0.068317,1168.177
43,0.069967,1167.506
44,0.071633,1167.282
45,0.0733,1167.282
46,0.07496700000000001,1169.667
47,0.07663300000000001,1170.71
48,0.07829999999999999,1170.71
49,0.079967,1173.094
50,0.081633,1174.957
51,0.083317,1175.106
52,0.084983,1175.106
53,0.086633,1173.988
54,0.0883,1171.008
55,0.090017,1170.635
56,0.09163300000000001,1170.635
57,0.09329999999999999,1171.604
58,0.094967,1171.976
59,0.096633,1171.678
60,0.0983,1171.678
61,0.099967,1169.22
62,0.101633,1167.133
63,0.1033,1167.133
64,0.104967,1167.879
65,0.106633,1170.933
66,0.1083,1175.106
67,0.109967,1175.106
68,0.111633,1176.298
69,0.1133,1176.894
70,0.114967,1176.894
71,0.116633,1176.894
72,0.1183,1172.2
73,0.119967,1172.051
74,0.121633,1172.2
75,0.123383,1172.2
76,0.124967,1170.486
77,0.126633,1173.466
78,0.1283,1173.466
79,0.12995,1174.807
80,0.131617,1173.466
81,0.133283,1176.074
82,0.13495,1176.074
83,0.136617,1175.776
84,0.138283,1172.945
85,0.13995,1172.945
86,0.141667,1172.945
87,0.143283,1172.572
88,0.14495,1172.87
89,0.146617,1174.807
90,0.148283,1174.807
91,0.14995,1174.063
92,0.151617,1170.039
93,0.153283,1167.58
94,0.15495,1167.58
95,0.156617,1165.196
96,0.158283,1168.624
97,0.15995,1168.624
98,0.161617,1170.635
99,0.163283,1171.678
100,0.16495,1171.529
101,0.166617,1171.529
102,0.168283,1170.933
103,0.16995,1171.529
104,0.171617,1174.137
105,0.173317,1174.137
106,0.17495,1176.521
107,0.176617,1176.149
108,0.178283,1174.286
109,0.17995,1174.286
110,0.181617,1171.976
111,0.183283,1169.741
112,0.18495,1169.741
113,0.186617,1165.42
114,0.188267,1166.165
115,0.189917,1164.302
116,0.191583,1164.302
117,0.19325,1164.377
118,0.194917,1165.196
119,0.196583,1162.887
120,0.19825,1162.887
121,0.199917,1164.377
122,0.201583,1164.004
123,0.20325,1164.973
124,0.204917,1164.973
125,0.206617,1168.922
126,0.2083,1167.208
127,0.209917,1169.294
128,0.211583,1169.294
129,0.21325,1171.455
130,0.214917,1168.549
131,0.216583,1168.549
132,0.21825,1169.369
133,0.219917,1167.432
134,0.221583,1165.345
135,0.22325,1165.345
136,0.224983,1169.22
137,0.226583,1171.604
138,0.22825,1174.733
139,0.229917,1174.733
140,0.231583,1177.266
141,0.23325,1176.894
142,0.234917,1177.564
143,0.236583,1177.564
144,0.23825,1175.404
145,0.239917,1175.925
146,0.241667,1175.255
147,0.24325,1175.255
148,0.244917,1171.529
149,0.246583,1173.392
150,0.248233,1173.392
151,0.2499,1173.69
152,0.251567,1175.031
153,0.253233,1178.086
154,0.2549,1178.086
155,0.256567,1174.957
156,0.258233,1173.168
157,0.259917,1171.455
158,0.261567,1171.455
159,0.26325,1172.349
160,0.2649,1175.702
161,0.266567,1176.298
162,0.268233,1176.298
163,0.2699,1174.51
164,0.271567,1171.902
165,0.273233,1171.902
166,0.2749,1171.976
167,0.276567,1170.188
168,0.278233,1169.667
169,0.2799,1169.667
170,0.281567,1172.945
171,0.283233,1170.71
172,0.284933,1168.922
173,0.286567,1168.922
174,0.288233,1172.423
175,0.2899,1171.231
176,0.291567,1171.38
177,0.293233,1171.38
178,0.2949,1174.212
179,0.296567,1171.157
180,0.298233,1171.157
181,0.2999,1171.753
182,0.301567,1174.51
183,0.303233,1177.415
184,0.3049,1177.415
185,0.306567,1182.705
186,0.308233,1186.579
187,0.309883,1193.657
188,0.31155,1193.657
189,0.313217,1201.257
190,0.314883,1210.868
191,0.31655,1221.374
192,0.318217,1221.374
193,0.319883,1227.781
194,0.32155,1233.667
195,0.323217,1233.667
196,0.324883,1240.671
197,0.3266,1244.396
198,0.328217,1249.462
199,0.329883,1249.462
200,0.33155,1254.901
201,0.333217,1258.105
202,0.334883,1265.109
203,0.33655,1265.109
204,0.338217,1273.006
205,0.339883,1281.202
206,0.34155,1288.652
207,0.3433,1288.652
208,0.344883,1294.091
209,0.34655,1297.519
210,0.348217,1298.934
211,0.349883,1298.934
212,0.35155,1301.616
213,0.353217,1304.075
214,0.354883,1304.075
215,0.35655,1306.31
216,0.35825,1308.471
217,0.359983,1308.993
218,0.36155,1308.993
219,0.363217,1305.789
220,0.364883,1300.722
221,0.36655,1297.146
222,0.368217,1297.146
223,0.369867,1292.899
224,0.371533,1287.088
225,0.3732,1281.5
226,0.374867,1281.5
227,0.37665,1275.688
228,0.3782,1265.779
229,0.379867,1265.779
230,0.381533,1258.18
231,0.3832,1251.698
232,0.384867,1242.906
233,0.386533,1242.906
234,0.3882,1237.989
235,0.389867,1232.624
236,0.391533,1223.907
237,0.3932,1223.907
238,0.394867,1219.362
239,0.396533,1214.445
240,0.3982,1211.986
241,0.399867,1211.986
242,0.401533,1209.08
243,0.4032,1202.896
244,0.404867,1198.575
245,0.406533,1198.575
246,0.4082,1192.018
247,0.409867,1190.454
248,0.411533,1190.454
249,0.4132,1189.113
250,0.414867,1184.493
251,0.416533,1185.76
252,0.4182,1185.76
253,0.419867,1185.164
254,0.421533,1184.419
255,0.423217,1187.474
256,0.424867,1187.474
257,0.42655,1185.164
258,0.4282,1186.505
259,0.429867,1185.983
260,0.431517,1185.983
261,0.433183,1183.748
262,0.43485,1184.195
263,0.436517,1184.195
264,0.438183,1179.278
265,0.43985,1175.776
266,0.441517,1174.957
267,0.443183,1174.957
268,0.444867,1174.212
269,0.446517,1173.615
270,0.448183,1173.615
271,0.44985,1173.615
272,0.451517,1172.349
273,0.453183,1169.816
274,0.45485,1171.753
275,0.456517,1171.753
276,0.458183,1174.212
277,0.45985,1174.212
278,0.461583,1177.117
279,0.463183,1177.117
280,0.46485,1177.713
281,0.466517,1178.458
282,0.468183,1178.458
283,0.46985,1180.693
284,0.471517,1181.215
285,0.473183,1179.948
286,0.47485,1179.948
287,0.476517,1179.054
288,0.478233,1178.011
289,0.479833,1174.659
290,0.4815,1174.659
291,0.483167,1176.372
292,0.484833,1177.639
293,0.4865,1177.043
294,0.488167,1177.043
295,0.489817,1178.756
296,0.491483,1176.372
297,0.49315,1176.372
298,0.49495,1176
299,0.496483,1177.564
300,0.49815,1177.788
301,0.499817,1177.788
302,0.501483,1179.427
303,0.503183,1178.458
304,0.5049,1177.49
305,0.506483,1177.49
306,0.50815,1177.192
307,0.509817,1176.745
308,0.511483,1177.043
309,0.51315,1177.043
310,0.514817,1174.435
311,0.516483,1173.765
312,0.51815,1173.765
313,0.519817,1172.423
314,0.521483,1170.039
315,0.52315,1170.263
316,0.524817,1170.263
317,0.526483,1170.486
318,0.52815,1172.423
319,0.529817,1172.051
320,0.531483,1172.051
321,0.53315,1174.882
322,0.534817,1175.627
323,0.536483,1171.082
324,0.53815,1171.082
325,0.539817,1170.71
326,0.541483,1170.859
327,0.54315,1167.879
328,0.544817,1167.879
329,0.5464830000000001,1170.859
330,0.54815,1172.721
331,0.5498,1172.721
332,0.551467,1169.369
333,0.553133,1173.317
334,0.5548,1174.435
335,0.556467,1174.435
336,0.558133,1174.584
337,0.5598,1178.533
338,0.561467,1178.533
339,0.563167,1178.533
340,0.5648,1178.235
341,0.5664670000000001,1181.886
342,0.568183,1178.682
343,0.5698,1178.682
344,0.5714669999999999,1178.086
345,0.573167,1178.16
346,0.5748,1178.16
347,0.576467,1175.18
348,0.578133,1176.67
349,0.57985,1176.074
350,0.581467,1176.074
351,0.583133,1176.372
352,0.5848,1177.341
353,0.586467,1176.372
354,0.588133,1176.372
355,0.5898,1175.478
356,0.591467,1175.925
357,0.593133,1175.031
358,0.5948,1175.031
359,0.596517,1176.745
360,0.598133,1175.329
361,0.5998,1173.094
362,0.601467,1173.094
363,0.603133,1174.286
364,0.6048,1174.957
365,0.606467,1174.957
366,0.608133,1178.16
367,0.6098,1179.203
368,0.61145,1177.788
369,0.613233,1177.788
370,0.614783,1176.67
371,0.6164500000000001,1175.478
372,0.618117,1176.67
373,0.619783,1176.67
374,0.6214499999999999,1174.36
375,0.623117,1174.882
376,0.624783,1175.702
377,0.62645,1175.702
378,0.628117,1175.478
379,0.629783,1177.415
380,0.63145,1177.415
381,0.633117,1176.819
382,0.634783,1177.49
383,0.63645,1175.329
384,0.638117,1175.329
385,0.639783,1177.862
386,0.64145,1179.129
387,0.643117,1175.553
388,0.644783,1175.553
389,0.646483,1177.788
390,0.6481170000000001,1176.968
391,0.649783,1175.776
392,0.65145,1175.776
393,0.6531169999999999,1176.447
394,0.654783,1175.404
395,0.65645,1173.615
396,0.658133,1173.615
397,0.659783,1173.168
398,0.66145,1176
399,0.663117,1176
400,0.664783,1176.298
401,0.66645,1180.172
402,0.668117,1181.588
403,0.669783,1181.588
404,0.6714329999999999,1182.109
405,0.6731,1180.172
406,0.674767,1175.255
407,0.676433,1175.255
408,0.6781,1176.223
409,0.679767,1176
410,0.681433,1179.278
411,0.6831,1179.278
412,0.684767,1182.631
413,0.686433,1178.458
414,0.6881,1178.458
415,0.689767,1180.023
416,0.691433,1179.278
417,0.6931,1179.948
418,0.694767,1179.948
419,0.696433,1183.227
420,0.698133,1181.066
421,0.699767,1181.29
422,0.701433,1181.29
423,0.7030999999999999,1181.439
424,0.704767,1180.47
425,0.706433,1181.141
426,0.7081,1181.141
427,0.709767,1181.439
428,0.711433,1177.639
429,0.7131,1175.329
430,0.7148330000000001,1175.329
431,0.71645,1175.031
432,0.7181,1174.286
433,0.719783,1174.286
434,0.721433,1175.851
435,0.7231,1178.309
436,0.7247670000000001,1176.372
437,0.726433,1176.372
438,0.7281,1174.733
439,0.72975,1175.478
440,0.73155,1176.447
441,0.733083,1176.447
442,0.73475,1178.384
443,0.736417,1179.874
444,0.738083,1175.627
445,0.73975,1175.627
446,0.741417,1174.435
447,0.743083,1171.157
448,0.74475,1171.157
449,0.746417,1171.604
450,0.7480830000000001,1175.255
451,0.749783,1173.466
452,0.751417,1173.466
453,0.7530829999999999,1174.957
454,0.75475,1175.851
455,0.756417,1177.266
456,0.758083,1177.266
457,0.75975,1180.693
458,0.761417,1179.799
459,0.763083,1178.905
460,0.76475,1178.905
461,0.766417,1180.023
462,0.768083,1178.98
463,0.769733,1178.98
464,0.7714,1181.588
465,0.7730669999999999,1180.619
466,0.774733,1177.49
467,0.7764,1177.49
468,0.778067,1175.627
469,0.779733,1174.212
470,0.7814,1175.925
471,0.783067,1175.925
472,0.784733,1174.957
473,0.7864,1176.596
474,0.788067,1176.372
475,0.789717,1176.372
476,0.7913829999999999,1175.627
477,0.793083,1177.49
478,0.794717,1175.031
479,0.796383,1175.031
480,0.79805,1175.627
481,0.799717,1175.478
482,0.801383,1175.478
483,0.80305,1175.925
484,0.804717,1177.043
485,0.806383,1174.584
486,0.80805,1174.584
487,0.809717,1175.404
488,0.811383,1172.274
489,0.8130500000000001,1172.125
490,0.814717,1172.125
491,0.81645,1174.957
492,0.8180500000000001,1174.807
493,0.819717,1177.49
494,0.821383,1177.49
495,0.8230499999999999,1181.215
496,0.82475,1181.513
497,0.826383,1181.513
498,0.82805,1182.035
499,0.829717,1178.607
500,0.831383,1173.243
501,0.83305,1173.243
502,0.834717,1169.294
503,0.836383,1167.282
504,0.83805,1170.486
505,0.839717,1170.486
506,0.841383,1173.243
507,0.84305,1174.212
508,0.8447170000000001,1174.584
509,0.846383,1174.584
510,0.84805,1172.274
511,0.8498329999999999,1173.615
512,0.851367,1178.16
513,0.853033,1178.16
514,0.8547,1178.682
515,0.856367,1179.65
516,0.858033,1179.65
517,0.8597,1176.894
518,0.861367,1175.404
519,0.8630330000000001,1176
520,0.8647,1176
521,0.866367,1174.51
522,0.8680330000000001,1176.894
523,0.869733,1178.309
524,0.871367,1178.309
525,0.8730329999999999,1178.16
526,0.8747,1180.47
527,0.876367,1182.035
528,0.878033,1182.035
529,0.8797,1180.619
530,0.881367,1180.321
531,0.883033,1180.321
532,0.8847,1180.47
533,0.886367,1178.384
534,0.888033,1176.968
535,0.8897,1176.968
536,0.891383,1173.988
537,0.893033,1174.137
538,0.8947000000000001,1173.839
539,0.896367,1173.839
540,0.898033,1171.902
541,0.8997000000000001,1175.627
542,0.901367,1176.298
543,0.903033,1176.298
544,0.9046999999999999,1176.596
545,0.906367,1176.968
546,0.908033,1176.968
547,0.9097,1175.329
548,0.91135,1176.894
549,0.913017,1174.957
550,0.914683,1174.957
551,0.91635,1174.882
552,0.918017,1174.286
553,0.919683,1173.168
554,0.92135,1173.168
555,0.923017,1175.851
556,0.924683,1178.756
557,0.92635,1179.203
558,0.928017,1179.203
559,0.929683,1180.246
560,0.93135,1179.427
561,0.933017,1176.447
562,0.934683,1176.447
563,0.9364,1176.894
564,0.938017,1176.968
565,0.939683,1176.968
566,0.94135,1177.341
567,0.943017,1176.894
568,0.9446830000000001,1174.36
569,0.94635,1174.36
570,0.948017,1169.518
571,0.9496830000000001,1167.953
572,0.951417,1170.337
573,0.953017,1170.337
574,0.9546829999999999,1173.168
575,0.95635,1175.031
576,0.958017,1173.988
577,0.959683,1173.988
578,0.96135,1171.306
579,0.963017,1168.549
580,0.964683,1168.549
581,0.96635,1169.816
582,0.9681,1169.443
583,0.969683,1172.945
584,0.971333,1172.945
585,0.973,1174.882
586,0.974667,1175.702
587,0.976333,1178.235
588,0.978,1178.235
589,0.979667,1178.235
590,0.981333,1178.309
591,0.983,1177.49
592,0.984667,1177.49
593,0.986333,1178.011
594,0.988,1177.192
595,0.989667,1177.713
596,0.991333,1177.713
597,0.993,1174.957
598,0.994667,1174.733
599,0.996333,1174.733
600,0.998,1175.776
601,0.999667,1176.447
602,1.00135,1177.788
603,1.003,1177.788
604,1.004667,1176.745
605,1.006333,1178.235
606,1.008,1180.097
607,1.009667,1180.097
608,1.011333,1180.917
609,1.013017,1181.811
610,1.014667,1181.215
611,1.016333,1181.215
612,1.018,1178.905
613,1.019667,1178.98
614,1.021333,1178.98
615,1.023,1178.16
616,1.024667,1176.223
617,1.026333,1173.243
618,1.028,1173.243
619,1.02965,1172.274
620,1.031317,1172.498
621,1.032983,1173.839
622,1.03465,1173.839
623,1.036317,1177.564
624,1.037983,1176.67
625,1.03965,1177.564
626,1.041317,1177.564
627,1.042983,1174.733
628,1.04465,1174.286
629,1.046317,1175.031
630,1.047983,1175.031
631,1.04965,1172.274
632,1.051317,1171.604
633,1.05305,1171.604
634,1.05465,1171.157
635,1.056317,1173.168
636,1.057983,1175.404
637,1.05965,1175.404
638,1.0613,1180.023
639,1.062967,1180.768
640,1.064633,1177.639
641,1.066317,1177.639
642,1.067967,1177.937
643,1.069633,1174.435
644,1.0713,1173.317
645,1.072967,1173.317
646,1.074633,1174.733
647,1.0763,1173.615
648,1.077967,1173.615
649,1.079633,1176.149
650,1.0813,1174.137
651,1.082967,1171.902
652,1.084633,1171.902
653,1.0864,1169.22
654,1.087967,1167.655
655,1.089633,1170.486
656,1.091283,1170.486
657,1.09295,1174.063
658,1.094617,1176.894
659,1.096283,1177.639
660,1.09795,1177.639
661,1.099617,1177.341
662,1.101283,1176.372
663,1.10295,1176.372
664,1.104617,1176.67
665,1.106283,1176.67
666,1.10795,1174.733
667,1.109617,1174.733
668,1.111283,1176.223
669,1.11295,1174.584
670,1.114617,1173.839
671,1.116283,1173.839
672,1.11795,1174.063
673,1.119617,1173.839
674,1.121283,1173.392
675,1.12295,1173.392
676,1.124617,1174.063
677,1.126283,1176.819
678,1.12795,1175.329
679,1.129617,1175.329
680,1.131283,1176.596
681,1.13295,1177.043
682,1.134617,1177.043
683,1.136283,1173.913
684,1.13795,1174.435
685,1.139617,1173.317
686,1.141283,1173.317
687,1.14295,1172.945
688,1.144617,1174.137
689,1.146283,1174.882
690,1.14795,1174.882
691,1.149617,1178.011
692,1.151267,1178.458
693,1.152933,1176.968
694,1.154617,1176.968
695,1.156317,1174.286
696,1.157933,1172.274
697,1.1596,1172.274
698,1.161267,1172.274
699,1.16295,1175.106
700,1.1646,1177.341
701,1.166267,1177.341
702,1.167933,1179.352
703,1.1696,1175.627
704,1.1713,1172.647
705,1.172933,1172.647
706,1.1746,1171.38
707,1.176267,1170.859
708,1.177933,1172.274
709,1.1796,1172.274
710,1.181267,1173.094
711,1.182933,1174.882
712,1.1846,1173.839
713,1.186267,1173.839
714,1.18805,1175.851
715,1.1896,1177.192
716,1.191267,1177.192
717,1.192933,1175.329
718,1.1946,1175.627
719,1.196267,1172.796
720,1.197933,1172.796
721,1.1996,1169.965
722,1.201267,1170.486
723,1.202933,1172.349
724,1.204717,1172.349
725,1.206267,1173.765
726,1.207933,1177.862
727,1.2096,1177.415
728,1.21125,1177.415
729,1.212917,1173.615
730,1.214583,1171.604
731,1.21625,1171.604
732,1.217917,1170.486
733,1.219583,1169.22
734,1.22135,1172.349
735,1.222917,1172.349
736,1.224583,1173.168
737,1.22625,1173.317
738,1.227917,1176.223
739,1.229583,1176.223
740,1.231267,1171.678
741,1.232917,1171.306
742,1.234583,1172.125
743,1.23625,1172.125
744,1.237917,1171.455
745,1.239583,1174.882
746,1.24125,1178.086
747,1.242917,1178.086
748,1.244583,1176.447
749,1.24625,1177.043
750,1.247917,1177.043
751,1.249583,1177.788
752,1.2513,1176.745
753,1.252917,1174.584
754,1.254583,1174.584
755,1.25625,1171.008
756,1.257917,1169.592
757,1.259583,1167.432
758,1.26125,1167.432
759,1.262917,1169.667
760,1.264583,1172.647
761,1.26625,1172.274
762,1.267917,1172.274
763,1.269567,1173.988
764,1.271233,1173.392
765,1.2729,1173.392
766,1.274567,1171.902
767,1.276233,1172.051
768,1.2779,1173.243
769,1.279567,1173.243
770,1.281233,1171.157
771,1.2829,1170.412
772,1.284567,1170.859
773,1.286233,1170.859
774,1.2879,1168.027
775,1.289567,1170.412
776,1.291233,1172.423
777,1.2929,1172.423
778,1.294583,1172.796
779,1.296233,1173.615
780,1.2979,1172.572
781,1.299567,1172.572
782,1.301233,1172.87
783,1.3029,1174.733
784,1.304567,1174.733
785,1.30635,1175.478
786,1.3079,1173.988
787,1.309567,1172.051
788,1.311233,1172.051
789,1.3129,1168.996
790,1.314567,1170.039
791,1.316233,1172.945
792,1.3179,1172.945
793,1.319567,1172.2
794,1.321233,1171.753
795,1.323,1171.902
796,1.324567,1171.902
797,1.326233,1172.647
798,1.3279,1171.902
799,1.329567,1171.902
800,1.331217,1171.976
801,1.332883,1168.4
802,1.33455,1165.718
803,1.336217,1165.718
804,1.337883,1169.071
805,1.339667,1168.549
806,1.341217,1169.816
807,1.342917,1169.816
808,1.34455,1171.231
809,1.346217,1170.784
810,1.347883,1172.274
811,1.34955,1172.274
812,1.351217,1172.274
813,1.352867,1170.188
814,1.354533,1170.188
815,1.3562,1168.102
816,1.357867,1167.953
817,1.359533,1167.804
818,1.3612,1167.804
819,1.362867,1172.423
820,1.364533,1174.36
821,1.3662,1175.702
822,1.367867,1175.702
823,1.369533,1178.831
824,1.3712,1177.862
825,1.372867,1178.309
826,1.374533,1178.309
827,1.3762,1175.255
828,1.377883,1172.423
829,1.379533,1171.455
830,1.3812,1171.455
831,1.382867,1170.933
832,1.384533,1174.137
833,1.3862,1174.137
834,1.387867,1175.627
835,1.389517,1173.094
836,1.391183,1170.114
837,1.39285,1170.114
838,1.394517,1168.698
839,1.396183,1168.251
840,1.39785,1170.635
841,1.399517,1170.635
842,1.401183,1174.286
843,1.40285,1173.839
844,1.404517,1175.106
845,1.406183,1175.106
846,1.407883,1172.945
847,1.409517,1170.188
848,1.411183,1170.188
849,1.41285,1169.071
850,1.414533,1166.686
851,1.416183,1169.294
852,1.41785,1169.294
853,1.419517,1172.572
854,1.421183,1172.572
855,1.42285,1172.349
856,1.424567,1172.349
857,1.426183,1171.38
858,1.42785,1171.753
859,1.429517,1171.529
860,1.431183,1171.529
861,1.43285,1173.466
862,1.434517,1174.51
863,1.436183,1170.859
864,1.43785,1170.859
865,1.439517,1172.274
866,1.441233,1171.827
867,1.44285,1171.827
868,1.444517,1169.741
869,1.446183,1169.965
870,1.44785,1171.231
871,1.449517,1171.231
872,1.451167,1172.2
873,1.452833,1173.988
874,1.4545,1175.851
875,1.456183,1175.851
876,1.45795,1174.435
877,1.4595,1175.404
878,1.461167,1175.404
879,1.462833,1175.404
880,1.4645,1173.913
881,1.466167,1173.019
882,1.467833,1173.019
883,1.469517,1170.412
884,1.471167,1172.051
885,1.472833,1175.478
886,1.4745,1175.478
887,1.476167,1177.639
888,1.477833,1179.054
889,1.4795,1175.925
890,1.481167,1175.925
891,1.482833,1173.839
892,1.4845,1171.604
893,1.486167,1169.592
894,1.487833,1169.592
895,1.4895,1172.423
896,1.491167,1172.2
897,1.492833,1173.839
898,1.4945,1173.839
899,1.496167,1175.255
900,1.497833,1173.392
901,1.4995,1173.392
902,1.501167,1175.106
903,1.502867,1174.659
904,1.5045,1176.223
905,1.506167,1176.223
906,1.507833,1176.894
907,1.5095,1176.521
908,1.51115,1177.192
909,1.512817,1177.192
910,1.514483,1174.733
911,1.51615,1173.466
912,1.517817,1170.337
913,1.519483,1170.337
914,1.521167,1168.102
915,1.522817,1168.922
916,1.524483,1168.922
917,1.52615,1168.922
918,1.527817,1169.89
919,1.529483,1169.667
920,1.53115,1169.667
921,1.532817,1167.804
922,1.534483,1166.463
