"ID","sea_time","fid_signal"
1,0,1172.87
2,0.001667,1172.87
3,0.003333,1172.498
4,0.005,1170.635
5,0.006667,1169.667
6,0.008333,1169.667
7,0.01,1166.09
8,0.011667,1166.09
9,0.013333,1166.09
10,0.015,1166.09
11,0.016667,1168.698
12,0.018333,1170.114
13,0.02,1168.549
14,0.021667,1168.549
15,0.023333,1171.008
16,0.025,1171.082
17,0.026667,1171.082
18,0.028333,1170.784
19,0.03,1170.188
20,0.03165,1167.879
21,0.033317,1167.879
22,0.034983,1164.749
23,0.03665,1167.059
24,0.038317,1166.537
25,0.039983,1166.537
26,0.041667,1166.537
27,0.043317,1167.506
28,0.045017,1164.898
29,0.04665,1164.898
30,0.048317,1165.494
31,0.049983,1164.153
32,0.051667,1163.185
33,0.053317,1163.185
34,0.054983,1163.706
35,0.05665,1163.408
36,0.0583,1163.408
37,0.059967,1166.984
38,0.061633,1165.867
39,0.0633,1164.749
40,0.064967,1164.749
41,0.066633,1164.526
42,0.0683,1162.589
43,0.069967,1163.706
44,0.071633,1163.706
45,0.0733,1163.557
46,0.07496700000000001,1165.718
47,0.07663300000000001,1168.4
48,0.07829999999999999,1168.4
49,0.079967,1171.976
50,0.08169999999999999,1172.945
51,0.0833,1172.945
52,0.084967,1171.231
53,0.086633,1169.667
54,0.0883,1165.345
55,0.08995,1165.345
56,0.091617,1164.675
57,0.093283,1167.133
58,0.09495000000000001,1169.369
59,0.09661699999999999,1169.369
60,0.098383,1170.337
61,0.09995,1173.243
62,0.101617,1172.721
63,0.103283,1172.721
64,0.10495,1171.231
65,0.106617,1170.114
66,0.108283,1170.114
67,0.10995,1166.612
68,0.111617,1164.749
69,0.113283,1164.228
70,0.11505,1164.228
71,0.116633,1165.941
72,0.118283,1168.102
73,0.11995,1167.655
74,0.121617,1167.655
75,0.123283,1167.729
76,0.12495,1167.059
77,0.126617,1165.718
78,0.128283,1165.718
79,0.12995,1167.059
80,0.131617,1167.208
81,0.133283,1170.263
82,0.13495,1170.263
83,0.136617,1171.008
84,0.138283,1168.996
85,0.139967,1168.996
86,0.141617,1170.859
87,0.143283,1170.188
88,0.14495,1171.827
89,0.146617,1171.827
90,0.148283,1174.659
91,0.14995,1171.157
92,0.1516,1168.251
93,0.153267,1168.251
94,0.154933,1168.027
95,0.1566,1166.537
96,0.158267,1168.326
97,0.159933,1168.326
98,0.1616,1171.157
99,0.163267,1169.22
100,0.164933,1169.22
101,0.1666,1168.549
102,0.168267,1166.016
103,0.169933,1163.632
104,0.1716,1163.632
105,0.173267,1162.812
106,0.174933,1161.769
107,0.1766,1162.887
108,0.178267,1162.887
109,0.179933,1162.216
110,0.1816,1163.185
111,0.183267,1166.165
112,0.18495,1166.165
113,0.1866,1167.953
114,0.188267,1167.58
115,0.189933,1167.282
116,0.1916,1167.282
117,0.193267,1165.494
118,0.194933,1164.451
119,0.1966,1164.451
120,0.198267,1168.4
121,0.199967,1170.412
122,0.2016,1171.753
123,0.203267,1171.753
124,0.204933,1171.38
125,0.2066,1168.922
126,0.208267,1166.984
127,0.209933,1166.984
128,0.211583,1166.463
129,0.21325,1167.282
130,0.214917,1168.177
131,0.216667,1168.177
132,0.21825,1167.729
133,0.219917,1164.898
134,0.221583,1164.898
135,0.223283,1163.11
136,0.224917,1162.514
137,0.226583,1165.569
138,0.22825,1165.569
139,0.229917,1170.263
140,0.231583,1170.337
141,0.23335,1173.317
142,0.234917,1173.317
143,0.236583,1170.486
144,0.23825,1171.827
145,0.239917,1178.384
146,0.241583,1178.384
147,0.24325,1180.321
148,0.244917,1186.877
149,0.246583,1192.093
150,0.24825,1192.093
151,0.250017,1198.724
152,0.251583,1210.272
153,0.25325,1210.272
154,0.254917,1228.228
155,0.256583,1245.886
156,0.25825,1269.057
157,0.259917,1269.057
158,0.261583,1295.507
159,0.263267,1322.851
160,0.264917,1359.06
161,0.266583,1359.06
162,0.26825,1396.164
163,0.269917,1439.601
164,0.271567,1488.775
165,0.273233,1488.775
166,0.2749,1540.408
167,0.276567,1597.553
168,0.278233,1597.553
169,0.2799,1658.946
170,0.281567,1727.343
171,0.283233,1800.284
172,0.2849,1800.284
173,0.286567,1880.974
174,0.288233,1964.793
175,0.2899,2057.85
176,0.291567,2057.85
177,0.293233,2160.221
178,0.2949,2267.733
179,0.296567,2387.688
180,0.298233,2387.688
181,0.2999,2515.018
182,0.301567,2652.705
183,0.303233,2652.705
184,0.304933,2805.218
185,0.306567,2969.652
186,0.308233,3145.337
187,0.3099,3145.337
188,0.311567,3337.264
189,0.313233,3545.433
190,0.3149,3771.558
191,0.316567,3771.558
192,0.318233,4024.282
193,0.3199,4310.161
194,0.321567,4642.68
195,0.323233,4642.68
196,0.3249,5045.757
197,0.326567,5554.631
198,0.328233,6213.709
199,0.3299,6213.709
200,0.33155,7074.177
201,0.333217,8197.725
202,0.334933,8197.725
203,0.33655,9631.962
204,0.338217,11417.344
205,0.339883,13577.044
206,0.34155,13577.044
207,0.343217,16087.145
208,0.344883,18881.037
209,0.34655,21837.354
210,0.348217,21837.354
211,0.349867,24778.844
212,0.3516,27499.422
213,0.3532,29792.414
214,0.354867,29792.414
215,0.356533,31492.934
216,0.3582,32492.279
217,0.359867,32492.279
218,0.361533,32754.316
219,0.3632,32320.098
220,0.364867,31274.26
221,0.366533,31274.26
222,0.3682,29744.953
223,0.369867,27878.209
224,0.371533,25811.047
225,0.3732,25811.047
226,0.374867,23664.162
227,0.376533,21537.244
228,0.3782,19499.361
229,0.379867,19499.361
230,0.381533,17597.525
231,0.3832,15854.984
232,0.384867,14272.332
233,0.386533,14272.332
234,0.3882,12852.698
235,0.389867,11577.085
236,0.39155,11577.085
237,0.393183,10440.722
238,0.39485,9429.753000000001
239,0.396517,8527.115
240,0.398183,8527.115
241,0.39985,7728.636
242,0.401517,7019.192
243,0.403183,6393.343
244,0.40485,6393.343
245,0.406517,5837.157
246,0.408183,5342.662
247,0.4099,4903.972
248,0.411517,4903.972
249,0.413183,4512.593
250,0.41485,4169.643
251,0.416517,4169.643
252,0.418183,3863.2
253,0.41985,3590.509
254,0.421517,3352.985
255,0.423183,3352.985
256,0.42485,3140.196
257,0.426517,2951.995
258,0.428183,2786.219
259,0.42985,2786.219
260,0.431517,2634.898
261,0.433183,2501.607
262,0.43485,2386.719
263,0.436517,2386.719
264,0.438183,2279.878
265,0.43985,2185.181
266,0.441517,2100.542
267,0.443183,2100.542
268,0.44485,2023.578
269,0.446517,1956.373
270,0.448183,1956.373
271,0.44985,1896.098
272,0.4515,1841.932
273,0.45325,1794.249
274,0.454833,1794.249
275,0.4565,1749.471
276,0.458167,1706.854
277,0.459833,1668.409
278,0.4615,1668.409
279,0.463167,1631.975
280,0.464833,1601.428
281,0.4665,1576.245
282,0.468167,1576.245
283,0.469883,1550.689
284,0.4715,1527.22
285,0.473167,1527.22
286,0.474833,1505.39
287,0.4765,1485.199
288,0.478167,1467.615
289,0.479833,1467.615
290,0.481533,1454.279
291,0.4832,1439.974
292,0.484833,1426.786
293,0.4866,1426.786
294,0.488167,1413.301
295,0.489833,1399.89
296,0.4915,1387.969
297,0.493167,1387.969
298,0.494833,1378.134
299,0.4965,1368.15
300,0.498167,1368.15
301,0.499833,1359.284
302,0.5014999999999999,1351.386
303,0.503167,1342.297
304,0.504833,1342.297
305,0.5065,1337.752
306,0.508167,1329.482
307,0.509833,1324.788
308,0.511483,1324.788
309,0.51315,1318.38
310,0.514817,1312.047
311,0.516483,1308.024
312,0.51815,1308.024
313,0.519817,1303.032
314,0.521483,1302.585
315,0.52315,1298.413
316,0.524817,1298.413
317,0.526483,1294.315
318,0.52815,1288.131
319,0.529817,1288.131
320,0.531483,1281.872
321,0.53315,1278.073
322,0.534817,1273.006
323,0.536483,1273.006
324,0.53815,1269.355
325,0.539817,1264.438
326,0.541483,1261.383
327,0.54315,1261.383
328,0.544817,1261.085
329,0.5464830000000001,1259.968
330,0.54815,1259.819
331,0.549817,1259.819
332,0.5515,1260.117
333,0.55315,1258.701
334,0.554817,1258.701
335,0.5564829999999999,1257.733
336,0.558167,1252.666
337,0.559817,1249.462
338,0.561483,1249.462
339,0.56315,1247.078
340,0.564817,1243.055
341,0.566483,1242.384
342,0.56815,1242.384
343,0.569817,1238.808
344,0.571483,1235.902
345,0.573133,1237.989
346,0.5748,1237.989
347,0.576467,1237.392
348,0.578133,1238.51
349,0.5798,1239.404
350,0.581467,1239.404
351,0.583133,1236.945
352,0.5848,1236.647
353,0.586467,1236.647
354,0.58815,1231.804
355,0.5898,1228.526
356,0.591467,1225.323
357,0.593133,1225.323
358,0.5948,1222.864
359,0.596467,1225.844
360,0.598133,1226.962
361,0.5998,1226.962
362,0.601467,1228.303
363,0.603133,1229.793
364,0.6049,1227.558
365,0.606467,1227.558
366,0.608133,1227.632
367,0.6098,1226.291
368,0.611467,1226.291
369,0.613133,1224.428
370,0.6148,1223.236
371,0.616467,1219.437
372,0.618133,1219.437
373,0.6198,1219.586
374,0.621467,1217.723
375,0.623133,1217.499
376,0.6248,1217.499
377,0.626467,1217.872
378,0.6281330000000001,1214.519
379,0.6298,1212.731
380,0.6315,1212.731
381,0.633117,1210.645
382,0.634783,1209.229
383,0.63645,1207.516
384,0.638117,1207.516
385,0.639783,1209.006
386,0.641433,1208.559
387,0.6431,1208.559
388,0.644767,1208.261
389,0.646433,1208.261
390,0.6481,1207.441
391,0.649767,1207.441
392,0.651467,1205.206
393,0.6531,1205.057
394,0.654767,1208.484
395,0.656433,1208.484
396,0.6581,1206.845
397,0.659767,1210.272
398,0.661433,1207.963
399,0.6631,1207.963
400,0.664767,1206.994
401,0.6664330000000001,1207.292
402,0.6681,1207.292
403,0.669767,1202.896
404,0.6714329999999999,1203.939
405,0.6731,1200.736
406,0.674767,1200.736
407,0.676433,1201.704
408,0.6781,1203.567
409,0.679767,1203.567
410,0.681433,1203.567
411,0.6831,1204.461
412,0.684767,1203.269
413,0.686433,1201.257
414,0.6881,1201.257
415,0.689833,1200.214
416,0.6914169999999999,1199.171
417,0.693083,1199.171
418,0.69475,1199.022
419,0.696417,1200.065
420,0.698083,1198.724
421,0.69975,1198.724
422,0.701433,1198.128
423,0.7031500000000001,1198.947
424,0.70475,1195.297
425,0.706417,1195.297
426,0.708083,1194.775
427,0.70975,1196.116
428,0.711417,1193.359
429,0.713083,1193.359
430,0.71475,1197.606
431,0.716417,1195.967
432,0.718083,1192.838
433,0.71975,1192.838
434,0.721417,1194.179
435,0.7232,1192.763
436,0.72475,1192.763
437,0.726417,1195.893
438,0.728083,1194.85
439,0.72975,1192.689
440,0.731417,1192.689
441,0.733083,1193.509
442,0.73475,1193.583
443,0.736417,1194.85
444,0.738083,1194.85
445,0.739767,1196.265
446,0.741417,1196.34
447,0.743083,1195.893
448,0.74475,1195.893
449,0.746417,1197.383
450,0.7480830000000001,1197.904
451,0.74975,1197.904
452,0.7514,1197.457
453,0.753067,1195.446
454,0.754733,1194.328
455,0.7564,1194.328
456,0.758067,1193.136
457,0.759733,1192.316
458,0.7614,1193.807
459,0.7630670000000001,1193.807
460,0.764733,1195.595
461,0.7664,1193.881
462,0.7680670000000001,1193.21
463,0.769733,1193.21
464,0.771417,1192.912
465,0.7730669999999999,1191.944
466,0.774733,1193.807
467,0.7764,1193.807
468,0.778067,1194.328
469,0.779733,1195.297
470,0.7814,1195.297
471,0.783067,1194.924
472,0.784733,1192.316
473,0.7864,1192.018
474,0.788067,1192.018
475,0.789733,1190.603
476,0.7914,1187.995
477,0.793067,1188.666
478,0.794733,1188.666
479,0.7964,1186.505
480,0.798067,1183.525
481,0.799733,1184.27
482,0.8014,1184.27
483,0.803067,1182.78
484,0.804733,1183.152
485,0.8064,1183.152
486,0.808117,1184.27
487,0.809733,1183.45
488,0.811383,1181.96
489,0.8130500000000001,1181.96
490,0.814717,1181.811
491,0.816383,1181.588
492,0.8180500000000001,1182.854
493,0.819717,1182.854
494,0.821383,1185.685
495,0.8230499999999999,1188.517
496,0.824733,1188.815
497,0.826383,1188.815
498,0.82805,1190.677
499,0.829717,1190.23
500,0.831383,1187.846
501,0.83305,1187.846
502,0.834717,1188.144
503,0.836383,1187.846
504,0.83805,1187.846
505,0.839717,1187.25
506,0.8414,1186.505
507,0.84305,1185.238
508,0.8447170000000001,1185.238
509,0.846383,1183.301
510,0.848067,1186.356
511,0.8497169999999999,1189.411
512,0.851383,1189.411
513,0.85305,1190.081
514,0.8547169999999999,1190.156
515,0.856383,1187.026
516,0.85805,1187.026
517,0.859717,1185.015
518,0.861383,1183.45
519,0.86305,1183.45
520,0.864717,1184.195
521,0.866383,1185.313
522,0.86805,1186.654
523,0.869717,1186.654
524,0.871367,1188.144
525,0.8730329999999999,1189.485
526,0.8747,1189.336
527,0.876367,1189.336
528,0.878033,1185.238
529,0.8797,1187.474
530,0.881367,1186.654
531,0.883033,1186.654
532,0.8847,1187.623
533,0.886367,1191.795
534,0.888033,1191.795
535,0.8897,1192.242
536,0.891367,1191.348
537,0.893033,1189.187
538,0.8947000000000001,1189.187
539,0.896367,1185.238
540,0.898033,1183.823
541,0.8997000000000001,1182.482
542,0.901367,1182.482
543,0.903033,1180.396
544,0.9046999999999999,1182.929
545,0.906417,1183.897
546,0.908033,1183.897
547,0.9097,1183.823
548,0.911417,1187.25
549,0.913033,1185.834
550,0.9147,1185.834
551,0.916367,1182.407
552,0.918033,1182.854
553,0.9197,1182.854
554,0.921367,1180.321
555,0.923033,1180.693
556,0.9247,1182.109
557,0.926417,1182.109
558,0.928033,1180.917
559,0.9297,1184.195
560,0.93135,1184.717
561,0.9330000000000001,1184.717
562,0.934667,1185.015
563,0.936333,1185.685
564,0.9379999999999999,1183.823
565,0.939667,1183.823
566,0.941333,1184.791
567,0.9431,1186.132
568,0.944667,1186.132
569,0.946333,1186.877
570,0.948,1186.877
571,0.949667,1185.015
572,0.951333,1185.015
573,0.953,1182.631
574,0.954667,1182.184
575,0.956333,1180.619
576,0.958,1180.619
577,0.9597830000000001,1180.396
578,0.961333,1180.992
579,0.963,1180.619
580,0.9646670000000001,1180.619
581,0.966333,1182.854
582,0.968,1181.811
583,0.9696669999999999,1180.545
584,0.971333,1180.545
585,0.973,1181.439
586,0.974667,1181.811
587,0.976333,1181.811
588,0.978,1182.407
589,0.979667,1178.905
590,0.981333,1178.905
591,0.983,1178.905
592,0.984667,1177.564
593,0.986333,1179.203
594,0.9880330000000001,1185.164
595,0.9897,1185.164
596,0.991317,1184.568
597,0.9929829999999999,1184.121
598,0.99465,1182.929
599,0.996317,1182.929
600,0.997983,1181.439
601,0.99965,1180.396
602,1.001317,1180.396
603,1.002983,1181.066
604,1.00465,1180.545
605,1.006317,1178.831
606,1.007983,1178.831
607,1.00965,1180.396
608,1.011317,1180.097
609,1.012983,1179.278
610,1.01465,1179.278
611,1.016317,1179.576
612,1.017983,1176.745
613,1.01965,1177.49
614,1.021317,1177.49
615,1.023,1179.799
616,1.02465,1180.172
617,1.026317,1183.748
618,1.027983,1183.748
619,1.02965,1179.576
620,1.031317,1177.341
621,1.032983,1177.341
622,1.03465,1179.203
623,1.036317,1177.862
624,1.037983,1181.737
625,1.03965,1181.737
626,1.041317,1181.141
627,1.042983,1179.278
628,1.044683,1177.862
629,1.046317,1177.862
630,1.047967,1176.149
631,1.04965,1177.713
632,1.0513,1176.968
633,1.052967,1176.968
634,1.054633,1178.011
635,1.0563,1181.96
636,1.058017,1181.96
637,1.059633,1182.854
638,1.0614,1186.207
639,1.062967,1187.623
640,1.064667,1187.623
641,1.0663,1187.176
642,1.067967,1187.995
643,1.069633,1185.164
644,1.0713,1185.164
645,1.072967,1181.364
646,1.074633,1177.937
647,1.0763,1177.266
648,1.078067,1177.266
649,1.079633,1178.309
650,1.0813,1179.65
651,1.082967,1179.65
652,1.084633,1180.768
653,1.0863,1179.874
654,1.087967,1178.309
655,1.089633,1178.309
656,1.0913,1177.639
657,1.092967,1176.298
658,1.094733,1172.87
659,1.0963,1172.87
660,1.097967,1174.212
661,1.099633,1174.733
662,1.1013,1172.647
663,1.102967,1172.647
664,1.104633,1174.435
665,1.1063,1173.317
666,1.107967,1173.466
667,1.109633,1173.466
668,1.111283,1175.404
669,1.11295,1175.106
670,1.114617,1175.106
671,1.116283,1175.553
672,1.11795,1176.372
673,1.119617,1176.745
674,1.121283,1176.745
675,1.12295,1178.086
676,1.124617,1178.011
677,1.126283,1177.862
678,1.12795,1177.862
679,1.129633,1178.086
680,1.131283,1178.011
681,1.13295,1176
682,1.134617,1176
683,1.136283,1173.839
684,1.13795,1176.149
685,1.139617,1176.149
686,1.141283,1176.149
687,1.14295,1178.682
688,1.144617,1180.097
689,1.146283,1180.097
690,1.147967,1181.364
691,1.149617,1183.227
692,1.151283,1182.258
693,1.15295,1182.258
694,1.154617,1182.78
695,1.156283,1178.98
696,1.15795,1177.713
697,1.159617,1177.713
698,1.161283,1178.607
699,1.16295,1178.384
700,1.164617,1176.745
701,1.166283,1176.745
702,1.16795,1176
703,1.169617,1174.659
704,1.171267,1174.659
705,1.172933,1173.988
706,1.1746,1175.776
707,1.176267,1176.298
708,1.177933,1176.298
709,1.179667,1175.925
710,1.181267,1176.298
711,1.182933,1177.788
712,1.1846,1177.788
713,1.186267,1177.49
714,1.187933,1176.596
715,1.1896,1174.733
716,1.191267,1174.733
717,1.192933,1173.839
718,1.1946,1172.423
719,1.196267,1172.423
720,1.197933,1172.87
721,1.1996,1175.329
722,1.2013,1173.615
723,1.202933,1173.615
724,1.2046,1174.882
725,1.206267,1176.298
726,1.207933,1176.074
727,1.2096,1176.074
728,1.211267,1175.851
729,1.21305,1173.243
730,1.2146,1173.69
731,1.216267,1173.69
732,1.217933,1173.765
733,1.2196,1175.255
734,1.221267,1175.702
735,1.222933,1175.702
736,1.224583,1172.721
737,1.22625,1170.71
738,1.227917,1170.71
739,1.229583,1171.082
740,1.231233,1173.392
741,1.2329,1172.498
742,1.234567,1172.498
743,1.236233,1173.392
744,1.2379,1173.466
745,1.239567,1171.082
746,1.24125,1171.082
747,1.2429,1173.69
748,1.244567,1175.553
749,1.246233,1176.372
750,1.2479,1176.372
751,1.249567,1176.223
752,1.251233,1175.329
753,1.2529,1175.329
754,1.254567,1175.553
755,1.256233,1173.615
756,1.2579,1174.286
757,1.259567,1174.286
758,1.261233,1176.447
759,1.2629,1176.223
760,1.264567,1173.988
761,1.266233,1173.988
762,1.2679,1175.478
763,1.269617,1174.733
764,1.271233,1172.87
765,1.2729,1172.87
766,1.274567,1175.553
767,1.276233,1176.447
768,1.2779,1176.447
769,1.279567,1177.639
770,1.281233,1178.458
771,1.2829,1181.439
772,1.284567,1181.439
773,1.286233,1181.066
774,1.2879,1180.619
775,1.289567,1181.811
776,1.291217,1181.811
777,1.292883,1179.352
778,1.29455,1178.235
779,1.296217,1177.415
780,1.297917,1177.415
781,1.29955,1173.765
782,1.301217,1170.859
783,1.302883,1170.114
784,1.30455,1170.114
785,1.306217,1169.443
786,1.307883,1170.412
787,1.30955,1170.412
788,1.311217,1175.106
789,1.312883,1177.192
790,1.314617,1177.639
791,1.316217,1177.639
792,1.317883,1177.862
793,1.31955,1173.69
794,1.321217,1173.615
795,1.322883,1173.615
796,1.324583,1173.615
797,1.326217,1175.776
798,1.327883,1176.074
799,1.32955,1176.074
800,1.331317,1173.317
801,1.332883,1173.615
802,1.33455,1173.615
803,1.336217,1172.796
804,1.337883,1171.678
805,1.33955,1172.349
806,1.341217,1172.349
807,1.342883,1171.827
808,1.34455,1171.827
809,1.346217,1172.647
810,1.347883,1172.647
811,1.349567,1173.913
812,1.3512,1174.137
813,1.352867,1173.988
814,1.354533,1173.988
815,1.3562,1176.372
816,1.357867,1176.223
817,1.359533,1174.957
818,1.3612,1174.957
819,1.362867,1172.721
820,1.364533,1168.922
821,1.3662,1168.922
822,1.367867,1167.506
823,1.369533,1170.561
824,1.3712,1175.329
825,1.372867,1175.329
826,1.374533,1179.427
827,1.3762,1180.321
828,1.377867,1180.246
829,1.379533,1180.246
830,1.3812,1177.788
831,1.382867,1177.49
832,1.384533,1176.968
833,1.3862,1176.968
834,1.387867,1176.968
835,1.389533,1174.807
836,1.3912,1174.807
837,1.392867,1175.106
838,1.394533,1176.745
839,1.3962,1178.011
840,1.397867,1178.011
841,1.399533,1182.631
842,1.4012,1182.035
843,1.4029,1182.854
844,1.404533,1182.854
845,1.4062,1179.203
846,1.407867,1177.266
847,1.409517,1178.011
848,1.411183,1178.011
849,1.41285,1174.659
850,1.414517,1176.67
851,1.41625,1174.659
852,1.41785,1174.659
853,1.419517,1174.659
854,1.421183,1179.129
855,1.42285,1179.129
856,1.424517,1177.564
857,1.4262,1180.47
858,1.42785,1179.65
859,1.429517,1179.65
860,1.431183,1175.925
861,1.432867,1174.36
862,1.434517,1170.635
863,1.436183,1170.635
864,1.43785,1171.157
865,1.439517,1175.255
866,1.441183,1174.957
867,1.44285,1174.957
868,1.444517,1177.713
869,1.446183,1175.031
870,1.44785,1175.031
871,1.449633,1171.157
872,1.451183,1171.082
873,1.45285,1167.655
874,1.454517,1167.655
875,1.456183,1166.835
876,1.45785,1166.165
877,1.459517,1169.89
878,1.461183,1169.89
879,1.46285,1173.094
880,1.464517,1175.106
881,1.466183,1176.67
882,1.46785,1176.67
883,1.469517,1173.541
884,1.471167,1171.753
885,1.472833,1171.753
886,1.4745,1170.933
887,1.476167,1171.231
888,1.477833,1171.976
889,1.4795,1171.976
890,1.481167,1172.87
891,1.482833,1172.87
892,1.4845,1170.486
893,1.486167,1170.486
894,1.487833,1173.466
895,1.4895,1172.498
896,1.491267,1173.317
897,1.492833,1173.317
898,1.4945,1173.913
899,1.496167,1171.529
900,1.497833,1174.137
901,1.4995,1174.137
902,1.501167,1174.51
903,1.502833,1175.702
904,1.5045,1175.702
905,1.506167,1174.584
906,1.507833,1173.094
907,1.5095,1173.541
908,1.511167,1173.541
909,1.512833,1174.212
910,1.514483,1173.69
911,1.51615,1173.392
912,1.517817,1173.392
913,1.519483,1173.019
914,1.52115,1172.945
915,1.522817,1174.51
916,1.524483,1174.51
917,1.52615,1173.094
918,1.527817,1174.36
919,1.529483,1174.36
920,1.531133,1174.063
921,1.5328,1173.765
