"ID","sea_time","fid_signal"
1,0,140.592
2,0.001667,140.764
3,0.003433,140.846
4,0.005,141.054
5,0.006667,141.054
6,0.008333,141.077
7,0.01,140.712
8,0.01165,140.712
9,0.013317,140.324
10,0.014983,139.885
11,0.01665,139.847
12,0.018317,139.847
13,0.019983,140.153
14,0.02165,140.496
15,0.023317,140.831
16,0.024983,140.831
17,0.026683,140.98
18,0.028317,140.816
19,0.029983,140.786
20,0.03165,140.786
21,0.033317,140.503
22,0.034983,140.525
23,0.03665,140.525
24,0.038317,140.488
25,0.039983,140.533
26,0.04165,140.615
27,0.043317,140.615
28,0.044983,140.622
29,0.04665,140.712
30,0.048317,140.674
31,0.050033,140.674
32,0.05165,140.503
33,0.053317,140.555
34,0.054983,140.704
35,0.05665,140.704
36,0.058317,140.674
37,0.059983,140.98
38,0.06165,140.674
39,0.063317,140.674
40,0.064983,140.458
41,0.06665,140.443
42,0.068317,140.443
43,0.069983,140.369
44,0.071633,140.369
45,0.0733,140.198
46,0.07496700000000001,140.198
47,0.07663300000000001,140.317
48,0.07829999999999999,140.242
49,0.079967,140.116
50,0.081633,140.116
51,0.0833,140.175
52,0.084967,140.227
53,0.086633,140.071
54,0.088367,140.071
55,0.08996700000000001,140.414
56,0.091667,140.488
57,0.09329999999999999,140.488
58,0.094967,140.242
59,0.096633,140.645
60,0.0983,140.451
61,0.099967,140.451
62,0.101633,140.533
63,0.1033,140.727
64,0.104967,140.66
65,0.106633,140.66
66,0.1083,140.905
67,0.109967,140.697
68,0.111633,140.518
69,0.1133,140.518
70,0.114967,140.324
71,0.116633,140.227
72,0.1183,140.287
73,0.119967,140.287
74,0.121733,140.339
75,0.1233,140.332
76,0.124967,140.332
77,0.126633,140.183
78,0.1283,140.19
79,0.129967,139.982
80,0.131617,139.982
81,0.133283,139.877
82,0.13495,139.758
83,0.136617,139.564
84,0.138283,139.564
85,0.13995,139.974
86,0.141617,140.019
87,0.143317,140.384
88,0.14495,140.384
89,0.146617,140.63
90,0.148283,140.324
91,0.14995,140.324
92,0.151617,140.563
93,0.153283,140.175
94,0.15495,140.235
95,0.156617,140.235
96,0.158283,140.429
97,0.15995,140.429
98,0.161617,141.01
99,0.163283,141.01
100,0.16495,140.816
101,0.166617,140.712
102,0.1683,140.466
103,0.16995,140.466
104,0.171617,140.272
105,0.173283,140.481
106,0.17495,140.51
107,0.176617,140.51
108,0.178283,140.66
109,0.17995,140.503
110,0.181617,140.503
111,0.183283,140.525
112,0.18495,140.794
113,0.186617,140.823
114,0.188283,140.823
115,0.18995,141.144
116,0.1916,141.226
117,0.193267,141.025
118,0.194933,141.025
119,0.1966,140.876
120,0.198267,140.436
121,0.199933,140.436
122,0.2016,140.436
123,0.203267,140.578
124,0.204933,141.025
125,0.206617,141.025
126,0.208267,141.472
127,0.209933,141.196
128,0.2116,141.062
129,0.213267,141.062
130,0.214933,140.734
131,0.2166,140.354
132,0.218267,140.369
133,0.219933,140.369
134,0.221617,140.443
135,0.223317,140.28
136,0.224933,140.309
137,0.2266,140.309
138,0.228267,140.503
139,0.229933,140.443
140,0.2316,140.607
141,0.233267,140.607
142,0.234933,140.786
143,0.2366,140.741
144,0.238267,140.741
145,0.239933,140.876
146,0.24165,141.196
147,0.243267,141.785
148,0.244933,141.785
149,0.2466,142.835
150,0.248267,144.109
151,0.249933,146.136
152,0.251583,146.136
153,0.25325,148.825
154,0.254917,152.64
155,0.2567,157.93
156,0.258233,157.93
157,0.2599,164.583
158,0.261567,173.248
159,0.263233,173.248
160,0.2649,183.724
161,0.266567,196.33
162,0.268233,211.284
163,0.2699,211.284
164,0.271567,228.36
165,0.273233,248.075
166,0.2749,270.925
167,0.276567,270.925
168,0.278233,296.995
169,0.2799,326.231
170,0.281567,359.446
171,0.283233,359.446
172,0.2849,395.924
173,0.286567,435.807
174,0.288233,435.807
175,0.2899,479.795
176,0.291567,527.099
177,0.293233,578.9400000000001
178,0.2949,578.9400000000001
179,0.296567,635.453
180,0.298233,696.451
181,0.2999,762.3579999999999
182,0.301567,762.3579999999999
183,0.30325,833.34
184,0.3049,909.813
185,0.306567,992.231
186,0.308233,992.231
187,0.3099,1081.102
188,0.31155,1176.67
189,0.313217,1279.369
190,0.314917,1279.369
191,0.31655,1389.645
192,0.318217,1508.169
193,0.319883,1508.169
194,0.32155,1635.343
195,0.323217,1771.994
196,0.324883,1918.726
197,0.32655,1918.726
198,0.328217,2076.395
199,0.329883,2246.499
200,0.33155,2429.761
201,0.333217,2429.761
202,0.334883,2628.423
203,0.33655,2844.46
204,0.338217,3080.301
205,0.339883,3080.301
206,0.341583,3340.147
207,0.343217,3627.77
208,0.344883,3627.77
209,0.34655,3947.169
210,0.348217,4300.706
211,0.349883,4688.382
212,0.35155,4688.382
213,0.353217,5107.917
214,0.354883,5552.307
215,0.35655,6010.741
216,0.3583,6010.741
217,0.359883,6469.764
218,0.36155,6912.313
219,0.363217,7321.768
220,0.364883,7321.768
221,0.36655,7682.815
222,0.368217,7981.576
223,0.369867,8208.744000000001
224,0.371533,8208.744000000001
225,0.3732,8358.77
226,0.374967,8429.915000000001
227,0.376533,8429.915000000001
228,0.3782,8425.191000000001
229,0.379867,8350.371999999999
230,0.381533,8213.184999999999
231,0.3832,8213.184999999999
232,0.384867,8023.262
233,0.386533,7790.401
234,0.3882,7524.341
235,0.389867,7524.341
236,0.391533,7234.268
237,0.3932,6928.697
238,0.394867,6614.67
239,0.396533,6614.67
240,0.3982,6297.611
241,0.399867,5982.458
242,0.401533,5982.458
243,0.4032,5672.634
244,0.404867,5370.893
245,0.406533,5079.604
246,0.4082,5079.604
247,0.409867,4800.126
248,0.411533,4533.306
249,0.4132,4279.532
250,0.414867,4279.532
251,0.41655,4039.154
252,0.4182,3812.35
253,0.419867,3598.891
254,0.421533,3598.891
255,0.4232,3398.448
256,0.424867,3210.254
257,0.426533,3210.254
258,0.4282,3033.794
259,0.42985,2868.243
260,0.431517,2713.33
261,0.433183,2713.33
262,0.43485,2568.469
263,0.436517,2432.749
264,0.438183,2305.426
265,0.43985,2305.426
266,0.441517,2186.432
267,0.4432,2075.024
268,0.44485,1970.671
269,0.446517,1970.671
270,0.448183,1873.471
271,0.44985,1782.469
272,0.451517,1696.974
273,0.453183,1696.974
274,0.45485,1616.85
275,0.456517,1541.674
276,0.458183,1541.674
277,0.459933,1470.99
278,0.461517,1404.673
279,0.463183,1342.446
280,0.46485,1342.446
281,0.46655,1283.974
282,0.468183,1228.653
283,0.46985,1176.678
284,0.471517,1176.678
285,0.473183,1127.623
286,0.47485,1081.146
287,0.47655,1037.516
288,0.478183,1037.516
289,0.47985,996.172
290,0.481517,957.228
291,0.483183,957.228
292,0.48485,920.4299999999999
293,0.486517,885.814
294,0.488183,852.987
295,0.489833,852.987
296,0.4915,821.65
297,0.4933,792.399
298,0.494833,764.504
299,0.4965,764.504
300,0.498167,737.98
301,0.499833,712.67
302,0.5014999999999999,688.419
303,0.503167,688.419
304,0.504833,665.016
305,0.5065,643.514
306,0.508167,623.479
307,0.509833,623.479
308,0.5115,604.1900000000001
309,0.513167,585.727
310,0.514833,585.727
311,0.5165,567.8390000000001
312,0.518167,550.598
313,0.519833,534.244
314,0.5215,534.244
315,0.523167,519.045
316,0.524833,504.516
317,0.5265,490.427
318,0.5281670000000001,490.427
319,0.529833,476.964
320,0.5315,464.112
321,0.5331669999999999,451.677
322,0.534833,451.677
323,0.536517,439.964
324,0.538167,428.967
325,0.539833,428.967
326,0.5415,418.551
327,0.543167,408.486
328,0.544833,398.964
329,0.5465,398.964
330,0.548183,389.71
331,0.549817,380.978
332,0.551467,372.633
333,0.553133,372.633
334,0.5548,364.542
335,0.556467,356.853
336,0.558133,349.142
337,0.5598,349.142
338,0.561467,341.907
339,0.563133,335.135
340,0.5648,328.533
341,0.5664670000000001,328.533
342,0.568133,322.32
343,0.5698,316.322
344,0.5714669999999999,316.322
345,0.573133,310.57
346,0.5748,304.833
347,0.576467,299.327
348,0.5782,299.327
349,0.5798,294.104
350,0.581467,288.963
351,0.583133,284.433
352,0.5848,284.433
353,0.586467,280.194
354,0.588133,275.895
355,0.5898,271.559
356,0.591483,271.559
357,0.593133,267.111
358,0.5948,262.864
359,0.596467,262.864
360,0.598133,258.818
361,0.5998,254.966
362,0.601467,251.524
363,0.603133,251.524
364,0.6048,247.777
365,0.606467,244.483
366,0.608133,241.466
367,0.6098,241.466
368,0.61155,238.642
369,0.613117,236.116
370,0.614783,233.33
371,0.6164500000000001,233.33
372,0.618117,230.528
373,0.619783,227.548
374,0.6214499999999999,227.548
375,0.623117,224.911
376,0.624783,222.392
377,0.62645,220.262
378,0.628117,220.262
379,0.629783,218.205
380,0.63145,215.985
381,0.633117,214.309
382,0.634783,214.309
383,0.63645,212.356
384,0.638117,210.449
385,0.6398,208.586
386,0.64145,208.586
387,0.643117,206.403
388,0.644783,204.563
389,0.64645,202.701
390,0.6481170000000001,202.701
391,0.649783,200.89
392,0.65145,199.169
393,0.6531169999999999,199.169
394,0.654783,197.642
395,0.65645,196.509
396,0.658117,195.183
397,0.659783,195.183
398,0.66145,194.095
399,0.663117,192.955
400,0.664783,191.42
401,0.66645,191.42
402,0.6681,190.213
403,0.669783,189.014
404,0.6714329999999999,187.643
405,0.6731,187.643
406,0.674767,186.235
407,0.676433,184.998
408,0.6781,184.998
409,0.679783,183.5
410,0.681467,182.189
411,0.6831,181.384
412,0.684767,181.384
413,0.686433,180.297
414,0.6881,179.574
415,0.689767,178.97
416,0.691433,178.97
417,0.6931,177.898
418,0.694767,177.138
419,0.6964669999999999,176.251
420,0.6981000000000001,176.251
421,0.699767,175.141
422,0.701433,174.426
423,0.7030999999999999,173.636
424,0.704767,173.636
425,0.706433,173.025
426,0.7081,172.339
427,0.709767,172.339
428,0.711433,171.877
429,0.713117,171.386
430,0.714767,170.7
431,0.716433,170.7
432,0.7181,170.022
433,0.719767,169.434
434,0.721433,168.748
435,0.7231,168.748
436,0.7248,168.033
437,0.726433,167.683
438,0.7281,166.945
439,0.729867,166.945
440,0.731433,166.468
441,0.733083,166.111
442,0.73475,166.111
443,0.736417,165.328
444,0.738083,165.001
445,0.73975,164.628
446,0.741417,164.628
447,0.743083,163.987
448,0.74475,163.727
449,0.746417,163.011
450,0.7480830000000001,163.011
451,0.74975,162.609
452,0.751417,162.162
453,0.7530829999999999,161.76
454,0.754783,161.76
455,0.756417,161.387
456,0.758083,160.724
457,0.75975,160.418
458,0.761417,160.418
459,0.763083,159.949
460,0.76475,159.815
461,0.766417,159.815
462,0.768083,159.651
463,0.76975,159.182
464,0.771417,158.913
465,0.773083,158.913
466,0.77475,158.392
467,0.776417,157.93
468,0.778083,157.572
469,0.7797500000000001,157.572
470,0.781417,157.155
471,0.783083,156.827
472,0.7847499999999999,156.477
473,0.786417,156.477
474,0.788083,156.47
475,0.789733,156.283
476,0.7914,156.283
477,0.793067,155.911
478,0.794733,155.792
479,0.7964,155.65
480,0.798067,155.65
481,0.79975,155.68
482,0.801433,155.538
483,0.803067,155.181
484,0.804733,155.181
485,0.8064,154.793
486,0.808067,154.339
487,0.809733,154.16
488,0.8114,154.16
489,0.813067,153.929
490,0.814783,153.728
491,0.8164,153.4
492,0.818067,153.4
493,0.81975,153.162
494,0.8214,152.998
495,0.823067,152.998
496,0.824733,152.722
497,0.826417,152.469
498,0.828067,152.253
499,0.8297330000000001,152.253
500,0.8314,152.253
501,0.833067,151.873
502,0.8347329999999999,151.746
503,0.8364,151.746
504,0.838067,151.575
505,0.839733,151.433
506,0.841383,151.463
507,0.84305,151.463
508,0.8447170000000001,151.485
509,0.846383,151.485
510,0.848133,151.008
511,0.8497169999999999,151.008
512,0.851367,150.606
513,0.853033,150.591
514,0.8547,150.591
515,0.856367,150.338
516,0.858033,150.189
517,0.8597,150.412
518,0.861367,150.412
519,0.8630330000000001,149.988
520,0.8647,149.988
521,0.866367,150.04
522,0.8680330000000001,150.04
523,0.8697,149.943
524,0.871367,150.055
525,0.8730329999999999,150.055
526,0.8747,150.01
527,0.876367,149.846
528,0.878033,149.399
529,0.8797,149.399
530,0.881367,148.945
531,0.883033,148.937
532,0.8847,148.959
533,0.886367,148.959
534,0.88805,149.243
535,0.8897,149.548
536,0.891367,149.004
537,0.893033,149.004
538,0.8947000000000001,148.945
539,0.896367,148.617
540,0.89805,148.43
541,0.8997000000000001,148.43
542,0.901367,148.557
543,0.903033,148.527
544,0.9046999999999999,148.527
545,0.906367,148.684
546,0.908033,148.401
547,0.909683,148.296
548,0.91135,148.296
549,0.913017,148.147
550,0.914683,147.946
551,0.91635,148.043
552,0.918017,148.043
553,0.919683,148.229
554,0.92135,148.371
555,0.923017,148.311
556,0.924683,148.311
557,0.92635,148.356
558,0.928017,148.088
559,0.929683,148.088
560,0.93135,147.648
561,0.933033,147.499
562,0.934683,147.171
563,0.93635,147.171
564,0.938017,146.963
565,0.939683,146.925
566,0.94135,146.829
567,0.943017,146.829
568,0.9446830000000001,146.709
569,0.94635,146.702
570,0.948017,146.635
571,0.9496830000000001,146.635
572,0.95135,146.486
573,0.953017,146.478
574,0.9546829999999999,146.411
575,0.95635,146.411
576,0.958017,146.404
577,0.959683,146.449
578,0.96135,146.449
579,0.963017,146.225
580,0.964683,146.031
581,0.9664,145.92
582,0.968017,145.92
583,0.9697,145.897
584,0.971333,145.86
585,0.973,145.853
586,0.974667,145.853
587,0.9763500000000001,145.584
588,0.97805,145.473
589,0.979667,145.391
590,0.981333,145.391
591,0.983,145.674
592,0.984667,145.599
593,0.986333,145.599
594,0.988,145.42
595,0.989667,145.666
596,0.991333,145.577
597,0.993,145.577
598,0.994683,145.763
599,0.996333,145.786
600,0.998,145.748
601,0.999667,145.748
602,1.001333,145.48
603,1.003,145.525
604,1.004667,145.674
605,1.006333,145.674
606,1.008,145.353
607,1.009667,145.331
608,1.011333,145.197
609,1.013,145.197
610,1.014667,145.003
611,1.016333,145.16
612,1.018,145.16
613,1.019667,144.988
614,1.021333,144.713
615,1.023,144.593
616,1.024667,144.593
617,1.026333,144.586
618,1.028,144.683
619,1.029667,145.018
620,1.031317,145.018
621,1.032983,145.197
622,1.03465,145.286
623,1.036333,145.517
624,1.038033,145.517
625,1.03965,145.376
626,1.041317,145.227
627,1.042983,145.227
628,1.04465,144.929
629,1.046317,144.392
630,1.047983,144.072
631,1.049683,144.072
632,1.051367,143.766
633,1.052983,143.595
634,1.05465,143.915
635,1.056317,143.915
636,1.057983,144.139
637,1.05965,144.377
638,1.061317,144.601
639,1.062983,144.601
640,1.06465,144.497
641,1.066317,144.169
642,1.06805,143.93
643,1.06965,143.93
644,1.071317,144.005
645,1.072983,144.169
646,1.07465,144.169
647,1.076317,144.266
648,1.077983,144.243
649,1.07965,143.908
650,1.081317,143.908
651,1.082983,143.528
652,1.08475,143.677
653,1.086317,143.878
654,1.087983,143.878
655,1.08965,144.176
656,1.0913,144.377
657,1.092967,144.131
658,1.094633,144.131
659,1.0963,144.146
660,1.097967,143.953
661,1.099633,143.953
662,1.1013,143.968
663,1.102967,144.035
664,1.104633,143.96
665,1.1063,143.96
666,1.107967,143.833
667,1.109633,143.819
668,1.111317,143.908
669,1.112967,143.908
670,1.114633,143.856
671,1.1163,143.819
672,1.117967,143.722
673,1.119633,143.722
674,1.1213,143.923
675,1.122967,143.93
676,1.124633,143.93
677,1.1263,143.923
678,1.127967,143.938
679,1.129633,143.789
680,1.1313,143.789
681,1.13295,143.699
682,1.13465,143.699
683,1.136283,143.856
684,1.13795,143.856
685,1.139617,143.67
686,1.141283,143.93
687,1.14295,143.901
688,1.144617,143.901
689,1.146283,143.498
690,1.14795,143.372
691,1.1496,143.111
692,1.151267,143.111
693,1.152933,143.2
694,1.1546,143.304
695,1.156267,143.304
696,1.157933,143.312
697,1.1596,143.245
698,1.161267,143.446
699,1.162933,143.446
700,1.1646,143.863
701,1.166267,143.953
702,1.167933,144.005
703,1.169617,144.005
704,1.171267,143.67
705,1.172933,143.446
706,1.1746,143.558
707,1.176267,143.558
708,1.177933,143.804
709,1.1796,143.841
710,1.181267,143.841
711,1.182933,143.491
712,1.184633,143.297
713,1.186333,143.185
714,1.187933,143.185
715,1.1896,143.208
716,1.191267,143.26
717,1.192933,143.208
718,1.1946,143.208
719,1.196267,143.111
720,1.197933,142.999
721,1.1996,143.051
722,1.201267,143.051
723,1.203033,143.155
724,1.2046,143.036
725,1.206267,143.036
726,1.207933,143.133
727,1.2096,143.275
728,1.21125,143.193
729,1.212917,143.193
730,1.214583,143.118
731,1.21625,143.051
732,1.217917,142.582
733,1.219683,142.582
734,1.22125,142.626
735,1.222917,142.448
736,1.224583,142.738
737,1.22625,142.738
738,1.22795,142.917
739,1.229583,143.088
740,1.23125,143.304
741,1.232917,143.304
742,1.234583,143.319
743,1.23625,143.632
744,1.237917,143.632
745,1.239583,143.588
746,1.24125,143.662
747,1.242917,143.617
748,1.244583,143.617
749,1.24625,143.431
750,1.247917,143.327
751,1.249583,143.334
752,1.25125,143.334
753,1.252917,143.029
754,1.254583,142.775
755,1.25625,142.679
756,1.25795,142.679
757,1.259583,142.708
758,1.26125,142.641
759,1.262917,142.641
760,1.264583,142.686
761,1.26625,142.723
762,1.267917,142.604
763,1.269583,142.604
764,1.271233,142.761
765,1.2729,142.895
766,1.274567,142.604
767,1.276233,142.604
768,1.2779,142.783
769,1.279567,142.582
770,1.281233,142.507
771,1.2829,142.507
772,1.284567,142.671
773,1.286233,142.537
774,1.2879,142.753
775,1.289567,142.753
776,1.291233,142.679
777,1.2929,142.634
778,1.294567,142.634
779,1.296233,142.522
780,1.2979,142.246
781,1.299567,142.165
782,1.301233,142.165
783,1.3029,142.001
784,1.304633,142.008
785,1.306233,142.157
786,1.3079,142.157
787,1.309617,142.336
788,1.311233,142.656
789,1.3129,142.932
790,1.314567,142.932
791,1.316233,143.2
792,1.3179,143.193
793,1.319567,143.193
794,1.321317,143.29
795,1.3229,142.887
796,1.324567,142.574
797,1.326233,142.574
798,1.3279,142.522
799,1.329567,142.239
800,1.331233,142.194
801,1.332883,142.194
802,1.33455,142.112
803,1.336267,141.971
804,1.337967,142.09
805,1.33955,142.09
806,1.341217,142.239
807,1.342883,142.194
808,1.34455,142.336
809,1.346217,142.336
810,1.347883,142.44
811,1.34955,142.328
812,1.351217,142.328
813,1.352883,142.485
814,1.35455,142.358
815,1.356217,142.321
816,1.357883,142.321
817,1.35955,142.664
818,1.361217,142.753
819,1.362883,142.85
820,1.36455,142.85
821,1.366217,142.85
822,1.367883,142.41
823,1.36955,142.351
824,1.371217,142.351
825,1.372883,142.545
826,1.37455,142.321
827,1.376217,142.321
828,1.377883,142.679
829,1.37955,142.671
830,1.381217,142.403
831,1.382883,142.403
832,1.38455,142.597
833,1.386217,142.246
834,1.387883,142.194
835,1.389567,142.194
836,1.3912,142.142
837,1.392867,141.941
838,1.394533,141.986
839,1.3962,141.986
840,1.397883,141.777
841,1.399533,141.747
842,1.4012,141.844
843,1.402867,141.844
844,1.404567,141.695
845,1.4062,141.837
846,1.407867,141.837
847,1.409533,142.045
848,1.4112,142.09
849,1.412867,142.485
850,1.414533,142.485
851,1.4162,142.455
852,1.417867,142.328
853,1.419533,142.336
854,1.4212,142.336
855,1.422867,142.209
856,1.424517,142.105
857,1.426183,142.232
858,1.42785,142.232
859,1.429517,142.135
860,1.431183,142.165
861,1.43285,142.165
862,1.434517,142.336
863,1.436183,142.083
864,1.43785,142.291
865,1.439533,142.291
866,1.441183,141.993
867,1.44285,141.829
868,1.444517,142.023
869,1.446183,142.023
870,1.44785,141.859
871,1.449517,142.157
872,1.451167,142.246
873,1.452833,142.246
874,1.4545,142.09
875,1.4563,141.852
876,1.457833,141.852
877,1.4595,141.479
878,1.461167,141.345
879,1.462833,141.449
880,1.4645,141.449
881,1.466167,141.524
882,1.467833,141.546
883,1.4695,141.524
884,1.471167,141.524
885,1.472833,141.352
886,1.4745,141.367
887,1.476183,141.449
888,1.47785,141.449
889,1.479533,141.71
890,1.481167,141.829
891,1.482833,141.814
892,1.4845,141.814
893,1.486167,141.725
894,1.487833,141.68
895,1.4895,141.68
896,1.491167,141.539
897,1.492833,141.546
898,1.4945,141.814
899,1.496167,141.814
900,1.497833,141.583
901,1.4995,141.501
902,1.501167,141.717
903,1.502833,141.717
904,1.5045,141.889
905,1.506167,142.157
906,1.507833,142.299
907,1.5095,142.299
908,1.51115,142.217
909,1.512817,141.934
910,1.514483,141.934
911,1.51615,141.688
912,1.517817,141.606
913,1.519483,141.546
914,1.52115,141.546
915,1.522817,141.673
916,1.524483,141.934
917,1.52615,142.008
918,1.527817,142.008
919,1.529483,141.852
920,1.53115,141.68
921,1.532817,141.479
922,1.534483,141.479
923,1.53615,141.621
924,1.537817,141.725
925,1.539483,141.732
926,1.541217,141.732
927,1.542817,141.77
928,1.544483,141.501
929,1.54615,141.501
930,1.547817,141.464
931,1.549483,141.524
932,1.5512,141.785
933,1.552883,141.785
934,1.554483,142.239
935,1.55615,142.44
936,1.557817,142.701
937,1.559483,142.701
938,1.56115,142.559
939,1.562817,142.254
940,1.564483,142.165
941,1.56615,142.165
942,1.567817,141.807
943,1.569467,141.539
944,1.571133,141.539
945,1.572817,141.561
946,1.574583,141.412
947,1.576133,141.449
948,1.5778,141.449
949,1.579467,141.464
950,1.581133,141.345
951,1.5828,141.33
952,1.584467,141.33
953,1.586133,141.338
954,1.5878,141.285
955,1.589467,141.33
