"ID","sea_time","fid_signal"
1,0,38.803
2,0.001667,38.83
3,0.003333,38.857
4,0.005,38.857
5,0.006667,38.846
6,0.008333,38.712
7,0.01,38.446
8,0.011783,38.446
9,0.013333,38.238
10,0.015,38.169
11,0.016667,38.283
12,0.018333,38.283
13,0.02,38.497
14,0.021667,38.649
15,0.023333,38.649
16,0.025,38.696
17,0.026667,38.701
18,0.028333,38.707
19,0.03,38.707
20,0.031667,38.733
21,0.033333,38.718
22,0.034983,38.685
23,0.03665,38.685
24,0.038317,38.674
25,0.039983,38.639
26,0.041683,38.639
27,0.043317,38.639
28,0.044983,38.668
29,0.04665,38.687
30,0.048317,38.721
31,0.049983,38.721
32,0.05165,38.733
33,0.0533,38.731
34,0.054967,38.731
35,0.056633,38.724
36,0.0583,38.716
37,0.059967,38.721
38,0.061633,38.721
39,0.0633,38.715
40,0.064967,38.73
41,0.066633,38.721
42,0.0683,38.721
43,0.069967,38.71
44,0.071633,38.702
45,0.0733,38.669
46,0.07496700000000001,38.669
47,0.07663300000000001,38.659
48,0.07829999999999999,38.681
49,0.079967,38.681
50,0.081633,38.669
51,0.0833,38.672
52,0.084967,38.704
53,0.086633,38.704
54,0.0883,38.706
55,0.08996700000000001,38.716
56,0.09163300000000001,38.71
57,0.09329999999999999,38.71
58,0.09495000000000001,38.699
59,0.096733,38.707
60,0.098283,38.721
61,0.09995,38.721
62,0.101617,38.724
63,0.103283,38.736
64,0.10495,38.736
65,0.106617,38.731
66,0.108283,38.74
67,0.10995,38.75
68,0.111617,38.75
69,0.113333,38.747
70,0.11495,38.75
71,0.116617,38.751
72,0.118283,38.751
73,0.11995,38.771
74,0.121617,38.769
75,0.123283,38.774
76,0.12495,38.774
77,0.126617,38.774
78,0.128283,38.773
79,0.13005,38.789
80,0.131617,38.789
81,0.133283,38.805
82,0.13495,38.832
83,0.136617,38.832
84,0.138283,38.85
85,0.13995,38.835
86,0.141633,38.823
87,0.143283,38.823
88,0.14495,38.816
89,0.146617,38.834
90,0.148283,38.879
91,0.14995,38.879
92,0.151617,38.905
93,0.153283,38.885
94,0.154933,38.87
95,0.1566,38.87
96,0.158267,38.829
97,0.159933,38.822
98,0.1616,38.822
99,0.163267,38.823
100,0.164933,38.826
101,0.1666,38.832
102,0.168267,38.832
103,0.169933,38.804
104,0.1716,38.8
105,0.173267,38.785
106,0.174933,38.785
107,0.1766,38.765
108,0.178267,38.769
109,0.179933,38.768
110,0.181617,38.768
111,0.183267,38.763
112,0.184933,38.774
113,0.1866,38.78
114,0.188267,38.78
115,0.189933,38.765
116,0.1916,38.736
117,0.193267,38.736
118,0.194933,38.735
119,0.1966,38.732
120,0.198267,38.733
121,0.199933,38.733
122,0.2016,38.769
123,0.203267,38.749
124,0.204933,38.77
125,0.2066,38.77
126,0.208267,38.78
127,0.209933,38.812
128,0.2116,38.873
129,0.213267,38.873
130,0.21495,38.867
131,0.216583,38.901
132,0.21825,38.901
133,0.219917,38.871
134,0.221583,38.834
135,0.22325,38.85
136,0.224917,38.85
137,0.226617,38.831
138,0.22825,38.832
139,0.229917,38.832
140,0.231617,38.832
141,0.23325,38.804
142,0.234917,38.826
143,0.236583,38.818
144,0.23825,38.818
145,0.239917,38.82
146,0.241583,38.828
147,0.24325,38.836
148,0.244917,38.836
149,0.246583,38.877
150,0.248367,38.922
151,0.249917,38.922
152,0.251583,38.975
153,0.25325,38.982
154,0.254917,38.986
155,0.256583,38.986
156,0.25825,38.95
157,0.259917,38.934
158,0.261617,38.97
159,0.26325,38.97
160,0.264917,38.993
161,0.266583,39.066
162,0.26825,39.079
163,0.269917,39.079
164,0.271583,39.072
165,0.273233,39.104
166,0.2749,39.104
167,0.276567,39.153
168,0.278233,39.237
169,0.2799,39.319
170,0.281567,39.319
171,0.283233,39.385
172,0.2849,39.443
173,0.286567,39.536
174,0.288233,39.536
175,0.2899,39.608
176,0.291567,39.718
177,0.293233,39.848
178,0.2949,39.848
179,0.296567,40.027
180,0.298233,40.282
181,0.2999,40.644
182,0.301567,40.644
183,0.303233,41.138
184,0.3049,41.813
185,0.306567,41.813
186,0.308233,42.786
187,0.3099,44.157
188,0.311567,46.144
189,0.313283,46.144
190,0.3149,48.85
191,0.316567,52.488
192,0.318233,57.157
193,0.3199,57.157
194,0.321567,62.966
195,0.32325,70.04600000000001
196,0.3249,78.345
197,0.326583,78.345
198,0.328233,87.789
199,0.3299,98.17100000000001
200,0.331567,98.17100000000001
201,0.333217,109.182
202,0.3349,120.489
203,0.33655,131.698
204,0.338217,131.698
205,0.339883,142.382
206,0.34155,152.097
207,0.343217,160.433
208,0.344867,160.433
209,0.346533,167.098
210,0.3482,171.772
211,0.349867,174.402
212,0.351533,174.402
213,0.3532,174.996
214,0.354867,173.616
215,0.356533,173.616
216,0.3582,170.486
217,0.359867,165.789
218,0.361533,159.787
219,0.3632,159.787
220,0.364867,152.755
221,0.366633,145.043
222,0.3682,136.916
223,0.369867,136.916
224,0.371533,128.631
225,0.3732,120.421
226,0.374867,112.417
227,0.376533,112.417
228,0.3782,104.768
229,0.379867,97.59
230,0.381533,90.923
231,0.3832,90.923
232,0.384867,84.839
233,0.386533,79.291
234,0.3882,79.291
235,0.389867,74.29300000000001
236,0.391533,69.83499999999999
237,0.3932,65.866
238,0.394867,65.866
239,0.396517,62.401
240,0.398183,59.371
241,0.399867,56.749
242,0.40155,56.749
243,0.403217,54.458
244,0.40485,52.481
245,0.406517,50.753
246,0.408183,50.753
247,0.40985,49.225
248,0.411517,47.927
249,0.413183,47.927
250,0.41485,46.806
251,0.416517,45.856
252,0.418183,45.042
253,0.41985,45.042
254,0.421517,44.326
255,0.423183,43.704
256,0.42485,43.193
257,0.426517,43.193
258,0.428183,42.752
259,0.42985,42.389
260,0.431517,42.059
261,0.433183,42.059
262,0.43485,41.765
263,0.436517,41.533
264,0.438183,41.284
265,0.43985,41.284
266,0.441517,41.101
267,0.443183,40.939
268,0.44485,40.939
269,0.446517,40.776
270,0.448183,40.7
271,0.44985,40.61
272,0.451517,40.61
273,0.453183,40.533
274,0.45485,40.479
275,0.4565,40.426
276,0.458167,40.426
277,0.459833,40.39
278,0.4615,40.354
279,0.463167,40.321
280,0.464833,40.321
281,0.4665,40.245
282,0.468217,40.203
283,0.469833,40.203
284,0.4715,40.153
285,0.473183,40.121
286,0.474867,40.113
287,0.4765,40.113
288,0.478167,40.098
289,0.479833,40.105
290,0.4815,40.072
291,0.483167,40.072
292,0.484933,40.065
293,0.4865,40.055
294,0.488167,40.033
295,0.489833,40.033
296,0.4915,40.02
297,0.493167,39.972
298,0.494833,39.935
299,0.4965,39.935
300,0.498183,39.901
301,0.499833,39.873
302,0.5014999999999999,39.873
303,0.503167,39.884
304,0.504833,39.878
305,0.5065,39.874
306,0.508167,39.874
307,0.509833,39.871
308,0.5115,39.871
309,0.513167,39.842
310,0.514833,39.842
311,0.516483,39.839
312,0.51815,39.845
313,0.519817,39.822
314,0.521483,39.822
315,0.52315,39.823
316,0.524817,39.814
317,0.526483,39.814
318,0.52815,39.8
319,0.529817,39.782
320,0.531483,39.772
321,0.53315,39.772
322,0.534817,39.738
323,0.536483,39.721
324,0.53815,39.699
325,0.539817,39.699
326,0.541483,39.665
327,0.543167,39.656
328,0.544817,39.668
329,0.5464830000000001,39.668
330,0.54815,39.685
331,0.549817,39.744
332,0.5514829999999999,39.744
333,0.55315,39.756
334,0.55485,39.73
335,0.5564829999999999,39.722
336,0.55815,39.722
337,0.559817,39.724
338,0.561483,39.721
339,0.56315,39.738
340,0.564817,39.738
341,0.566483,39.758
342,0.56815,39.753
343,0.569883,39.761
344,0.571483,39.761
345,0.57315,39.766
346,0.5748,39.732
347,0.576467,39.694
348,0.578133,39.694
349,0.5798,39.691
350,0.581467,39.696
351,0.583133,39.696
352,0.5848,39.732
353,0.586467,39.75
354,0.588133,39.754
355,0.5898,39.754
356,0.591467,39.769
357,0.593133,39.781
358,0.5948,39.811
359,0.596467,39.811
360,0.598133,39.829
361,0.5998,39.843
362,0.601467,39.821
363,0.60325,39.821
364,0.6048,39.799
365,0.606467,39.796
366,0.608133,39.796
367,0.6098,39.785
368,0.611467,39.821
369,0.613133,39.813
370,0.6148,39.813
371,0.616467,39.82
372,0.618133,39.822
373,0.6198,39.825
374,0.621467,39.825
375,0.62315,39.867
376,0.6248,39.886
377,0.626467,39.878
378,0.6281330000000001,39.878
379,0.6298,39.876
380,0.631467,39.838
381,0.6331329999999999,39.809
382,0.634783,39.809
383,0.636433,39.829
384,0.6381,39.873
385,0.639767,39.873
386,0.641433,39.946
387,0.6431,39.982
388,0.644767,39.995
389,0.646483,39.995
390,0.6481,39.964
391,0.649767,39.956
392,0.651433,39.957
393,0.6531,39.957
394,0.654767,39.96
395,0.656433,39.979
396,0.6581,39.998
397,0.659767,39.998
398,0.661433,40.005
399,0.6631,40.02
400,0.664767,40.02
401,0.6664330000000001,40.008
402,0.6681,39.987
403,0.669767,39.998
404,0.6714329999999999,39.998
405,0.673117,39.995
406,0.674767,40.028
407,0.676433,40.052
408,0.6781,40.052
409,0.679767,40.08
410,0.681433,40.095
411,0.6831,40.107
412,0.684767,40.107
413,0.686433,40.097
414,0.68815,40.078
415,0.689767,40.078
416,0.69145,40.081
417,0.6931,40.059
418,0.694767,40.048
419,0.696417,40.048
420,0.698083,40.078
421,0.69975,40.091
422,0.701417,40.139
423,0.703083,40.139
424,0.70475,40.179
425,0.706417,40.186
426,0.708083,40.179
427,0.70975,40.179
428,0.711417,40.147
429,0.713083,40.138
430,0.71475,40.117
431,0.716417,40.117
432,0.718083,40.143
433,0.71975,40.15
434,0.721517,40.157
435,0.723083,40.157
436,0.72475,40.2
437,0.726417,40.217
438,0.728083,40.217
439,0.72975,40.241
440,0.731417,40.238
441,0.7331,40.233
442,0.73475,40.233
443,0.736417,40.209
444,0.738083,40.196
445,0.73975,40.195
446,0.741417,40.195
447,0.743083,40.189
448,0.74475,40.212
449,0.746417,40.212
450,0.7480830000000001,40.24
451,0.74975,40.279
452,0.751417,40.297
453,0.7530829999999999,40.297
454,0.75475,40.299
455,0.7564,40.298
456,0.758067,40.295
457,0.759733,40.295
458,0.7614,40.285
459,0.7630670000000001,40.323
460,0.764733,40.352
461,0.7664,40.352
462,0.768133,40.386
463,0.769733,40.394
464,0.7714,40.361
465,0.7730669999999999,40.361
466,0.774733,40.331
467,0.7764,40.303
468,0.778067,40.303
469,0.779733,40.335
470,0.7814,40.362
471,0.783067,40.37
472,0.784733,40.37
473,0.7864,40.341
474,0.788067,40.306
475,0.789733,40.282
476,0.7914,40.282
477,0.793067,40.267
478,0.794733,40.288
479,0.7964,40.287
480,0.798067,40.287
481,0.799733,40.288
482,0.8014,40.273
483,0.803067,40.273
484,0.804733,40.263
485,0.806467,40.261
486,0.8081,40.255
487,0.809733,40.255
488,0.8114,40.295
489,0.813067,40.336
490,0.814717,40.346
491,0.816383,40.346
492,0.8180500000000001,40.34
493,0.819717,40.321
494,0.821383,40.297
495,0.823167,40.297
496,0.824717,40.302
497,0.826383,40.315
498,0.82805,40.349
499,0.829717,40.349
500,0.831383,40.368
501,0.83305,40.364
502,0.834717,40.364
503,0.836383,40.384
504,0.83805,40.369
505,0.8398,40.328
506,0.841383,40.328
507,0.84305,40.31
508,0.8447170000000001,40.297
509,0.846383,40.288
510,0.84805,40.288
511,0.8497169999999999,40.308
512,0.851383,40.319
513,0.85305,40.315
514,0.8547169999999999,40.315
515,0.8565,40.309
516,0.85805,40.306
517,0.859717,40.306
518,0.861383,40.307
519,0.86305,40.325
520,0.864717,40.322
521,0.866383,40.322
522,0.86805,40.325
523,0.869717,40.329
524,0.871383,40.308
525,0.87305,40.308
526,0.874717,40.328
527,0.876367,40.33
528,0.878033,40.32
529,0.8797,40.32
530,0.881367,40.317
531,0.883033,40.307
532,0.8847,40.317
533,0.886367,40.317
534,0.888033,40.321
535,0.8897,40.31
536,0.891367,40.31
537,0.893033,40.294
538,0.8947000000000001,40.285
539,0.896367,40.285
540,0.8980669999999999,40.285
541,0.8997000000000001,40.296
542,0.901383,40.308
543,0.903033,40.297
544,0.9046999999999999,40.297
545,0.906367,40.327
546,0.908033,40.327
547,0.9097,40.32
548,0.911367,40.32
549,0.913067,40.32
550,0.9147,40.293
551,0.916367,40.293
552,0.918033,40.278
553,0.9197,40.282
554,0.921367,40.278
555,0.923033,40.278
556,0.9247,40.264
557,0.9263670000000001,40.247
558,0.928017,40.244
559,0.929683,40.244
560,0.93135,40.253
561,0.933017,40.265
562,0.934683,40.261
563,0.936333,40.261
564,0.9379999999999999,40.267
565,0.939667,40.259
566,0.9414169999999999,40.258
567,0.9429999999999999,40.258
568,0.944667,40.293
569,0.946333,40.291
570,0.948,40.291
571,0.949667,40.279
572,0.951333,40.238
573,0.953,40.208
574,0.954667,40.208
575,0.956333,40.223
576,0.958067,40.223
577,0.959667,40.235
578,0.961333,40.235
579,0.963,40.233
580,0.9646670000000001,40.19
581,0.966333,40.172
582,0.968,40.172
583,0.9696669999999999,40.195
584,0.971333,40.229
585,0.973,40.229
586,0.9747670000000001,40.256
587,0.976333,40.287
588,0.978,40.284
589,0.979667,40.284
590,0.981333,40.251
591,0.983,40.246
592,0.984683,40.232
593,0.986333,40.232
594,0.988,40.232
595,0.989667,40.276
596,0.99135,40.258
597,0.993,40.258
598,0.994667,40.276
599,0.996317,40.274
600,0.997983,40.274
601,0.99965,40.259
602,1.001317,40.272
603,1.002983,40.263
604,1.00465,40.263
605,1.006317,40.271
606,1.007983,40.231
607,1.00965,40.216
608,1.011317,40.216
609,1.012983,40.182
610,1.01465,40.179
611,1.016317,40.187
612,1.017983,40.187
613,1.01965,40.194
614,1.021317,40.2
615,1.022983,40.171
616,1.02465,40.171
617,1.026317,40.158
618,1.027983,40.147
619,1.02965,40.147
620,1.031317,40.156
621,1.032983,40.155
622,1.03465,40.17
623,1.036317,40.17
624,1.037983,40.16
625,1.03965,40.151
626,1.041317,40.157
627,1.042983,40.157
628,1.04465,40.165
629,1.046317,40.171
630,1.047983,40.185
631,1.04965,40.185
632,1.051317,40.204
633,1.052983,40.209
634,1.05465,40.209
635,1.0563,40.208
636,1.057967,40.223
637,1.0597,40.216
638,1.0613,40.216
639,1.063,40.203
640,1.064633,40.22
641,1.0663,40.202
642,1.067967,40.202
643,1.069633,40.183
644,1.0713,40.17
645,1.072967,40.154
646,1.074633,40.154
647,1.07635,40.141
648,1.077967,40.144
649,1.079633,40.15
650,1.0813,40.15
651,1.082967,40.136
652,1.084633,40.14
653,1.0863,40.14
654,1.087967,40.103
655,1.089633,40.068
656,1.0913,40.038
657,1.093067,40.038
658,1.094633,40.022
659,1.0963,40.045
660,1.097967,40.052
661,1.099633,40.052
662,1.1013,40.083
663,1.102967,40.088
664,1.104633,40.114
665,1.1063,40.114
666,1.107967,40.167
667,1.109633,40.174
668,1.1113,40.174
669,1.112967,40.168
670,1.114617,40.146
671,1.116283,40.115
672,1.11795,40.115
673,1.119617,40.136
674,1.121283,40.134
675,1.12295,40.101
676,1.124617,40.101
677,1.126283,40.078
678,1.12795,40.022
679,1.129617,39.998
680,1.131283,39.998
681,1.13295,40.004
682,1.134617,40.028
683,1.136317,40.066
684,1.13795,40.066
685,1.139617,40.088
686,1.141283,40.092
687,1.14295,40.092
688,1.144617,40.085
689,1.146283,40.081
690,1.14795,40.112
691,1.149617,40.112
692,1.151283,40.146
693,1.15295,40.133
694,1.154617,40.097
695,1.156283,40.097
696,1.15795,40.062
697,1.159617,40.043
698,1.161283,40.033
699,1.16295,40.033
700,1.164617,40.029
701,1.166283,40.017
702,1.16795,40.017
703,1.169617,39.988
704,1.171283,39.975
705,1.17295,39.977
706,1.1746,39.977
707,1.176267,39.978
708,1.17795,39.984
709,1.1796,39.998
710,1.181267,39.998
711,1.182933,40.033
712,1.1846,40.042
713,1.186267,40.039
714,1.187933,40.039
715,1.1896,40.052
716,1.191267,40.026
717,1.192933,40.026
718,1.1946,40.008
719,1.196267,40.014
720,1.197933,40.019
721,1.1996,40.019
722,1.201267,40.041
723,1.202933,40.042
724,1.2046,40.034
725,1.206267,40.034
726,1.207933,40.006
727,1.2096,39.969
728,1.211367,39.991
729,1.212933,39.991
730,1.2146,40.022
731,1.216267,40.061
732,1.217917,40.061
733,1.219583,40.061
734,1.22125,40.043
735,1.222917,40.023
736,1.224583,40.023
737,1.22625,40.011
738,1.227917,40.033
739,1.229583,40.033
740,1.23125,40.033
741,1.232917,40.028
742,1.234583,39.995
743,1.236233,40.001
744,1.2379,40.001
745,1.239567,40.037
746,1.241233,40.033
747,1.2429,40.05
748,1.244567,40.05
749,1.246233,40.03
750,1.2479,39.987
751,1.249567,39.987
752,1.25125,39.972
753,1.2529,39.987
754,1.254567,39.999
755,1.256233,39.999
756,1.2579,39.993
757,1.259567,39.998
758,1.261233,39.963
759,1.2629,39.963
760,1.264567,39.913
761,1.266233,39.925
762,1.2679,39.919
763,1.269567,39.919
764,1.271233,39.904
765,1.2729,39.935
766,1.274583,39.943
767,1.276233,39.943
768,1.277983,39.963
769,1.279567,39.994
770,1.281233,39.994
771,1.2829,40.006
772,1.284567,40.02
773,1.286233,40.018
774,1.2879,40.018
775,1.289567,40.029
776,1.291233,40.006
777,1.2929,39.969
778,1.294567,39.969
779,1.296217,39.963
780,1.297883,39.912
781,1.29955,39.921
782,1.301217,39.921
783,1.302883,39.931
784,1.30455,39.91
785,1.306217,39.91
786,1.307883,39.914
787,1.30955,39.89
788,1.311217,39.873
789,1.312883,39.873
790,1.31455,39.885
791,1.316217,39.928
792,1.317883,39.941
793,1.31955,39.941
794,1.321217,39.931
795,1.322883,39.914
796,1.32455,39.89
797,1.326217,39.89
798,1.327883,39.902
799,1.329617,39.907
800,1.331217,39.907
801,1.332883,39.908
802,1.33455,39.911
803,1.336217,39.903
804,1.337883,39.903
805,1.33955,39.881
806,1.341217,39.87
807,1.342883,39.855
808,1.34455,39.855
809,1.346217,39.86
810,1.347883,39.893
811,1.34955,39.918
812,1.351217,39.918
813,1.352883,39.929
814,1.354567,39.917
815,1.356217,39.907
816,1.357917,39.907
817,1.359533,39.902
818,1.3612,39.899
819,1.362867,39.899
820,1.364533,39.898
821,1.3662,39.87
822,1.367867,39.854
823,1.369533,39.854
824,1.3712,39.824
825,1.372867,39.82
826,1.374533,39.821
827,1.3762,39.821
828,1.377867,39.836
829,1.379533,39.865
830,1.3812,39.873
831,1.382867,39.873
832,1.384533,39.899
833,1.3862,39.873
834,1.387867,39.873
835,1.389533,39.88
836,1.3912,39.876
837,1.392867,39.876
838,1.394533,39.876
839,1.3962,39.872
840,1.397867,39.852
841,1.399533,39.844
842,1.4012,39.844
843,1.402867,39.814
844,1.404533,39.817
845,1.4062,39.817
846,1.407867,39.817
847,1.409533,39.814
848,1.4112,39.815
849,1.412867,39.837
850,1.414517,39.837
851,1.416183,39.815
852,1.41785,39.826
853,1.419517,39.826
854,1.421183,39.855
855,1.42285,39.855
856,1.424517,39.892
857,1.426217,39.892
858,1.427933,39.89
859,1.429517,39.865
860,1.431183,39.847
861,1.43285,39.847
862,1.434517,39.812
863,1.436183,39.776
864,1.43785,39.769
865,1.439517,39.769
866,1.441183,39.766
867,1.44285,39.77
868,1.444517,39.77
869,1.446183,39.814
870,1.44795,39.839
871,1.449517,39.863
872,1.451183,39.863
873,1.45285,39.875
874,1.454517,39.863
875,1.456183,39.878
876,1.45785,39.878
877,1.459517,39.843
878,1.461183,39.821
879,1.46285,39.801
880,1.464517,39.801
881,1.466183,39.767
882,1.46785,39.779
883,1.469517,39.806
884,1.471183,39.806
885,1.47285,39.797
886,1.474517,39.792
887,1.476167,39.792
888,1.477833,39.798
889,1.479517,39.77
890,1.481167,39.788
891,1.482833,39.788
892,1.4845,39.792
893,1.486167,39.819
894,1.487833,39.823
895,1.4895,39.823
896,1.491167,39.795
897,1.492833,39.795
898,1.4945,39.783
899,1.496167,39.783
900,1.49785,39.797
901,1.499517,39.816
902,1.501167,39.816
903,1.502833,39.808
904,1.5045,39.784
905,1.506167,39.777
906,1.507833,39.777
907,1.509483,39.774
908,1.51115,39.779
909,1.512817,39.765
910,1.514483,39.765
911,1.51615,39.778
912,1.517817,39.763
913,1.519483,39.757
914,1.52115,39.757
915,1.522817,39.759
916,1.524483,39.727
917,1.52615,39.727
918,1.527817,39.748
919,1.529483,39.742
920,1.53115,39.74
921,1.532883,39.74
922,1.534483,39.738
923,1.536133,39.719
924,1.5378,39.735
925,1.539467,39.735
926,1.541133,39.744
927,1.5428,39.744
928,1.544467,39.754
929,1.546133,39.754
930,1.5478,39.746
931,1.549467,39.75
932,1.551133,39.775
933,1.5528,39.775
934,1.554467,39.773
935,1.556133,39.747
936,1.5578,39.747
937,1.559467,39.724
938,1.561133,39.677
939,1.5628,39.659
940,1.564467,39.659
941,1.566217,39.671
942,1.5678,39.658
943,1.569483,39.657
944,1.571133,39.657
945,1.5728,39.665
946,1.574467,39.671
947,1.57615,39.706
948,1.5778,39.706
949,1.579467,39.721
950,1.581133,39.721
951,1.5828,39.721
952,1.584467,39.693
953,1.586133,39.656
954,1.5878,39.652
955,1.589467,39.652
956,1.591133,39.63
957,1.5928,39.629
958,1.59445,39.642
959,1.596117,39.642
960,1.597783,39.627
961,1.59945,39.613
962,1.601117,39.638
963,1.602783,39.638
964,1.60445,39.628
965,1.606117,39.653
966,1.607783,39.683
967,1.60945,39.683
968,1.611117,39.651
969,1.612783,39.674
970,1.61445,39.674
971,1.616117,39.652
972,1.617783,39.651
973,1.61945,39.682
974,1.621117,39.682
975,1.622783,39.673
976,1.62445,39.674
977,1.626117,39.645
978,1.627783,39.645
979,1.62945,39.621
980,1.631117,39.609
981,1.632783,39.619
982,1.63445,39.619
983,1.636117,39.656
984,1.637783,39.657
985,1.63945,39.657
986,1.641117,39.645
987,1.642817,39.621
988,1.644467,39.592
989,1.646117,39.592
990,1.647783,39.596
991,1.64945,39.625
992,1.651133,39.656
993,1.652783,39.656
994,1.65445,39.683
995,1.6561,39.673
996,1.657767,39.66
997,1.659433,39.66
998,1.6611,39.64
999,1.662767,39.598
1000,1.664433,39.63
1001,1.6661,39.63
1002,1.667883,39.604
1003,1.669433,39.585
1004,1.6711,39.585
1005,1.672767,39.621
1006,1.674433,39.615
1007,1.6761,39.649
1008,1.677767,39.649
1009,1.679433,39.642
1010,1.6811,39.595
1011,1.682767,39.562
1012,1.684483,39.562
1013,1.6861,39.563
