"ID","sea_time","fid_signal"
1,0,29.038
2,0.001667,29.038
3,0.003333,29.047
4,0.005,29.054
5,0.006667,29.057
6,0.008333,29.057
7,0.01,29.006
8,0.011667,28.925
9,0.013317,28.841
10,0.014983,28.841
11,0.01665,28.781
12,0.018317,28.784
13,0.020033,28.825
14,0.02165,28.825
15,0.023317,28.874
16,0.024983,28.91
17,0.02665,28.91
18,0.028317,28.932
19,0.029983,28.954
20,0.03165,28.97
21,0.033317,28.97
22,0.034983,28.977
23,0.03665,28.985
24,0.038317,28.992
25,0.039983,28.992
26,0.04165,28.999
27,0.043317,29.01
28,0.045017,29.011
29,0.04665,29.011
30,0.048317,29.01
31,0.049983,29.011
32,0.05165,29.011
33,0.053317,29.011
34,0.054983,29.011
35,0.05665,29.014
36,0.058317,29.014
37,0.059983,29.015
38,0.0617,29.007
39,0.063317,29.009
40,0.064983,29.009
41,0.06665,29.007
42,0.068317,29.002
43,0.069983,29.007
44,0.07165000000000001,29.007
45,0.0733,29.01
46,0.07496700000000001,29.007
47,0.07663300000000001,29.013
48,0.07829999999999999,29.013
49,0.079967,29.014
50,0.081633,29.009
51,0.0833,29.009
52,0.084967,29.012
53,0.086633,29.012
54,0.0883,29.021
55,0.08996700000000001,29.021
56,0.09163300000000001,29.029
57,0.093317,29.03
58,0.095083,29.029
59,0.096633,29.029
60,0.0983,29.022
61,0.099967,29.017
62,0.101633,29.013
63,0.1033,29.013
64,0.104967,29.008
65,0.106633,29.008
66,0.1083,29.01
67,0.109967,29.01
68,0.111633,29.01
69,0.1133,29.01
70,0.114967,29.01
71,0.116633,29.008
72,0.1183,29.003
73,0.119967,28.999
74,0.121633,28.999
75,0.1233,29.001
76,0.124967,29.003
77,0.126633,29.003
78,0.1283,29.003
79,0.129967,29.005
80,0.13165,29.005
81,0.1333,28.996
82,0.13495,28.996
83,0.136617,29.002
84,0.138283,29.008
85,0.13995,29.008
86,0.141617,29.015
87,0.143283,29.023
88,0.14495,29.025
89,0.146617,29.025
90,0.148283,29.025
91,0.14995,29.024
92,0.151617,29.024
93,0.153283,29.024
94,0.15495,29.029
95,0.156617,29.027
96,0.158283,29.028
97,0.159983,29.028
98,0.161617,29.03
99,0.163283,29.029
100,0.16495,29.031
101,0.166617,29.031
102,0.168283,29.032
103,0.16995,29.032
104,0.171617,29.032
105,0.173283,29.027
106,0.17495,29.027
107,0.176617,29.033
108,0.178283,29.033
109,0.18,29.037
110,0.181617,29.037
111,0.183283,29.041
112,0.18495,29.041
113,0.1866,29.037
114,0.188267,29.032
115,0.189933,29.036
116,0.1916,29.036
117,0.193267,29.032
118,0.194917,29.032
119,0.196583,29.032
120,0.19825,29.038
121,0.199917,29.034
122,0.201583,29.03
123,0.20325,29.03
124,0.204917,29.031
125,0.206583,29.024
126,0.20825,29.028
127,0.209917,29.028
128,0.211583,29.03
129,0.21335,29.027
130,0.214917,29.033
131,0.216583,29.033
132,0.21825,29.029
133,0.219917,29.031
134,0.221583,29.031
135,0.223267,29.029
136,0.224917,29.023
137,0.226583,29.027
138,0.22825,29.027
139,0.229917,29.03
140,0.231583,29.039
141,0.23325,29.04
142,0.234917,29.04
143,0.236617,29.042
144,0.23825,29.044
145,0.239917,29.041
146,0.241583,29.041
147,0.24325,29.046
148,0.244917,29.049
149,0.246583,29.051
150,0.24825,29.051
151,0.249917,29.051
152,0.251583,29.048
153,0.25325,29.048
154,0.2549,29.044
155,0.256567,29.037
156,0.258233,29.035
157,0.2599,29.035
158,0.261567,29.034
159,0.263233,29.029
160,0.2649,29.029
161,0.266567,29.029
162,0.268233,29.033
163,0.2699,29.04
164,0.271567,29.045
165,0.273233,29.045
166,0.2749,29.044
167,0.276567,29.043
168,0.278233,29.043
169,0.2799,29.04
170,0.281567,29.034
171,0.283233,29.034
172,0.2849,29.034
173,0.286567,29.033
174,0.288233,29.036
175,0.2899,29.042
176,0.291567,29.042
177,0.293233,29.042
178,0.2949,29.038
179,0.296567,29.033
180,0.298317,29.033
181,0.2999,29.035
182,0.301583,29.041
183,0.303233,29.051
184,0.3049,29.051
185,0.306567,29.053
186,0.308233,29.047
187,0.3099,29.047
188,0.311567,29.048
189,0.313217,29.046
190,0.314883,29.049
191,0.31655,29.049
192,0.318217,29.054
193,0.319883,29.054
194,0.32155,29.05
195,0.323217,29.05
196,0.324883,29.051
197,0.32655,29.053
198,0.328217,29.055
199,0.329883,29.055
200,0.33165,29.062
201,0.333217,29.063
202,0.334883,29.063
203,0.33655,29.062
204,0.338217,29.059
205,0.339883,29.061
206,0.34155,29.061
207,0.343217,29.059
208,0.344883,29.059
209,0.34655,29.06
210,0.348217,29.06
211,0.349883,29.057
212,0.35155,29.065
213,0.353217,29.067
214,0.354883,29.067
215,0.35655,29.071
216,0.358217,29.078
217,0.359883,29.081
218,0.36155,29.081
219,0.363217,29.081
220,0.364883,29.086
221,0.36655,29.086
222,0.368217,29.084
223,0.369883,29.085
224,0.37155,29.089
225,0.3732,29.089
226,0.374867,29.083
227,0.376567,29.078
228,0.37825,29.068
229,0.379917,29.068
230,0.381533,29.064
231,0.3832,29.061
232,0.384867,29.067
233,0.386533,29.067
234,0.3882,29.077
235,0.389867,29.082
236,0.391533,29.082
237,0.3932,29.093
238,0.394867,29.096
239,0.396533,29.095
240,0.3982,29.095
241,0.399867,29.097
242,0.401533,29.1
243,0.4032,29.106
244,0.404867,29.106
245,0.406533,29.116
246,0.4082,29.124
247,0.409883,29.126
248,0.411533,29.126
249,0.4132,29.129
250,0.414867,29.135
251,0.416533,29.143
252,0.4182,29.143
253,0.419867,29.156
254,0.421533,29.165
255,0.4232,29.165
256,0.424867,29.166
257,0.426533,29.171
258,0.4282,29.182
259,0.429867,29.182
260,0.431533,29.193
261,0.433283,29.215
262,0.43485,29.238
263,0.436517,29.238
264,0.438183,29.257
265,0.43985,29.285
266,0.441517,29.315
267,0.443183,29.315
268,0.44485,29.339
269,0.446517,29.372
270,0.448183,29.372
271,0.4499,29.406
272,0.451583,29.445
273,0.453183,29.494
274,0.45485,29.494
275,0.456517,29.547
276,0.458183,29.6
277,0.45985,29.663
278,0.461517,29.663
279,0.463183,29.732
280,0.46485,29.815
281,0.466617,29.906
282,0.468183,29.906
283,0.46985,30.002
284,0.471517,30.117
285,0.473183,30.117
286,0.47485,30.234
287,0.476517,30.361
288,0.478167,30.495
289,0.479833,30.495
290,0.4815,30.637
291,0.483167,30.791
292,0.484833,30.962
293,0.4865,30.962
294,0.488167,31.148
295,0.489833,31.342
296,0.4915,31.55
297,0.493167,31.55
298,0.494817,31.765
299,0.496483,31.991
300,0.49815,32.224
301,0.499817,32.224
302,0.501483,32.468
303,0.50315,32.728
304,0.504817,32.728
305,0.506483,32.999
306,0.50815,33.283
307,0.509817,33.574
308,0.511483,33.574
309,0.51315,33.87
310,0.514817,34.179
311,0.516483,34.502
312,0.518167,34.502
313,0.519817,34.832
314,0.521483,35.173
315,0.52315,35.518
316,0.524817,35.518
317,0.526517,35.868
318,0.52815,36.225
319,0.529817,36.225
320,0.531483,36.581
321,0.53315,36.943
322,0.534817,37.309
323,0.536483,37.309
324,0.53815,37.684
325,0.539817,38.071
326,0.541483,38.456
327,0.54315,38.456
328,0.544817,38.836
329,0.5464830000000001,39.219
330,0.54815,39.6
331,0.549817,39.6
332,0.55155,39.981
333,0.55315,40.371
334,0.5548,40.759
335,0.556467,40.759
336,0.558133,41.144
337,0.5598,41.534
338,0.561467,41.534
339,0.563133,41.923
340,0.5648,42.304
341,0.5664670000000001,42.684
342,0.568217,42.684
343,0.5698,43.06
344,0.5714669999999999,43.428
345,0.573133,43.8
346,0.5748,43.8
347,0.576467,44.169
348,0.578133,44.536
349,0.5798,44.899
350,0.581467,44.899
351,0.583133,45.256
352,0.584917,45.608
353,0.586467,45.608
354,0.588133,45.958
355,0.5898,46.307
356,0.591467,46.657
357,0.593133,46.657
358,0.5948,47
359,0.596467,47.331
360,0.59815,47.66
361,0.5998,47.66
362,0.601467,47.98
363,0.603133,48.296
364,0.6048,48.614
365,0.606467,48.614
366,0.608133,48.922
367,0.6098,49.225
368,0.611467,49.225
369,0.613117,49.524
370,0.614783,49.813
371,0.616467,50.097
372,0.618117,50.097
373,0.619783,50.379
374,0.6214499999999999,50.658
375,0.623117,50.934
376,0.624783,50.934
377,0.62645,51.206
378,0.628117,51.47
379,0.629783,51.736
380,0.63145,51.736
381,0.633117,51.991
382,0.634783,52.237
383,0.63645,52.48
384,0.638117,52.48
385,0.639783,52.717
386,0.64145,52.953
387,0.643117,52.953
388,0.644783,53.19
389,0.64645,53.419
390,0.6481170000000001,53.639
391,0.649783,53.639
392,0.65145,53.861
393,0.6531169999999999,54.08
394,0.654783,54.293
395,0.65645,54.293
396,0.658117,54.499
397,0.659783,54.695
398,0.66145,54.888
399,0.663117,54.888
400,0.664783,55.083
401,0.66645,55.268
402,0.668117,55.268
403,0.6698,55.461
404,0.67145,55.644
405,0.6731,55.813
406,0.674767,55.813
407,0.676433,55.992
408,0.6781,56.156
409,0.679767,56.324
410,0.681433,56.324
411,0.6831,56.488
412,0.684767,56.647
413,0.686467,56.805
414,0.6881,56.805
415,0.689767,56.954
416,0.691433,57.103
417,0.6931,57.249
418,0.694767,57.249
419,0.696433,57.389
420,0.6981000000000001,57.527
421,0.699767,57.527
422,0.701433,57.667
423,0.703183,57.799
424,0.704767,57.933
425,0.70645,57.933
426,0.7081,58.055
427,0.709767,58.17
428,0.711433,58.288
429,0.7131,58.288
430,0.714767,58.4
431,0.716433,58.515
432,0.7181,58.626
433,0.719767,58.626
434,0.721433,58.733
435,0.7231,58.842
436,0.7247670000000001,58.842
437,0.726433,58.952
438,0.7281,59.064
439,0.7297670000000001,59.166
440,0.731433,59.166
441,0.7331,59.259
442,0.73475,59.352
443,0.736417,59.439
444,0.738083,59.439
445,0.73975,59.531
446,0.741417,59.622
447,0.743083,59.702
448,0.74475,59.702
449,0.7464499999999999,59.78
450,0.7480830000000001,59.858
451,0.74975,59.933
452,0.751417,59.933
453,0.7530829999999999,60.02
454,0.75475,60.1
455,0.756417,60.1
456,0.758083,60.171
457,0.75975,60.243
458,0.761417,60.312
459,0.763083,60.312
460,0.76475,60.381
461,0.766417,60.452
462,0.768083,60.518
463,0.769733,60.518
464,0.7714,60.577
465,0.7730669999999999,60.636
466,0.774733,60.694
467,0.7764,60.694
468,0.778067,60.754
469,0.779733,60.81
470,0.781417,60.81
471,0.783067,60.867
472,0.784733,60.917
473,0.7864,60.96
474,0.788117,60.96
475,0.789733,61.01
476,0.7914,61.055
477,0.79305,61.102
478,0.794717,61.102
479,0.796383,61.151
480,0.79805,61.189
481,0.799717,61.231
482,0.801383,61.231
483,0.80305,61.278
484,0.80475,61.323
485,0.806383,61.323
486,0.80805,61.369
487,0.809717,61.409
488,0.811383,61.441
489,0.8130500000000001,61.441
490,0.814717,61.468
491,0.816383,61.495
492,0.8180500000000001,61.528
493,0.819717,61.528
494,0.821483,61.55
495,0.8230499999999999,61.577
496,0.824717,61.604
497,0.826383,61.604
498,0.82805,61.621
499,0.829717,61.648
500,0.831383,61.677
501,0.83305,61.677
502,0.834717,61.692
503,0.836383,61.713
504,0.83805,61.713
505,0.839717,61.73
506,0.841383,61.739
507,0.84305,61.759
508,0.8447170000000001,61.759
509,0.846383,61.779
510,0.84805,61.801
511,0.8497169999999999,61.819
512,0.851383,61.819
513,0.853033,61.831
514,0.8547,61.848
515,0.856367,61.858
516,0.858033,61.858
517,0.8597,61.869
518,0.861367,61.88
519,0.8630330000000001,61.88
520,0.8647,61.885
521,0.866367,61.891
522,0.8680330000000001,61.895
523,0.8697,61.895
524,0.871367,61.898
525,0.87305,61.906
526,0.8747,61.912
527,0.876367,61.912
528,0.878033,61.922
529,0.8797,61.93
530,0.881367,61.928
531,0.883033,61.928
532,0.8847,61.932
533,0.886383,61.933
534,0.888033,61.934
535,0.8897,61.934
536,0.891367,61.937
537,0.893033,61.933
538,0.8947000000000001,61.933
539,0.896367,61.935
540,0.898033,61.941
541,0.8997000000000001,61.95
542,0.901367,61.95
543,0.903033,61.952
544,0.9046999999999999,61.949
545,0.906433,61.938
546,0.908033,61.938
547,0.9097,61.917
548,0.911367,61.907
549,0.913033,61.892
550,0.914683,61.892
551,0.91635,61.881
552,0.918017,61.885
553,0.919683,61.885
554,0.92135,61.879
555,0.923017,61.875
556,0.924683,61.867
557,0.92635,61.867
558,0.928017,61.85
559,0.929683,61.838
560,0.93135,61.822
561,0.933017,61.822
562,0.934683,61.809
563,0.93635,61.796
564,0.938017,61.782
565,0.939783,61.782
566,0.94135,61.777
567,0.943017,61.772
568,0.9446830000000001,61.758
569,0.94635,61.758
570,0.948017,61.749
571,0.9496830000000001,61.73
572,0.95135,61.73
573,0.953017,61.718
574,0.9546829999999999,61.707
575,0.95635,61.688
576,0.958017,61.688
577,0.959683,61.677
578,0.961367,61.652
579,0.963017,61.632
580,0.964717,61.632
581,0.96635,61.619
582,0.968017,61.595
583,0.969683,61.575
584,0.97135,61.575
585,0.973,61.562
586,0.974667,61.544
587,0.976333,61.544
588,0.978,61.531
589,0.979667,61.518
590,0.981333,61.496
591,0.983,61.496
592,0.984667,61.478
593,0.986333,61.453
594,0.988017,61.432
595,0.989667,61.432
596,0.991333,61.405
597,0.993,61.376
598,0.994667,61.349
599,0.996333,61.349
600,0.998,61.324
601,0.999667,61.305
602,1.001333,61.29
603,1.003,61.29
604,1.004667,61.279
605,1.006333,61.26
606,1.008,61.26
607,1.009667,61.237
608,1.011333,61.21
609,1.013,61.181
610,1.014667,61.181
611,1.016333,61.155
612,1.018,61.13
613,1.019667,61.103
614,1.021333,61.103
615,1.023,61.075
616,1.024733,61.043
617,1.026333,61.011
618,1.028,61.011
619,1.029667,60.974
620,1.031333,60.94
621,1.032983,60.94
622,1.034683,60.913
623,1.036383,60.893
624,1.038033,60.874
625,1.03965,60.874
626,1.041317,60.854
627,1.042983,60.825
628,1.04465,60.791
629,1.046317,60.791
630,1.047983,60.761
631,1.04965,60.733
632,1.051317,60.712
633,1.052983,60.712
634,1.05465,60.687
635,1.056317,60.656
636,1.058083,60.619
637,1.059633,60.619
638,1.0613,60.582
639,1.062967,60.551
640,1.064633,60.551
641,1.0663,60.523
642,1.067967,60.499
643,1.069633,60.47
644,1.0713,60.47
645,1.072967,60.435
646,1.074633,60.402
647,1.0763,60.366
648,1.077967,60.366
649,1.079633,60.339
650,1.0813,60.315
651,1.082967,60.29
652,1.084633,60.29
653,1.0863,60.265
654,1.087967,60.235
655,1.089633,60.235
656,1.0913,60.201
657,1.09295,60.168
658,1.094617,60.134
659,1.096283,60.134
660,1.09795,60.105
661,1.099617,60.069
662,1.101283,60.039
663,1.10295,60.039
664,1.104617,60.01
665,1.106283,59.975
666,1.10795,59.95
667,1.109667,59.95
668,1.111367,59.92
669,1.11295,59.892
670,1.114617,59.892
671,1.116283,59.869
672,1.11795,59.841
673,1.119617,59.813
674,1.121283,59.813
675,1.12295,59.779
676,1.124617,59.742
677,1.126283,59.704
678,1.12795,59.704
679,1.129617,59.667
680,1.131283,59.64
681,1.13295,59.609
682,1.134617,59.609
683,1.136283,59.571
684,1.13795,59.533
685,1.139617,59.5
686,1.141283,59.5
687,1.143017,59.458
688,1.144617,59.429
689,1.146283,59.429
690,1.14795,59.396
691,1.149617,59.359
692,1.151283,59.327
693,1.152933,59.327
694,1.1546,59.291
695,1.156267,59.259
696,1.157933,59.226
697,1.1596,59.226
698,1.161267,59.197
699,1.16295,59.168
700,1.1646,59.135
701,1.166267,59.135
702,1.167933,59.097
703,1.1696,59.052
704,1.171267,59.052
705,1.172933,59.014
706,1.1746,58.979
707,1.176383,58.948
708,1.177933,58.948
709,1.1796,58.924
710,1.181267,58.893
711,1.182933,58.862
712,1.1846,58.862
713,1.1863,58.826
714,1.187933,58.792
715,1.189633,58.759
716,1.191267,58.759
717,1.192933,58.724
718,1.1946,58.692
719,1.196267,58.659
720,1.197933,58.659
721,1.1996,58.625
722,1.201267,58.593
723,1.202933,58.593
724,1.2046,58.567
725,1.206267,58.535
726,1.207933,58.51
727,1.2096,58.51
728,1.211267,58.487
729,1.212917,58.451
730,1.214583,58.415
731,1.21625,58.415
732,1.217917,58.378
733,1.219583,58.343
734,1.22125,58.307
735,1.222917,58.307
736,1.224583,58.272
737,1.22625,58.241
738,1.227917,58.241
739,1.229583,58.205
740,1.23125,58.172
741,1.232917,58.144
742,1.234583,58.144
743,1.23625,58.107
744,1.237917,58.069
745,1.239583,58.039
746,1.24125,58.039
747,1.242917,58.001
748,1.244583,57.965
749,1.24625,57.929
750,1.247917,57.929
751,1.249583,57.89
752,1.25125,57.851
753,1.25295,57.813
754,1.254583,57.813
755,1.25625,57.781
756,1.257917,57.75
757,1.259583,57.75
758,1.261333,57.722
759,1.262917,57.69
760,1.264583,57.657
761,1.26625,57.657
762,1.267917,57.614
763,1.269583,57.579
764,1.27125,57.549
765,1.272917,57.549
766,1.274567,57.516
767,1.276233,57.482
768,1.277983,57.449
769,1.279567,57.449
770,1.281233,57.411
771,1.2829,57.373
772,1.284567,57.373
773,1.286233,57.344
774,1.2879,57.311
775,1.289567,57.276
776,1.291233,57.276
777,1.2929,57.244
778,1.294667,57.213
779,1.296233,57.18
780,1.2979,57.18
781,1.299567,57.15
782,1.301233,57.113
783,1.3029,57.077
784,1.304567,57.077
785,1.306233,57.043
786,1.3079,57.002
787,1.309567,57.002
788,1.311333,56.964
789,1.3129,56.925
790,1.314567,56.891
791,1.316233,56.891
792,1.3179,56.862
793,1.319567,56.833
794,1.321233,56.802
795,1.3229,56.802
796,1.324567,56.764
797,1.326233,56.728
798,1.3279,56.692
799,1.329567,56.692
800,1.331233,56.659
801,1.332917,56.621
802,1.33455,56.583
803,1.336217,56.583
804,1.337883,56.549
805,1.33955,56.509
806,1.341217,56.509
807,1.342883,56.479
808,1.34455,56.453
809,1.346217,56.421
810,1.347883,56.421
811,1.349583,56.393
812,1.3512,56.356
813,1.352867,56.325
814,1.354533,56.325
815,1.3562,56.294
816,1.357867,56.252
817,1.359533,56.217
818,1.3612,56.217
819,1.362867,56.172
820,1.364533,56.13
821,1.3662,56.13
822,1.367867,56.1
823,1.369533,56.073
824,1.3712,56.051
825,1.372867,56.051
826,1.374533,56.025
827,1.3762,55.986
828,1.377867,55.945
829,1.379533,55.945
830,1.3812,55.902
831,1.382867,55.866
832,1.384533,55.835
833,1.3862,55.835
834,1.387867,55.805
835,1.389533,55.776
836,1.3912,55.776
837,1.39285,55.742
838,1.394517,55.714
839,1.396183,55.684
840,1.39785,55.684
841,1.399517,55.655
842,1.4012,55.625
843,1.40285,55.594
844,1.404517,55.594
845,1.406183,55.563
846,1.40785,55.532
847,1.409517,55.497
848,1.411183,55.497
849,1.41295,55.46
850,1.414517,55.422
851,1.416183,55.385
852,1.41785,55.385
853,1.419517,55.354
854,1.421183,55.328
855,1.42285,55.328
856,1.424517,55.295
857,1.426183,55.266
858,1.42785,55.235
859,1.429617,55.235
860,1.431183,55.2
861,1.43285,55.168
862,1.434517,55.134
863,1.436183,55.134
864,1.437867,55.103
865,1.439517,55.071
866,1.441183,55.04
867,1.44285,55.04
868,1.444517,55.011
869,1.446183,54.979
870,1.44785,54.979
871,1.449517,54.943
872,1.451183,54.91
873,1.452833,54.874
874,1.4545,54.874
875,1.456167,54.833
876,1.457833,54.796
877,1.4595,54.76
878,1.461167,54.76
879,1.462833,54.717
880,1.4645,54.681
881,1.466167,54.648
882,1.467833,54.648
883,1.4695,54.615
884,1.471167,54.586
885,1.472833,54.557
886,1.4745,54.557
887,1.476183,54.522
888,1.477833,54.487
889,1.4795,54.487
890,1.481167,54.459
891,1.482833,54.425
892,1.4845,54.398
893,1.486167,54.398
894,1.487833,54.363
895,1.4895,54.327
896,1.491167,54.297
897,1.492833,54.297
898,1.4945,54.267
899,1.496167,54.243
900,1.497833,54.219
901,1.4995,54.219
902,1.501167,54.187
903,1.502833,54.151
904,1.5045,54.151
905,1.506167,54.118
906,1.507833,54.082
907,1.5095,54.052
908,1.51115,54.052
909,1.512833,54.024
910,1.514533,53.99
911,1.51615,53.953
912,1.517817,53.953
913,1.519483,53.917
914,1.52115,53.883
915,1.522817,53.852
916,1.524483,53.852
917,1.52615,53.827
918,1.527817,53.798
919,1.529483,53.774
920,1.5312,53.774
921,1.532817,53.751
922,1.534483,53.725
923,1.53615,53.725
924,1.537817,53.703
925,1.539483,53.671
926,1.54115,53.634
927,1.542817,53.634
928,1.544483,53.604
929,1.54615,53.568
930,1.547933,53.536
931,1.549483,53.536
932,1.55115,53.505
933,1.552817,53.474
934,1.554483,53.442
935,1.556183,53.442
936,1.557817,53.406
937,1.559483,53.375
938,1.56115,53.375
939,1.562817,53.337
940,1.564483,53.302
941,1.56615,53.278
942,1.567817,53.278
943,1.569483,53.247
944,1.571133,53.211
945,1.5728,53.179
946,1.574467,53.179
947,1.576133,53.145
948,1.5778,53.115
949,1.579467,53.096
950,1.581133,53.096
951,1.5828,53.075
952,1.584467,53.045
953,1.586133,53.018
954,1.5878,53.018
955,1.589467,52.985
956,1.591133,52.956
957,1.5928,52.956
958,1.594467,52.927
959,1.596133,52.89
960,1.5978,52.854
961,1.599467,52.854
962,1.601133,52.814
963,1.6028,52.779
964,1.604467,52.745
965,1.606167,52.745
966,1.6078,52.711
967,1.609467,52.678
968,1.611133,52.646
969,1.6128,52.646
970,1.614467,52.62
971,1.616133,52.59
972,1.6178,52.59
973,1.619483,52.561
974,1.621133,52.531
975,1.6228,52.495
976,1.624467,52.495
977,1.62615,52.469
978,1.6278,52.441
979,1.629467,52.411
980,1.631133,52.411
981,1.632817,52.387
982,1.63445,52.356
983,1.636117,52.327
984,1.637783,52.327
985,1.63945,52.299
986,1.641117,52.262
987,1.642767,52.262
988,1.644433,52.231
989,1.6461,52.2
990,1.647767,52.174
991,1.64945,52.174
992,1.6511,52.154
993,1.652767,52.13
994,1.654433,52.1
995,1.6561,52.1
996,1.657767,52.07
997,1.659433,52.039
998,1.6611,52.004
999,1.662767,52.004
1000,1.664433,51.978
1001,1.666217,51.946
1002,1.667767,51.911
1003,1.669433,51.911
1004,1.6711,51.876
1005,1.672767,51.84
1006,1.674433,51.84
1007,1.6761,51.807
1008,1.677767,51.779
1009,1.679433,51.758
1010,1.6811,51.758
1011,1.682767,51.731
1012,1.684433,51.704
1013,1.6861,51.673
1014,1.687767,51.673
1015,1.689433,51.641
1016,1.6911,51.612
1017,1.692783,51.581
1018,1.694467,51.581
1019,1.696083,51.55
