"ID","sea_time","fid_signal"
1,0,141.151
2,0.001667,141.464
3,0.003333,141.494
4,0.005,141.427
5,0.006767,141.427
6,0.008333,141.621
7,0.010033,141.054
8,0.01165,141.092
9,0.013317,141.092
10,0.014983,141.36
11,0.01665,141.039
12,0.018317,141.039
13,0.019983,141.189
14,0.02165,141.017
15,0.023383,141.136
16,0.024983,141.136
17,0.026633,141.345
18,0.0283,141.382
19,0.029967,141.397
20,0.031633,141.397
21,0.0333,140.786
22,0.034967,140.63
23,0.036633,141.047
24,0.0383,141.047
25,0.039967,141.3
26,0.041633,141.65
27,0.0433,141.703
28,0.044967,141.703
29,0.046633,141.643
30,0.0483,141.39
31,0.049967,141.39
32,0.051633,141.345
33,0.0533,141.487
34,0.054967,141.412
35,0.056633,141.412
36,0.0583,141.382
37,0.059967,141.419
38,0.061633,141.196
39,0.0633,141.196
40,0.064967,140.823
41,0.066633,140.92
42,0.0683,140.92
43,0.069967,140.92
44,0.07165000000000001,141.01
45,0.0733,141.144
46,0.07496700000000001,141.144
47,0.07663300000000001,141.144
48,0.07829999999999999,141.323
49,0.079967,141.293
50,0.081633,141.293
51,0.0833,141.218
52,0.084983,141.211
53,0.08666699999999999,140.905
54,0.088283,140.905
55,0.08995,140.913
56,0.091617,141.025
57,0.093283,141.025
58,0.09495000000000001,141.025
59,0.096633,141.203
60,0.098283,141.27
61,0.09995,141.39
62,0.101617,141.39
63,0.103283,141.367
64,0.10495,141.434
65,0.106617,141.434
66,0.108283,141.531
67,0.10995,141.457
68,0.111617,141.606
69,0.113283,141.606
70,0.11495,141.442
71,0.116617,141.01
72,0.118283,140.823
73,0.11995,140.823
74,0.121617,140.771
75,0.123283,140.823
76,0.125,141.166
77,0.126617,141.166
78,0.128283,141.397
79,0.12995,141.338
80,0.131617,141.338
81,0.133283,141.524
82,0.13495,141.494
83,0.136617,141.352
84,0.138283,141.352
85,0.13995,141.449
86,0.141633,141.382
87,0.143283,141.419
88,0.14495,141.419
89,0.1466,141.338
90,0.148267,141.159
91,0.149933,141.107
92,0.1516,141.107
93,0.153267,141.01
94,0.154933,141.203
95,0.1566,141.203
96,0.1583,141.36
97,0.159933,141.285
98,0.1616,141.345
99,0.163317,141.345
100,0.164933,141.136
101,0.1666,141.308
102,0.168267,141.27
103,0.169933,141.27
104,0.1716,141.203
105,0.173267,141.442
106,0.174933,141.203
107,0.1766,141.203
108,0.178267,141.382
109,0.179933,141.688
110,0.1816,141.732
111,0.183267,141.732
112,0.184933,141.859
113,0.1866,141.904
114,0.188267,141.904
115,0.189933,141.934
116,0.1916,142.03
117,0.193267,142.194
118,0.194933,142.194
119,0.1966,142.053
120,0.198267,141.583
121,0.199933,141.017
122,0.2016,141.017
123,0.203267,140.63
124,0.204917,140.682
125,0.206583,140.846
126,0.20825,140.846
127,0.209917,141.442
128,0.211583,141.568
129,0.21325,141.568
130,0.214917,141.598
131,0.216583,141.867
132,0.21825,141.859
133,0.219917,141.859
134,0.221583,141.926
135,0.22325,142.083
136,0.224917,141.948
137,0.2266,141.948
138,0.22825,141.881
139,0.229917,141.747
140,0.2316,141.323
141,0.23325,141.323
142,0.234917,141.345
143,0.236583,141.069
144,0.23825,140.935
145,0.239917,140.935
146,0.241583,141.114
147,0.24325,141.01
148,0.244917,141.01
149,0.246583,141.017
150,0.24825,140.883
151,0.249917,140.727
152,0.251583,140.727
153,0.25325,140.637
154,0.254917,140.533
155,0.256583,140.838
156,0.25825,140.838
157,0.259917,140.913
158,0.261583,140.995
159,0.26325,141.129
160,0.2649,141.129
161,0.266567,141.278
162,0.268233,141.203
163,0.2699,141.203
164,0.271567,141.054
165,0.273233,141.017
166,0.2749,140.928
167,0.276567,140.928
168,0.278233,141.285
169,0.2799,141.397
170,0.281567,141.531
171,0.283233,141.531
172,0.2849,141.487
173,0.286567,141.524
174,0.288233,141.695
175,0.2899,141.695
176,0.291567,141.688
177,0.293233,141.628
178,0.2949,141.576
179,0.296567,141.576
180,0.298233,141.65
181,0.2999,141.74
182,0.301567,141.74
183,0.303217,141.978
184,0.304883,142.522
185,0.3066,143.58
186,0.308217,143.58
187,0.309883,145.428
188,0.31155,148.207
189,0.313217,151.888
190,0.314883,151.888
191,0.31655,156.41
192,0.318217,162.601
193,0.319917,170.767
194,0.32155,170.767
195,0.323217,181.012
196,0.324883,194.527
197,0.326533,194.527
198,0.3282,210.524
199,0.329867,230.014
200,0.331533,253.111
201,0.3332,253.111
202,0.334867,280.35
203,0.336533,313.26
204,0.3382,351.995
205,0.339867,351.995
206,0.341533,398.219
207,0.3432,453.003
208,0.344867,518.1799999999999
209,0.346533,518.1799999999999
210,0.3482,595.249
211,0.349867,685.304
212,0.351533,685.304
213,0.3532,788.8
214,0.354867,904.828
215,0.356533,1032.241
216,0.3582,1032.241
217,0.359867,1168.333
218,0.361583,1309.685
219,0.3632,1452.044
220,0.364867,1452.044
221,0.366533,1590.498
222,0.3682,1720.935
223,0.369867,1839.675
224,0.371533,1839.675
225,0.3732,1943.834
226,0.374867,2031.513
227,0.376533,2101.451
228,0.378233,2101.451
229,0.379867,2153.255
230,0.381533,2187.431
231,0.3832,2187.431
232,0.384867,2205.394
233,0.386517,2208.203
234,0.388183,2197.422
235,0.38985,2197.422
236,0.391517,2175.085
237,0.393183,2142.653
238,0.394967,2101.995
239,0.396517,2101.995
240,0.398183,2054.818
241,0.39985,2002.478
242,0.401517,1946.33
243,0.403183,1946.33
244,0.40485,1887.597
245,0.406517,1827.538
246,0.408183,1827.538
247,0.409883,1767.017
248,0.411517,1706.481
249,0.413183,1646.407
250,0.41485,1646.407
251,0.416517,1587.1
252,0.418183,1528.971
253,0.41985,1472.168
254,0.421517,1472.168
255,0.423183,1417.607
256,0.42485,1364.775
257,0.426517,1313.582
258,0.428183,1313.582
259,0.42985,1264.781
260,0.431517,1217.529
261,0.433183,1172.751
262,0.43485,1172.751
263,0.436517,1130.32
264,0.438183,1089.528
265,0.43985,1089.528
266,0.441517,1050.986
267,0.443183,1014.039
268,0.44485,978.813
269,0.4465,978.813
270,0.448167,945.576
271,0.449833,913.672
272,0.4515,883.497
273,0.453217,883.497
274,0.454833,854.79
275,0.4565,827.521
276,0.458167,801.6900000000001
277,0.459833,801.6900000000001
278,0.4615,776.8049999999999
279,0.463167,753.261
280,0.464833,753.261
281,0.4665,730.835
282,0.468167,709.295
283,0.469833,689.603
284,0.4715,689.603
285,0.473167,670.783
286,0.474833,652.365
287,0.4765,635.177
288,0.478167,635.177
289,0.4799,618.197
290,0.4815,602.067
291,0.483167,587.136
292,0.48485,587.136
293,0.4865,572.95
294,0.488167,559.598
295,0.489833,546.478
296,0.4915,546.478
297,0.493167,534.199
298,0.494833,522.062
299,0.4965,522.062
300,0.498167,510.402
301,0.499833,499.234
302,0.5014999999999999,488.244
303,0.503167,488.244
304,0.504833,477.985
305,0.506483,467.993
306,0.50815,458.926
307,0.509817,458.926
308,0.511483,449.941
309,0.513283,441.559
310,0.514817,433.482
311,0.516483,433.482
312,0.51815,425.808
313,0.519817,418.678
314,0.521483,418.678
315,0.52315,411.488
316,0.524817,404.462
317,0.5265,397.548
318,0.528183,397.548
319,0.529817,390.783
320,0.531483,384.197
321,0.53315,378.147
322,0.534817,378.147
323,0.536483,372.514
324,0.53815,367.105
325,0.539817,362.046
326,0.541483,362.046
327,0.54315,357.024
328,0.544817,351.891
329,0.5464830000000001,346.787
330,0.54815,346.787
331,0.549817,341.885
332,0.5514829999999999,337.042
333,0.553167,337.042
334,0.554817,332.572
335,0.5564829999999999,328.332
336,0.55815,324.503
337,0.559817,324.503
338,0.561483,320.807
339,0.56315,316.881
340,0.564817,313.476
341,0.5664670000000001,313.476
342,0.568133,309.624
343,0.5698,306.182
344,0.571483,303.03
345,0.573167,303.03
346,0.5748,299.647
347,0.576467,296.421
348,0.578133,296.421
349,0.5798,293.21
350,0.581467,289.902
351,0.583133,287.034
352,0.5848,287.034
353,0.586467,284.337
354,0.588133,281.706
355,0.5898,278.927
356,0.591467,278.927
357,0.593133,276.163
358,0.5948,273.712
359,0.59645,271.194
360,0.598183,271.194
361,0.599783,269.331
362,0.60145,267.006
363,0.603117,267.006
364,0.604783,264.779
365,0.60645,262.804
366,0.608117,260.517
367,0.609783,260.517
368,0.61145,258.476
369,0.613117,256.33
370,0.614783,254.355
371,0.6164500000000001,254.355
372,0.618117,252.187
373,0.619783,250.265
374,0.6214499999999999,248.224
375,0.623117,248.224
376,0.624783,246.339
377,0.626433,244.61
378,0.6281,242.829
379,0.629767,242.829
380,0.631517,241.496
381,0.6331,239.499
382,0.634767,239.499
383,0.636433,237.793
384,0.6381,236.183
385,0.639767,234.492
386,0.641433,234.492
387,0.6431,233.3
388,0.644767,232.093
389,0.646433,230.797
390,0.6481,230.797
391,0.649767,229.262
392,0.651433,227.563
393,0.6531,226.095
394,0.654767,226.095
395,0.656433,224.873
396,0.6581,223.57
397,0.659767,223.57
398,0.661483,222.623
399,0.6631,221.476
400,0.664767,220.291
401,0.6664330000000001,220.291
402,0.6681,219.42
403,0.669767,218.593
404,0.6714329999999999,217.773
405,0.673133,217.773
406,0.674767,216.7
407,0.676433,215.508
408,0.6781,214.003
409,0.679767,214.003
410,0.681433,212.662
411,0.6831,211.596
412,0.68475,210.717
413,0.6864170000000001,210.717
414,0.688083,210.054
415,0.68975,209.235
416,0.6914169999999999,209.235
417,0.693083,208.639
418,0.69475,207.983
419,0.696417,207.171
420,0.698083,207.171
421,0.69975,206.336
422,0.701417,205.286
423,0.703083,204.384
424,0.70475,204.384
425,0.706417,203.438
426,0.708083,202.656
427,0.70975,201.985
428,0.711417,201.985
429,0.713083,201.21
430,0.71475,200.532
431,0.716483,199.623
432,0.718083,199.623
433,0.71975,198.729
434,0.721417,197.694
435,0.723083,197.694
436,0.72475,196.993
437,0.726417,196.688
438,0.7281,196.144
439,0.72975,196.144
440,0.731417,195.831
441,0.733083,195.168
442,0.73475,194.453
443,0.736417,194.453
444,0.738083,193.939
445,0.73975,193.194
446,0.741417,193.194
447,0.7431,192.471
448,0.744767,191.748
449,0.7464,190.921
450,0.748067,190.921
451,0.749833,190.355
452,0.7514,189.953
453,0.753067,189.431
454,0.754733,189.431
455,0.7564,188.79
456,0.758067,188.179
457,0.759733,187.494
458,0.7614,187.494
459,0.7630670000000001,186.943
460,0.764733,186.533
461,0.7665,186.026
462,0.7680670000000001,186.026
463,0.769733,185.676
464,0.7714,185.214
465,0.7730669999999999,185.214
466,0.774733,184.961
467,0.7764,184.879
468,0.778067,184.521
469,0.779733,184.521
470,0.7814,184.394
471,0.783067,184.052
472,0.784733,183.441
473,0.7864,183.441
474,0.788067,182.837
475,0.789733,181.943
476,0.7914,181.34
477,0.793067,181.34
478,0.794733,180.863
479,0.7964,180.624
480,0.798067,180.624
481,0.799733,180.222
482,0.8014,179.686
483,0.803067,179.484
484,0.804733,179.484
485,0.806383,179.119
486,0.80805,179.142
487,0.809717,179.015
488,0.811383,179.015
489,0.8130500000000001,178.613
490,0.814717,178.099
491,0.8164,177.607
492,0.8181,177.607
493,0.819767,177.175
494,0.821383,176.676
495,0.8230499999999999,176.638
496,0.824717,176.638
497,0.826383,176.035
498,0.82805,175.796
499,0.829717,175.796
500,0.831383,175.714
501,0.83305,175.066
502,0.834717,174.88
503,0.836383,174.88
504,0.83805,174.418
505,0.839717,173.852
506,0.841383,173.651
507,0.84305,173.651
508,0.8447170000000001,173.397
509,0.846383,173.032
510,0.84805,172.772
511,0.8497169999999999,172.772
512,0.851433,172.608
513,0.85305,172.459
514,0.8547169999999999,172.459
515,0.856383,172.302
516,0.85805,172.049
517,0.859717,171.453
518,0.861383,171.453
519,0.86305,171.028
520,0.864717,170.864
521,0.866367,170.462
522,0.8681,170.462
523,0.8697,170.432
524,0.871367,170.29
525,0.8730329999999999,169.851
526,0.8747,169.851
527,0.876367,169.508
528,0.878033,169.002
529,0.8797,168.554
530,0.881367,168.554
531,0.883033,168.361
532,0.8848,168.51
533,0.88635,168.51
534,0.8880169999999999,168.785
535,0.889683,168.748
536,0.891367,168.465
537,0.89305,168.465
538,0.8947000000000001,168.055
539,0.89635,167.37
540,0.898017,167.094
541,0.899683,167.094
542,0.90135,167.146
543,0.903033,166.893
544,0.904683,166.714
545,0.90635,166.714
546,0.908017,166.528
547,0.909683,166.111
548,0.91135,166.111
549,0.913017,165.857
550,0.914683,165.813
551,0.91635,165.366
552,0.918017,165.366
553,0.919683,165.097
554,0.92135,165.03
555,0.923017,164.747
556,0.924683,164.747
557,0.926333,164.71
558,0.928,164.464
559,0.929667,164.188
560,0.931333,164.188
561,0.9330000000000001,163.995
562,0.934667,163.883
563,0.936333,163.883
564,0.9379999999999999,163.868
565,0.939667,163.935
566,0.941333,163.876
567,0.9429999999999999,163.876
568,0.944667,163.876
569,0.946333,163.622
570,0.948,163.153
571,0.949667,163.153
572,0.951333,162.974
573,0.953017,162.661
574,0.954667,162.721
575,0.956333,162.721
576,0.958,162.877
577,0.959667,162.922
578,0.961333,162.803
579,0.963,162.803
580,0.964717,162.527
581,0.966333,162.251
582,0.968,162.251
583,0.969733,161.894
584,0.971333,161.707
585,0.973,161.514
586,0.974667,161.514
587,0.976333,161.193
588,0.978,161.059
589,0.979667,160.791
590,0.981333,160.791
591,0.983,160.739
592,0.98465,160.776
593,0.986367,160.553
594,0.9879829999999999,160.553
595,0.98965,160.471
596,0.991317,160.247
597,0.9929829999999999,160.247
598,0.99465,160.038
599,0.996317,160.038
600,0.997983,160.091
601,0.99965,160.091
602,1.001317,159.986
603,1.0031,160.135
604,1.00465,160.031
605,1.006317,160.031
606,1.007983,160.053
607,1.00965,160.225
608,1.011317,159.83
609,1.012983,159.83
610,1.01465,159.591
611,1.016317,159.264
612,1.017983,158.787
613,1.01965,158.787
614,1.021317,158.943
615,1.022983,159.1
616,1.02465,159.1
617,1.026317,159.204
618,1.027983,159.07
619,1.02965,158.876
620,1.031317,158.876
621,1.032983,158.601
622,1.03465,158.28
623,1.036317,158.273
624,1.037983,158.273
625,1.03965,158.109
626,1.04135,157.893
627,1.043,157.55
628,1.04465,157.55
629,1.0463,157.587
630,1.047967,157.513
631,1.049633,157.513
632,1.0513,157.617
633,1.052967,157.759
634,1.054633,157.49
635,1.0563,157.49
636,1.057967,157.453
637,1.059633,157.349
638,1.0613,157.006
639,1.062967,157.006
640,1.064633,157.051
641,1.0663,156.701
642,1.067967,156.417
643,1.069633,156.417
644,1.0713,156.462
645,1.072967,156.119
646,1.074633,156.075
647,1.0763,156.075
648,1.077967,155.948
649,1.079633,155.948
650,1.0813,155.948
651,1.082967,155.71
652,1.084633,155.665
653,1.0863,155.464
654,1.087967,155.464
655,1.089633,155.337
656,1.0913,155.471
657,1.092967,155.21
658,1.094633,155.21
659,1.0963,155.278
660,1.097967,155.233
661,1.099633,155.315
662,1.1013,155.315
663,1.102967,155.441
664,1.104683,155.546
665,1.106283,155.546
666,1.10795,155.635
667,1.109617,155.404
668,1.111283,155.136
669,1.11295,155.136
670,1.114617,155.136
671,1.116283,154.95
672,1.117967,154.905
673,1.119617,154.905
674,1.1214,154.92
675,1.12295,154.51
676,1.124617,154.339
677,1.126283,154.339
678,1.12795,154.19
679,1.129617,153.996
680,1.1313,153.765
681,1.13295,153.765
682,1.134617,153.81
683,1.136283,153.996
684,1.13795,153.996
685,1.139617,154.145
686,1.141283,154.056
687,1.14295,153.936
688,1.144617,153.936
689,1.146283,153.81
690,1.14795,153.4
691,1.149617,153.512
692,1.151283,153.512
693,1.15295,153.214
694,1.154617,152.931
695,1.156283,153.117
696,1.15795,153.117
697,1.159617,153.109
698,1.161283,153.445
699,1.16295,153.445
700,1.164617,153.609
701,1.166267,153.519
702,1.167933,153.586
703,1.1696,153.586
704,1.171267,153.199
705,1.172933,152.99
706,1.1746,152.886
707,1.176267,152.886
708,1.177917,152.67
709,1.179583,152.484
710,1.18125,152.67
711,1.183,152.67
712,1.184583,152.692
713,1.18625,152.916
714,1.187917,152.916
715,1.189583,153.191
716,1.19125,153.139
717,1.192917,152.998
718,1.194583,152.998
719,1.19625,152.662
720,1.197917,152.156
721,1.199583,151.865
722,1.20125,151.865
723,1.202917,152.066
724,1.204583,152.022
725,1.20625,152.335
726,1.207917,152.335
727,1.209583,152.282
728,1.21125,152.133
729,1.212917,152.104
730,1.214583,152.104
731,1.21625,152.037
732,1.217917,151.902
733,1.219583,151.902
734,1.22125,151.828
735,1.2229,151.567
736,1.224583,151.277
737,1.226233,151.277
738,1.2279,151.426
739,1.229567,151.15
740,1.231233,151.247
741,1.2329,151.247
742,1.234567,151.269
743,1.236233,150.934
744,1.2379,151.165
745,1.239667,151.165
746,1.241233,151.098
747,1.2429,151.128
748,1.244567,151.128
749,1.246233,151.373
750,1.2479,151.18
751,1.249567,151.418
752,1.251233,151.418
753,1.2529,151.351
754,1.254567,150.993
755,1.256233,150.897
756,1.257917,150.897
757,1.259567,150.74
758,1.261267,150.681
759,1.2629,150.703
760,1.264567,150.703
761,1.266233,150.733
762,1.2679,150.688
763,1.269567,150.74
764,1.271233,150.74
765,1.2729,150.666
766,1.274567,150.628
767,1.276233,150.628
768,1.2779,150.673
769,1.279567,150.606
770,1.281233,150.673
771,1.2829,150.673
772,1.284567,150.837
773,1.286217,150.71
774,1.287883,150.651
775,1.28955,150.651
776,1.291217,150.621
777,1.292883,150.152
778,1.29455,150.204
779,1.296217,150.204
780,1.297883,150.278
781,1.29955,150.271
782,1.301217,150.271
783,1.302883,150.524
784,1.30455,150.345
785,1.306233,150.435
786,1.307883,150.435
787,1.30955,150.45
788,1.311217,150.286
789,1.312883,150.323
790,1.31455,150.323
791,1.316217,150.211
792,1.317883,150.293
793,1.31955,150.308
794,1.321217,150.308
795,1.322883,150.032
796,1.32455,149.816
797,1.326217,149.228
798,1.327933,149.228
799,1.32955,149.079
800,1.331217,149.392
801,1.332883,149.392
802,1.33455,149.541
803,1.336217,149.749
804,1.337917,149.935
805,1.33955,149.935
806,1.341217,149.734
807,1.342883,149.623
808,1.34455,149.764
809,1.3462,149.764
810,1.347867,149.742
811,1.349533,149.682
812,1.3512,149.429
813,1.352867,149.429
814,1.354533,149.25
815,1.3562,149.198
816,1.35795,149.257
817,1.359533,149.257
818,1.3612,149.541
819,1.362867,149.675
820,1.364533,149.675
821,1.3662,149.481
822,1.367867,149.19
823,1.369533,148.84
824,1.3712,148.84
825,1.372867,148.863
826,1.374533,148.81
827,1.3762,148.848
828,1.377867,148.848
829,1.379533,148.721
830,1.3812,148.229
831,1.382867,148.229
832,1.384533,148.393
833,1.3862,148.468
834,1.387867,148.81
835,1.389533,148.81
836,1.3912,149.027
837,1.392867,148.676
838,1.394533,148.52
839,1.3962,148.52
840,1.397867,148.304
841,1.399533,148.378
842,1.4012,148.572
843,1.402867,148.572
844,1.404567,148.587
845,1.406183,148.304
846,1.40785,147.879
847,1.409517,147.879
848,1.411183,147.521
849,1.41285,147.536
850,1.414517,147.536
851,1.416183,147.887
852,1.41785,148.199
853,1.419533,148.363
854,1.421183,148.363
855,1.42285,148.49
856,1.424517,148.311
857,1.426183,148.267
858,1.42785,148.267
859,1.429517,148.274
860,1.431183,148.013
861,1.43285,148.095
862,1.434517,148.095
863,1.436183,147.939
864,1.43785,147.931
865,1.439517,147.931
866,1.441183,147.671
867,1.442867,147.358
868,1.444517,147.671
869,1.446183,147.671
870,1.44785,147.738
871,1.449517,148.125
872,1.451183,148.185
873,1.45285,148.185
874,1.454517,147.782
875,1.456183,147.566
876,1.45785,147.268
877,1.459517,147.268
878,1.461183,147.358
879,1.46285,147.305
880,1.4645,147.358
881,1.466167,147.358
882,1.467833,147.454
883,1.469483,147.261
884,1.47115,147.261
885,1.472817,147.261
886,1.474483,147.179
887,1.476217,147.022
888,1.477817,147.022
889,1.479483,147.149
890,1.481167,147.164
891,1.482817,147.32
892,1.484483,147.32
893,1.48615,147.298
894,1.487817,147.037
895,1.489483,147.253
896,1.49115,147.253
897,1.492817,146.993
898,1.494483,147.082
899,1.49615,147.082
900,1.497817,147.261
901,1.499483,146.94
902,1.50115,146.717
903,1.502817,146.717
904,1.504483,146.791
905,1.50615,146.806
906,1.507817,146.911
907,1.509517,146.911
908,1.51115,147.045
909,1.512817,147.112
910,1.514483,147.052
911,1.51615,147.052
912,1.517817,147.283
913,1.519483,147.521
914,1.52115,147.521
915,1.522817,147.261
916,1.524483,147.544
917,1.526133,147.432
918,1.5278,147.432
919,1.529467,147.253
920,1.531133,147.238
921,1.5328,147.156
922,1.534467,147.156
923,1.536133,147.223
924,1.5378,147.276
925,1.539467,147.417
926,1.541133,147.417
927,1.5428,147.171
928,1.5445,147.015
929,1.546133,146.963
930,1.5478,146.963
931,1.549467,146.598
932,1.551133,146.575
933,1.5528,146.575
934,1.554467,146.359
935,1.556133,146.359
936,1.5578,146.553
937,1.559467,146.553
938,1.561167,146.508
939,1.5628,146.59
940,1.564467,146.411
941,1.566133,146.411
942,1.5678,146.352
943,1.569467,146.285
944,1.571133,146.031
945,1.5728,146.031
946,1.574467,146.277
947,1.576133,146.24
948,1.57785,146.136
949,1.579467,146.136
950,1.581133,146.352
951,1.5828,146.143
952,1.584467,146.143
953,1.586117,146.18
954,1.587783,146.307
955,1.58945,146.531
956,1.591117,146.531
957,1.592783,146.598
958,1.594567,146.642
959,1.596117,146.568
960,1.597783,146.568
961,1.59945,146.307
962,1.601117,146.076
963,1.602783,145.838
964,1.60445,145.838
