"ID","sea_time","fid_signal"
1,0,1170.337
2,0.001667,1167.357
3,0.003317,1170.412
4,0.004983,1170.412
5,0.006767,1173.69
6,0.008317,1176.596
7,0.009983000000000001,1178.086
8,0.011667,1178.086
9,0.01335,1177.266
10,0.014983,1173.69
11,0.01665,1171.157
12,0.018317,1171.157
13,0.019983,1170.784
14,0.02165,1169.592
15,0.023417,1170.114
16,0.024983,1170.114
17,0.02665,1171.157
18,0.028317,1170.71
19,0.029983,1170.71
20,0.03165,1171.231
21,0.033317,1171.604
22,0.034983,1169.667
23,0.03665,1169.667
24,0.038317,1171.231
25,0.039983,1172.796
26,0.04165,1175.18
27,0.043317,1175.18
28,0.044983,1178.607
29,0.04665,1177.937
30,0.048317,1176.894
31,0.049983,1176.894
32,0.05165,1175.106
33,0.053317,1173.69
34,0.054983,1173.69
35,0.05665,1174.212
36,0.058317,1174.137
37,0.059983,1173.988
38,0.061633,1173.988
39,0.063333,1172.796
40,0.06501700000000001,1170.859
41,0.066633,1169.22
42,0.0683,1169.22
43,0.069967,1169.145
44,0.071633,1168.773
45,0.0733,1171.306
46,0.07496700000000001,1171.306
47,0.07663300000000001,1172.647
48,0.07829999999999999,1172.87
49,0.079967,1172.498
50,0.081633,1172.498
51,0.0833,1169.443
52,0.084967,1169.667
53,0.086633,1169.667
54,0.0883,1171.38
55,0.08996700000000001,1175.702
56,0.09163300000000001,1178.756
57,0.09329999999999999,1178.756
58,0.094983,1176.819
59,0.096633,1176.67
60,0.0983,1173.466
61,0.099967,1173.466
62,0.101633,1173.168
63,0.1033,1174.733
64,0.104967,1171.827
65,0.106633,1171.827
66,0.10835,1171.976
67,0.109967,1172.349
68,0.111633,1172.349
69,0.1133,1176.596
70,0.114967,1180.47
71,0.116633,1181.364
72,0.1183,1181.364
73,0.119967,1181.811
74,0.121633,1178.98
75,0.123283,1176.521
76,0.12505,1176.521
77,0.126617,1177.192
78,0.128283,1174.882
79,0.129967,1174.733
80,0.131683,1174.733
81,0.133283,1175.478
82,0.13495,1176
83,0.136617,1177.043
84,0.138283,1177.043
85,0.13995,1176.521
86,0.141717,1174.733
87,0.143283,1174.733
88,0.14495,1174.063
89,0.146617,1174.51
90,0.148283,1174.659
91,0.14995,1174.659
92,0.151617,1176.521
93,0.153283,1174.957
94,0.15495,1172.051
95,0.156617,1172.051
96,0.1584,1169.071
97,0.15995,1169.518
98,0.161617,1169.965
99,0.163283,1169.965
100,0.16495,1170.114
101,0.166617,1172.945
102,0.168283,1172.945
103,0.16995,1170.039
104,0.171617,1171.082
105,0.173283,1171.976
106,0.17495,1171.976
107,0.176617,1171.529
108,0.178283,1175.18
109,0.17995,1173.839
110,0.1816,1173.839
111,0.183267,1177.862
112,0.184983,1179.576
113,0.1866,1176.223
114,0.188267,1176.223
115,0.189933,1175.851
116,0.1916,1173.019
117,0.193267,1172.349
118,0.194933,1172.349
119,0.1966,1173.69
120,0.198267,1176
121,0.19995,1176
122,0.2016,1175.851
123,0.203283,1176.596
124,0.204967,1177.192
125,0.2066,1177.192
126,0.208267,1178.086
127,0.209933,1180.396
128,0.2116,1179.129
129,0.213267,1179.129
130,0.214933,1176.67
131,0.2166,1174.882
132,0.218267,1173.541
133,0.219917,1173.541
134,0.221583,1174.584
135,0.22325,1174.435
136,0.224917,1174.435
137,0.226583,1172.051
138,0.22825,1171.455
139,0.229917,1167.953
140,0.231583,1167.953
141,0.23325,1168.102
142,0.234917,1170.561
143,0.236583,1170.933
144,0.23825,1170.933
145,0.239917,1171.827
146,0.241583,1175.478
147,0.2433,1175.851
148,0.2449,1175.851
149,0.246567,1176.745
150,0.248233,1177.937
151,0.2499,1177.937
152,0.251567,1178.011
153,0.253233,1175.776
154,0.2549,1175.031
155,0.256567,1175.031
156,0.258233,1173.69
157,0.26,1172.498
158,0.261567,1175.255
159,0.263233,1175.255
160,0.2649,1177.788
161,0.266567,1182.705
162,0.268233,1181.737
163,0.2699,1181.737
164,0.271567,1180.246
165,0.273233,1176.149
166,0.274933,1173.765
167,0.276667,1173.765
168,0.278233,1174.137
169,0.2799,1175.106
170,0.281567,1175.106
171,0.28325,1173.913
172,0.2849,1170.337
173,0.286567,1167.432
174,0.288233,1167.432
175,0.2899,1165.122
176,0.291567,1166.835
177,0.293233,1169.071
178,0.2949,1169.071
179,0.296567,1172.051
180,0.298233,1175.255
181,0.2999,1176.819
182,0.301567,1176.819
183,0.303217,1174.882
184,0.304883,1173.765
185,0.30655,1173.765
186,0.308217,1171.231
187,0.309883,1168.996
188,0.31155,1171.902
189,0.313217,1171.902
190,0.314883,1173.243
191,0.31655,1174.733
192,0.318217,1176
193,0.319883,1176
194,0.32155,1175.851
195,0.323217,1175.553
196,0.324883,1176.223
197,0.32655,1176.223
198,0.328217,1176.074
199,0.329883,1175.329
200,0.33155,1178.98
201,0.333217,1178.98
202,0.334883,1182.482
203,0.33655,1184.717
204,0.338217,1184.717
205,0.339883,1186.058
206,0.34155,1185.015
207,0.343217,1182.631
208,0.344917,1182.631
209,0.346583,1182.556
210,0.348217,1183.376
211,0.349883,1185.611
212,0.35155,1185.611
213,0.353217,1187.995
214,0.354883,1190.081
215,0.35655,1192.689
216,0.358217,1192.689
217,0.359883,1192.167
218,0.361567,1189.485
219,0.3632,1189.485
220,0.364867,1188.442
221,0.366533,1185.238
222,0.3682,1182.333
223,0.369867,1182.333
224,0.371533,1182.705
225,0.3732,1183.525
226,0.374883,1183.227
227,0.376533,1183.227
228,0.378217,1185.462
229,0.379867,1185.387
230,0.381533,1180.097
231,0.3832,1180.097
232,0.384867,1180.693
233,0.386533,1175.553
234,0.3882,1171.529
235,0.389867,1171.529
236,0.391533,1174.882
237,0.3932,1174.063
238,0.394983,1174.063
239,0.396533,1175.702
240,0.3982,1177.862
241,0.399867,1178.235
242,0.401533,1178.235
243,0.4032,1177.639
244,0.404867,1179.501
245,0.406533,1179.725
246,0.4082,1179.725
247,0.409867,1180.023
248,0.411533,1179.799
249,0.4132,1176.372
250,0.414867,1176.372
251,0.416533,1177.639
252,0.4182,1175.553
253,0.419867,1175.553
254,0.42155,1176.596
255,0.423233,1176.894
256,0.424883,1176
257,0.426517,1176
258,0.428183,1176.298
259,0.42985,1177.937
260,0.431517,1180.693
261,0.433183,1180.693
262,0.43485,1177.49
263,0.436517,1176.521
264,0.438183,1172.423
265,0.43985,1172.423
266,0.441517,1170.859
267,0.443183,1171.604
268,0.44485,1171.604
269,0.446517,1171.827
270,0.448183,1173.988
271,0.44985,1174.137
272,0.451517,1174.137
273,0.453183,1175.851
274,0.45485,1176.67
275,0.456517,1179.501
276,0.458183,1179.501
277,0.45985,1179.576
278,0.461517,1179.576
279,0.463183,1179.65
280,0.46485,1179.65
281,0.466517,1176.596
282,0.468183,1176.819
283,0.46985,1176.819
284,0.471517,1176.819
285,0.473183,1177.713
286,0.47485,1178.235
287,0.476517,1178.235
288,0.478183,1176.372
289,0.479883,1177.788
290,0.481517,1177.341
291,0.483167,1177.341
292,0.484833,1179.129
293,0.4865,1180.321
294,0.488167,1179.203
295,0.489833,1179.203
296,0.4915,1176.894
297,0.4932,1175.106
298,0.494833,1177.117
299,0.4965,1177.117
300,0.498167,1179.352
301,0.499833,1181.141
302,0.5014999999999999,1181.141
303,0.503167,1179.65
304,0.504833,1178.607
305,0.5065,1176.298
306,0.508167,1176.298
307,0.509833,1174.733
308,0.511483,1175.851
309,0.513267,1177.341
310,0.514817,1177.341
311,0.516483,1181.066
312,0.51815,1183.227
313,0.519817,1183.674
314,0.521483,1183.674
315,0.52315,1182.407
316,0.524817,1179.352
317,0.526483,1178.16
318,0.52815,1178.16
319,0.529817,1179.576
320,0.531483,1180.843
321,0.53315,1180.843
322,0.534817,1180.321
323,0.536483,1180.097
324,0.53815,1177.862
325,0.539817,1177.862
326,0.541483,1176
327,0.543133,1176.447
328,0.5448,1176.372
329,0.546467,1176.372
330,0.548133,1174.51
331,0.549817,1176.074
332,0.551467,1174.882
333,0.553133,1174.882
334,0.5548,1173.317
335,0.556467,1175.031
336,0.558133,1175.031
337,0.5598,1173.615
338,0.561467,1173.839
339,0.563133,1176.894
340,0.564833,1176.894
341,0.56655,1179.352
342,0.568133,1181.29
343,0.5698,1183.078
344,0.5714669999999999,1183.078
345,0.573133,1182.035
346,0.5748,1179.576
347,0.576467,1180.023
348,0.578133,1180.023
349,0.5798,1179.874
350,0.581467,1182.333
351,0.583133,1185.089
352,0.5848,1185.089
353,0.586467,1183.748
354,0.588133,1183.003
355,0.5898,1183.003
356,0.591467,1177.862
357,0.593133,1174.51
358,0.5948,1176.894
359,0.596467,1176.894
360,0.598133,1178.756
361,0.5998,1181.662
362,0.60145,1180.992
363,0.603117,1180.992
364,0.604783,1177.862
365,0.60645,1176.521
366,0.608117,1175.627
367,0.609783,1175.627
368,0.61145,1177.639
369,0.613117,1177.564
370,0.614783,1177.564
371,0.6164500000000001,1177.266
372,0.618117,1178.235
373,0.619783,1178.831
374,0.6214499999999999,1178.831
375,0.623117,1179.874
376,0.624783,1178.682
377,0.62645,1176.67
378,0.628117,1176.67
379,0.629783,1174.212
380,0.6315499999999999,1171.976
381,0.633117,1174.286
382,0.634783,1174.286
383,0.63645,1176.894
384,0.638117,1179.054
385,0.639783,1179.054
386,0.64145,1182.929
387,0.643167,1182.78
388,0.64485,1181.662
389,0.64645,1181.662
390,0.6481170000000001,1181.662
391,0.649783,1179.129
392,0.65145,1179.129
393,0.6531169999999999,1179.129
394,0.654783,1179.129
395,0.65645,1177.043
396,0.658117,1176.67
397,0.659783,1176.67
398,0.66145,1174.212
399,0.6631,1176.819
400,0.664767,1179.278
401,0.6664330000000001,1179.278
402,0.6681,1177.266
403,0.669767,1178.235
404,0.6714329999999999,1178.235
405,0.6731,1174.882
406,0.674767,1175.851
407,0.676433,1180.545
408,0.6781,1180.545
409,0.679767,1180.619
410,0.681433,1179.576
411,0.6831,1174.733
412,0.684767,1174.733
413,0.686433,1172.796
414,0.6881,1174.063
415,0.689767,1175.255
416,0.691433,1175.255
417,0.6931,1176
418,0.694767,1175.776
419,0.696433,1175.776
420,0.6981000000000001,1174.51
421,0.699767,1175.702
422,0.701433,1178.905
423,0.7030999999999999,1178.905
424,0.704767,1176.819
425,0.706433,1176.521
426,0.7081,1178.011
427,0.709767,1178.011
428,0.711433,1177.266
429,0.713117,1176.894
430,0.7147829999999999,1176.67
431,0.7165,1176.67
432,0.7181,1176.298
433,0.719767,1176.223
434,0.721433,1180.545
435,0.723083,1180.545
436,0.72475,1180.917
437,0.726417,1180.768
438,0.728083,1180.768
439,0.72975,1179.799
440,0.731417,1174.957
441,0.733083,1175.255
442,0.73475,1175.255
443,0.736417,1174.957
444,0.738083,1176.745
445,0.73975,1178.309
446,0.741417,1178.309
447,0.743083,1178.831
448,0.74475,1176.521
449,0.746417,1176.149
450,0.7480830000000001,1176.149
451,0.749867,1177.564
452,0.751417,1175.553
453,0.7530829999999999,1175.553
454,0.75475,1178.309
455,0.756417,1179.278
456,0.758083,1177.564
457,0.75975,1177.564
458,0.761417,1176.894
459,0.763083,1172.051
460,0.76475,1169.369
461,0.766417,1169.369
462,0.768083,1167.282
463,0.76975,1166.314
464,0.771417,1168.4
465,0.773083,1168.4
466,0.77475,1170.188
467,0.776417,1174.36
468,0.778083,1177.49
469,0.7797500000000001,1177.49
470,0.781417,1177.49
471,0.783067,1174.584
472,0.784733,1174.584
473,0.7864,1171.678
474,0.788067,1169.443
475,0.78975,1168.102
476,0.791467,1168.102
477,0.79315,1167.729
478,0.794733,1172.125
479,0.7964,1172.423
480,0.798067,1172.423
481,0.799733,1176.149
482,0.8014,1178.682
483,0.80305,1176.745
484,0.804717,1176.745
485,0.806383,1179.576
486,0.80805,1176.819
487,0.809717,1176.819
488,0.811383,1176.447
489,0.8130500000000001,1175.255
490,0.814717,1175.627
491,0.816383,1175.627
492,0.8180500000000001,1178.905
493,0.819717,1178.384
494,0.821383,1179.278
495,0.8230499999999999,1179.278
496,0.824717,1177.862
497,0.826383,1176.596
498,0.82805,1176.745
499,0.829717,1176.745
500,0.831383,1174.882
501,0.83305,1175.925
502,0.834767,1174.957
503,0.836383,1174.957
504,0.83805,1174.659
505,0.839717,1176.596
506,0.841367,1176.596
507,0.843033,1176.521
508,0.8447,1176.298
509,0.846367,1174.584
510,0.848033,1174.584
511,0.8497,1174.063
512,0.851367,1173.839
513,0.853033,1174.286
514,0.8547,1174.286
515,0.856367,1176.968
516,0.858033,1177.266
517,0.8597,1177.043
518,0.861417,1177.043
519,0.8630330000000001,1175.18
520,0.8647,1175.404
521,0.866383,1175.404
522,0.868133,1174.733
523,0.8697,1173.541
524,0.871367,1175.627
525,0.8730329999999999,1175.627
526,0.8747,1174.212
527,0.876367,1173.466
528,0.878033,1173.988
529,0.8797,1173.988
530,0.881367,1174.063
531,0.883033,1174.957
532,0.8847,1174.063
533,0.886367,1174.063
534,0.888033,1172.125
535,0.8897,1173.243
536,0.891367,1173.243
537,0.893033,1173.392
538,0.8947000000000001,1176.894
539,0.896367,1179.501
540,0.898033,1179.501
541,0.8997000000000001,1175.851
542,0.901367,1176
543,0.903017,1174.584
544,0.904683,1174.584
545,0.90635,1174.807
546,0.908017,1177.192
547,0.909683,1175.627
548,0.91135,1175.627
549,0.913017,1176.67
550,0.914683,1173.317
551,0.91635,1170.412
552,0.918017,1170.412
553,0.919683,1170.263
554,0.92135,1168.102
555,0.923017,1168.102
556,0.924683,1171.157
557,0.92635,1176.521
558,0.928033,1176.298
559,0.929683,1176.298
560,0.93135,1175.18
561,0.933017,1172.051
562,0.934683,1166.91
563,0.93635,1166.91
564,0.938017,1169.518
565,0.939683,1172.423
566,0.94135,1174.957
567,0.943033,1174.957
568,0.9446830000000001,1178.086
569,0.94635,1177.639
570,0.948017,1177.639
571,0.9496830000000001,1176.819
572,0.95135,1177.788
573,0.953017,1178.086
574,0.9546829999999999,1178.086
575,0.95635,1178.011
576,0.958017,1178.905
577,0.959683,1175.851
578,0.96135,1175.851
579,0.963,1174.063
580,0.9646670000000001,1175.106
581,0.966333,1172.572
582,0.968,1172.572
583,0.96975,1176.223
584,0.971333,1175.255
585,0.973,1174.137
586,0.974667,1174.137
587,0.976333,1176.521
588,0.978,1174.882
589,0.979667,1174.882
590,0.981333,1178.98
591,0.983,1179.054
592,0.984667,1178.756
593,0.986433,1178.756
594,0.988,1178.086
595,0.989667,1175.404
596,0.991333,1174.286
597,0.993,1174.286
598,0.994667,1171.678
599,0.996333,1171.976
600,0.998,1173.466
601,0.999667,1173.466
602,1.001333,1172.647
603,1.003117,1175.702
604,1.004667,1175.702
605,1.00635,1173.541
606,1.008,1173.168
607,1.009667,1174.51
608,1.011333,1174.51
609,1.013,1172.2
610,1.014667,1172.498
611,1.016333,1169.816
612,1.018,1169.816
613,1.019667,1170.933
614,1.021333,1170.933
615,1.022983,1172.721
616,1.02465,1172.721
617,1.026317,1176
618,1.027983,1173.988
619,1.02965,1173.988
620,1.031317,1176.074
621,1.032983,1174.659
622,1.03465,1172.2
623,1.03635,1172.2
624,1.037983,1173.765
625,1.03965,1171.827
626,1.041317,1173.765
627,1.042983,1173.765
628,1.04465,1174.063
629,1.046317,1173.094
630,1.047983,1177.713
631,1.04965,1177.713
632,1.051317,1178.607
633,1.052983,1180.321
634,1.05465,1180.992
635,1.056317,1180.992
636,1.057983,1177.341
637,1.05965,1176.447
638,1.061317,1176.447
639,1.062983,1176.298
640,1.06465,1175.18
641,1.066317,1177.862
642,1.067983,1177.862
643,1.06965,1178.905
644,1.071333,1179.129
645,1.072983,1181.513
646,1.07465,1181.513
647,1.076317,1180.843
648,1.077983,1178.235
649,1.07965,1176.521
650,1.081317,1176.521
651,1.082967,1174.286
652,1.084633,1174.584
653,1.0863,1174.584
654,1.088033,1174.137
655,1.089633,1174.063
656,1.0913,1175.106
657,1.092967,1175.106
658,1.094617,1174.063
659,1.096283,1178.384
660,1.09795,1179.427
661,1.099617,1179.427
662,1.101283,1178.831
663,1.10295,1175.925
664,1.104683,1171.976
665,1.106283,1171.976
666,1.10795,1169.667
667,1.109617,1169.741
668,1.111283,1172.423
669,1.11295,1172.423
670,1.114617,1172.647
671,1.116283,1175.18
672,1.11795,1175.18
673,1.119617,1176.819
674,1.1214,1176.968
675,1.122967,1181.066
676,1.124617,1181.066
677,1.126283,1181.513
678,1.12795,1180.246
679,1.129617,1178.607
680,1.131283,1178.607
681,1.13295,1174.063
682,1.134617,1173.69
683,1.136283,1173.615
684,1.13795,1173.615
685,1.139617,1174.733
686,1.141283,1178.98
687,1.142933,1178.98
688,1.1446,1180.097
689,1.146267,1183.152
690,1.147933,1182.333
691,1.149617,1182.333
692,1.151317,1182.482
693,1.152933,1181.141
694,1.1546,1181.066
695,1.156267,1181.066
696,1.157933,1184.493
697,1.1596,1183.227
698,1.161267,1184.195
699,1.162933,1184.195
700,1.1646,1183.525
701,1.166267,1182.333
702,1.167933,1182.482
703,1.1696,1182.482
704,1.171267,1182.78
705,1.172933,1181.364
706,1.1746,1181.364
707,1.176267,1181.215
708,1.177933,1180.023
709,1.1796,1181.066
710,1.181283,1181.066
711,1.182933,1181.811
712,1.1846,1182.407
713,1.186267,1184.642
714,1.187933,1184.642
715,1.1896,1183.823
716,1.191267,1182.854
717,1.192933,1181.588
718,1.1946,1181.588
719,1.196267,1181.141
720,1.197933,1182.854
721,1.199617,1182.854
722,1.2013,1183.674
723,1.202917,1185.462
724,1.204583,1185.834
725,1.206317,1185.834
726,1.207917,1185.834
727,1.209583,1186.132
728,1.21125,1185.238
729,1.212917,1185.238
730,1.214583,1186.058
731,1.21625,1185.089
732,1.217917,1187.623
733,1.219583,1187.623
734,1.22125,1187.474
735,1.22295,1187.995
736,1.224583,1187.995
737,1.22625,1190.603
738,1.227917,1190.454
739,1.229583,1194.104
740,1.23125,1194.104
741,1.232917,1195.52
742,1.234583,1193.881
743,1.23625,1195.818
744,1.237917,1195.818
745,1.239683,1196.34
746,1.24125,1193.062
747,1.242917,1194.775
748,1.244583,1194.775
749,1.24625,1193.956
750,1.247917,1193.583
751,1.249583,1198.575
752,1.25125,1198.575
753,1.252917,1199.469
754,1.254583,1197.383
755,1.25625,1197.383
756,1.257917,1194.85
757,1.259583,1192.54
758,1.26125,1193.956
759,1.2629,1193.956
760,1.264567,1194.999
761,1.266233,1198.5
762,1.2679,1203.641
763,1.269567,1203.641
764,1.271233,1206.1
765,1.2729,1207.292
766,1.274567,1207.888
767,1.276233,1207.888
768,1.2779,1208.633
769,1.279567,1205.727
770,1.281233,1205.727
771,1.2829,1207.441
772,1.284567,1208.633
773,1.286233,1209.825
774,1.287917,1209.825
775,1.289567,1210.868
776,1.291233,1214.668
777,1.2929,1214.296
778,1.294617,1214.296
779,1.296233,1213.551
780,1.2979,1215.86
781,1.299567,1215.562
782,1.301233,1215.562
783,1.3029,1216.605
784,1.304567,1214.594
785,1.306233,1214.37
786,1.3079,1214.37
787,1.309567,1213.849
788,1.311233,1215.041
789,1.3129,1215.041
790,1.314567,1215.413
791,1.316233,1218.319
792,1.3179,1220.703
793,1.319567,1220.703
794,1.321233,1220.927
795,1.3229,1223.385
796,1.32455,1224.801
797,1.326217,1224.801
798,1.327883,1224.726
799,1.32955,1225.397
800,1.331217,1224.801
801,1.332883,1224.801
802,1.33455,1224.428
803,1.336217,1227.632
804,1.337883,1227.632
805,1.33955,1229.793
806,1.341217,1230.91
807,1.342883,1228.75
808,1.34455,1228.75
809,1.346217,1227.483
810,1.347883,1229.197
811,1.34955,1230.985
812,1.351217,1230.985
813,1.352883,1235.083
814,1.35455,1237.243
815,1.356217,1239.33
816,1.358,1239.33
817,1.35955,1241.043
818,1.361217,1242.161
819,1.362883,1243.502
820,1.36455,1243.502
821,1.366217,1245.886
822,1.367883,1248.717
823,1.36955,1248.717
824,1.371233,1248.419
825,1.372883,1249.09
826,1.374583,1249.313
827,1.376217,1249.313
828,1.377883,1247.451
829,1.37955,1247.525
830,1.3812,1247.078
831,1.382867,1247.078
832,1.384533,1246.259
833,1.386183,1249.686
834,1.38785,1252.145
835,1.389517,1252.145
836,1.391183,1255.944
837,1.39285,1259.521
838,1.394517,1259.521
839,1.396183,1260.564
840,1.39785,1263.693
841,1.399517,1261.458
842,1.401183,1261.458
843,1.40285,1259.446
844,1.404517,1259.297
845,1.406183,1260.787
846,1.40785,1260.787
847,1.409517,1262.203
848,1.411183,1265.183
849,1.41285,1266.226
850,1.414517,1266.226
851,1.416183,1265.556
852,1.41785,1268.685
853,1.419517,1268.685
854,1.421183,1266.003
855,1.42285,1265.258
856,1.424517,1263.171
857,1.426183,1263.171
858,1.42785,1262.724
859,1.429517,1263.544
860,1.431183,1263.32
861,1.43285,1263.32
862,1.434517,1266.152
863,1.436183,1266.822
864,1.43785,1273.453
865,1.439517,1273.453
866,1.441183,1277.998
867,1.442933,1282.17
868,1.444533,1282.394
869,1.446167,1282.394
870,1.447833,1281.947
871,1.4495,1282.17
872,1.451167,1282.17
873,1.452833,1278.669
874,1.4545,1282.543
875,1.456167,1280.904
876,1.457833,1280.904
877,1.4595,1284.033
878,1.461167,1289.174
879,1.462833,1290.739
880,1.4645,1290.739
881,1.466167,1294.315
882,1.467833,1293.719
883,1.4695,1291.409
884,1.471167,1291.409
885,1.472833,1291.856
886,1.4745,1293.048
887,1.476267,1294.166
888,1.477833,1294.166
889,1.4795,1296.177
890,1.481167,1292.825
891,1.482833,1292.825
892,1.4845,1288.876
893,1.486167,1288.801
894,1.487833,1290.292
895,1.4895,1290.292
896,1.491167,1293.495
897,1.492833,1299.381
898,1.4945,1301.914
899,1.496167,1301.914
900,1.497833,1304.299
901,1.4995,1306.534
902,1.501167,1305.118
903,1.502817,1305.118
904,1.504483,1303.554
905,1.50615,1303.33
906,1.507817,1303.33
907,1.509483,1301.765
908,1.51115,1302.287
909,1.512817,1303.405
910,1.514483,1303.405
911,1.51615,1305.491
912,1.517817,1306.832
913,1.519517,1308.322
914,1.521217,1308.322
915,1.522817,1308.918
916,1.524483,1307.651
917,1.52615,1309.738
918,1.527817,1309.738
919,1.529483,1310.036
920,1.53115,1313.09
921,1.532817,1313.09
922,1.534483,1312.643
