"ID","sea_time","fid_signal"
1,0,1176
2,0.001667,1174.733
3,0.003333,1173.913
4,0.005,1173.913
5,0.0067,1175.18
6,0.00835,1172.125
7,0.01,1170.635
8,0.011667,1170.635
9,0.013333,1171.604
10,0.015,1170.263
11,0.016667,1175.478
12,0.018333,1175.478
13,0.02,1177.415
14,0.021667,1176.074
15,0.023333,1176.074
16,0.02505,1176.745
17,0.026667,1174.584
18,0.028367,1171.753
19,0.03,1171.753
20,0.03165,1172.572
21,0.033317,1171.008
22,0.034983,1168.251
23,0.03665,1168.251
24,0.038317,1170.486
25,0.039983,1169.667
26,0.041733,1172.945
27,0.043317,1172.945
28,0.044983,1173.466
29,0.04665,1173.019
30,0.048317,1173.019
31,0.049983,1174.137
32,0.05165,1173.541
33,0.053333,1173.094
34,0.054983,1173.094
35,0.056633,1171.976
36,0.0583,1169.816
37,0.059967,1171.082
38,0.061633,1171.082
39,0.0633,1175.553
40,0.064967,1177.341
41,0.066633,1181.439
42,0.0683,1181.439
43,0.069967,1182.705
44,0.071633,1179.725
45,0.0733,1179.725
46,0.07496700000000001,1180.023
47,0.07663300000000001,1175.18
48,0.07829999999999999,1169.667
49,0.079967,1169.667
50,0.081633,1168.475
51,0.0833,1165.271
52,0.084967,1164.824
53,0.08666699999999999,1164.824
54,0.0883,1166.761
55,0.08996700000000001,1170.188
56,0.091617,1173.765
57,0.093283,1173.765
58,0.09495000000000001,1176.223
59,0.09661699999999999,1175.776
60,0.098283,1174.584
61,0.09995,1174.584
62,0.101617,1173.913
63,0.103283,1175.627
64,0.10495,1175.627
65,0.106617,1176.819
66,0.108283,1178.533
67,0.109967,1178.98
68,0.111617,1178.98
69,0.113283,1177.341
70,0.11495,1175.925
71,0.116617,1175.329
72,0.118283,1175.329
73,0.11995,1174.286
74,0.121617,1174.51
75,0.123283,1175.404
76,0.12495,1175.404
77,0.126617,1174.659
78,0.128283,1175.329
79,0.12995,1175.329
80,0.131617,1174.212
81,0.133283,1172.945
82,0.13495,1173.466
83,0.136617,1173.466
84,0.138283,1172.796
85,0.13995,1173.988
86,0.141617,1175.925
87,0.143333,1175.925
88,0.14495,1173.839
89,0.146617,1172.125
90,0.148283,1172.498
91,0.14995,1172.498
92,0.151617,1169.741
93,0.153283,1172.796
94,0.154933,1172.945
95,0.1566,1172.945
96,0.1583,1171.306
97,0.16,1174.435
98,0.1616,1174.435
99,0.163267,1172.87
100,0.164933,1176.149
101,0.1666,1176.968
102,0.168267,1176.968
103,0.169933,1177.117
104,0.1716,1177.192
105,0.173267,1174.51
106,0.174933,1174.51
107,0.176717,1172.721
108,0.178267,1169.965
109,0.179933,1168.922
110,0.1816,1168.922
111,0.183267,1167.58
112,0.184933,1169.145
113,0.1866,1169.145
114,0.188267,1171.604
115,0.189933,1172.945
116,0.1916,1175.404
117,0.193267,1175.404
118,0.194933,1174.584
119,0.1966,1172.87
120,0.1983,1169.89
121,0.199933,1169.89
122,0.2016,1171.082
123,0.203267,1173.094
124,0.204933,1174.882
125,0.2066,1174.882
126,0.208267,1178.309
127,0.209933,1177.713
128,0.2116,1175.851
129,0.21325,1175.851
130,0.214917,1175.329
131,0.216583,1175.329
132,0.21825,1175.329
133,0.219917,1173.466
134,0.221583,1174.733
135,0.22325,1174.807
136,0.224917,1174.807
137,0.226583,1172.2
138,0.228267,1173.392
139,0.229917,1172.796
140,0.231583,1172.796
141,0.23325,1173.243
142,0.234917,1175.702
143,0.236583,1174.733
144,0.23825,1174.733
145,0.239917,1176
146,0.241583,1174.51
147,0.24325,1174.51
148,0.244917,1172.349
149,0.246583,1172.721
150,0.24825,1170.188
151,0.249917,1170.188
152,0.251583,1168.251
153,0.25325,1170.784
154,0.254917,1173.392
155,0.256583,1173.392
156,0.25825,1177.564
157,0.259917,1180.693
158,0.261617,1177.564
159,0.26325,1177.564
160,0.264917,1177.415
161,0.266583,1175.702
162,0.26825,1175.702
163,0.269917,1175.925
164,0.271583,1178.011
165,0.273233,1177.564
166,0.2749,1177.564
167,0.276567,1175.18
168,0.2783,1172.87
169,0.2799,1173.466
170,0.281567,1173.466
171,0.283233,1173.466
172,0.2849,1173.094
173,0.286567,1173.392
174,0.288233,1173.392
175,0.2899,1173.466
176,0.291567,1173.168
177,0.293233,1174.36
178,0.295017,1174.36
179,0.296567,1173.69
180,0.298233,1174.212
181,0.2999,1174.212
182,0.301567,1174.137
183,0.303233,1173.466
184,0.3049,1172.274
185,0.3066,1172.274
186,0.308233,1171.157
187,0.3099,1170.114
188,0.311567,1172.87
189,0.313233,1172.87
190,0.3149,1179.203
191,0.316567,1179.725
192,0.318233,1178.756
193,0.3199,1178.756
194,0.321567,1178.682
195,0.323233,1174.286
196,0.3249,1174.286
197,0.326567,1174.36
198,0.328233,1178.384
199,0.3299,1177.862
200,0.331567,1177.862
201,0.333217,1180.545
202,0.334883,1182.482
203,0.33655,1181.96
204,0.338217,1181.96
205,0.339883,1183.376
206,0.34155,1183.227
207,0.343217,1180.693
208,0.344883,1180.693
209,0.346533,1182.109
210,0.3482,1183.078
211,0.349867,1183.972
212,0.351533,1183.972
213,0.3532,1185.983
214,0.354867,1186.356
215,0.356533,1186.356
216,0.358217,1187.921
217,0.359867,1188.07
218,0.361533,1188.07
219,0.3632,1188.07
220,0.364867,1185.909
221,0.366533,1182.556
222,0.3682,1182.705
223,0.369867,1182.705
224,0.371533,1184.493
225,0.373233,1184.642
226,0.374867,1184.419
227,0.376533,1184.419
228,0.3782,1182.78
229,0.379933,1178.756
230,0.381533,1178.756
231,0.3832,1178.086
232,0.384867,1177.192
233,0.386533,1175.255
234,0.3882,1175.255
235,0.389867,1176.819
236,0.391533,1175.851
237,0.393183,1175.925
238,0.39485,1175.925
239,0.396533,1176
240,0.398183,1174.137
241,0.39985,1175.553
242,0.401517,1175.553
243,0.4032,1176.819
244,0.40485,1178.682
245,0.406517,1180.619
246,0.408183,1180.619
247,0.40985,1180.246
248,0.411517,1180.693
249,0.413283,1180.693
250,0.41485,1179.725
251,0.416517,1177.117
252,0.418183,1177.341
253,0.41985,1177.341
254,0.421517,1176.819
255,0.423183,1177.937
256,0.42485,1179.799
257,0.426517,1179.799
258,0.428183,1179.427
259,0.42985,1180.246
260,0.431517,1180.992
261,0.433183,1180.992
262,0.43485,1183.078
263,0.436517,1183.599
264,0.438183,1183.599
265,0.43985,1182.482
266,0.441517,1178.533
267,0.443183,1173.839
268,0.44485,1173.839
269,0.446533,1173.094
270,0.448217,1175.702
271,0.449867,1179.427
272,0.451517,1179.427
273,0.453167,1185.164
274,0.454833,1186.654
275,0.4565,1183.748
276,0.458167,1183.748
277,0.459833,1182.333
278,0.4615,1179.948
279,0.463167,1179.948
280,0.464833,1176.447
281,0.4665,1175.776
282,0.468167,1177.937
283,0.469833,1177.937
284,0.4715,1178.011
285,0.473167,1182.482
286,0.474833,1185.387
287,0.4765,1185.387
288,0.478167,1181.662
289,0.479833,1180.172
290,0.4815,1177.341
291,0.483167,1177.341
292,0.484833,1178.16
293,0.4865,1182.407
294,0.488167,1183.45
295,0.489833,1183.45
296,0.4915,1183.897
297,0.493167,1181.662
298,0.494833,1181.662
299,0.4965,1181.588
300,0.498217,1182.929
301,0.499833,1182.407
302,0.5014999999999999,1182.407
303,0.503167,1179.799
304,0.504833,1177.266
305,0.5065,1178.756
306,0.508167,1178.756
307,0.509833,1179.352
308,0.5115,1183.972
309,0.51315,1185.164
310,0.514867,1185.164
311,0.516483,1184.046
312,0.51815,1186.803
313,0.519867,1184.046
314,0.521533,1184.046
315,0.523183,1185.76
316,0.524817,1184.046
317,0.526483,1184.046
318,0.52815,1182.184
319,0.529817,1185.313
320,0.531583,1184.121
321,0.53315,1184.121
322,0.534817,1184.195
323,0.536483,1183.748
324,0.53815,1180.321
325,0.539817,1180.321
326,0.541483,1179.725
327,0.54315,1179.725
328,0.544817,1179.501
329,0.5464830000000001,1179.501
330,0.54815,1180.246
331,0.549817,1180.693
332,0.5514829999999999,1180.693
333,0.55315,1182.854
334,0.554817,1182.929
335,0.5564829999999999,1185.313
336,0.55815,1185.313
337,0.559817,1184.195
338,0.561483,1181.811
339,0.56315,1183.45
340,0.564817,1183.45
341,0.566483,1182.854
342,0.56815,1185.611
343,0.569817,1186.356
344,0.571483,1186.356
345,0.573133,1186.281
346,0.5748,1183.376
347,0.576467,1183.376
348,0.578133,1181.215
349,0.5798,1181.662
350,0.581467,1178.011
351,0.583133,1178.011
352,0.5848,1177.192
353,0.586467,1174.286
354,0.588133,1173.392
355,0.5898,1173.392
356,0.5915,1175.18
357,0.593133,1178.011
358,0.5948,1180.619
359,0.596467,1180.619
360,0.598133,1180.545
361,0.5998,1180.843
362,0.601483,1182.929
363,0.603133,1182.929
364,0.6048,1183.674
365,0.606467,1184.195
366,0.608133,1184.195
367,0.6098,1183.748
368,0.611467,1182.482
369,0.613133,1179.874
370,0.6148,1179.874
371,0.616533,1180.917
372,0.618133,1183.748
373,0.6198,1180.693
374,0.621467,1180.693
375,0.623133,1182.854
376,0.6248,1180.843
377,0.626467,1178.607
378,0.6281330000000001,1178.607
379,0.6298,1178.458
380,0.631467,1178.607
381,0.633117,1178.607
382,0.634783,1178.682
383,0.63645,1177.266
384,0.6381,1178.086
385,0.639767,1178.086
386,0.641433,1179.501
387,0.6431,1182.184
388,0.644767,1186.132
389,0.646433,1186.132
390,0.6481,1186.43
391,0.649883,1184.94
392,0.651433,1182.556
393,0.6531,1182.556
394,0.654767,1181.215
395,0.656433,1178.831
396,0.6581,1178.831
397,0.659767,1178.831
398,0.661433,1178.905
399,0.6631,1176.67
400,0.6647999999999999,1176.67
401,0.6664330000000001,1181.811
402,0.6681,1182.109
403,0.669767,1181.811
404,0.6714329999999999,1181.811
405,0.6731,1181.513
406,0.674767,1176.596
407,0.676433,1174.957
408,0.6781,1174.957
409,0.679767,1175.478
410,0.681433,1174.212
411,0.6831,1175.851
412,0.684767,1175.851
413,0.686433,1176.074
414,0.6881,1175.702
415,0.6898,1175.702
416,0.691433,1177.415
417,0.6931,1178.309
418,0.69475,1177.415
419,0.696417,1177.415
420,0.698083,1177.49
421,0.69975,1174.882
422,0.701417,1172.572
423,0.703083,1172.572
424,0.70475,1171.604
425,0.706417,1167.58
426,0.708083,1167.357
427,0.70975,1167.357
428,0.711417,1166.463
429,0.713083,1169.369
430,0.71475,1169.369
431,0.716417,1173.541
432,0.718083,1178.235
433,0.71975,1181.364
434,0.721417,1181.364
435,0.723083,1181.439
436,0.72475,1180.843
437,0.726417,1179.054
438,0.728083,1179.054
439,0.72975,1177.564
440,0.731417,1177.415
441,0.7331,1177.266
442,0.7348170000000001,1177.266
443,0.736417,1175.404
444,0.738083,1174.584
445,0.73975,1173.168
446,0.741417,1173.168
447,0.743083,1171.455
448,0.74475,1173.168
449,0.746417,1173.168
450,0.7480830000000001,1174.807
451,0.74975,1176.223
452,0.751517,1176.074
453,0.753067,1176.074
454,0.754733,1177.192
455,0.7564,1176.521
456,0.758067,1177.862
457,0.759733,1177.862
458,0.7614,1180.396
459,0.7630670000000001,1179.725
460,0.764733,1181.215
461,0.7664,1181.215
462,0.7682,1180.321
463,0.769733,1178.458
464,0.7714,1178.458
465,0.7730669999999999,1177.937
466,0.774733,1176.596
467,0.7764,1176.223
468,0.778067,1176.223
469,0.7797500000000001,1178.384
470,0.7814,1179.203
471,0.783067,1178.384
472,0.784733,1178.384
473,0.7864,1175.478
474,0.788067,1172.423
475,0.789733,1170.263
476,0.7914,1170.263
477,0.793067,1170.188
478,0.794733,1171.529
479,0.7964,1172.945
480,0.798067,1172.945
481,0.799733,1176.447
482,0.8014,1177.564
483,0.803067,1177.564
484,0.804733,1175.925
485,0.8064,1176.968
486,0.808067,1172.721
487,0.809733,1172.721
488,0.811433,1171.604
489,0.8130500000000001,1170.784
490,0.814717,1169.667
491,0.816383,1169.667
492,0.8180500000000001,1169.518
493,0.819717,1169.89
494,0.821383,1173.392
495,0.8230499999999999,1173.392
496,0.824717,1174.286
497,0.826383,1177.788
498,0.82805,1177.788
499,0.829717,1176.819
500,0.831383,1176.968
501,0.83305,1174.286
502,0.834717,1174.286
503,0.836383,1172.2
504,0.83805,1174.36
505,0.839717,1174.063
506,0.841383,1174.063
507,0.84305,1176
508,0.8447170000000001,1176.149
509,0.846383,1175.18
510,0.84805,1175.18
511,0.8497169999999999,1175.553
512,0.851383,1174.584
513,0.8531,1172.796
514,0.8547169999999999,1172.796
515,0.856383,1170.933
516,0.85805,1168.102
517,0.859733,1168.102
518,0.861383,1169.071
519,0.86305,1173.913
520,0.864717,1180.172
521,0.866383,1180.172
522,0.86805,1183.003
523,0.869783,1181.066
524,0.871383,1177.266
525,0.8730329999999999,1177.266
526,0.8747,1173.392
527,0.876367,1171.827
528,0.878033,1175.18
529,0.8797,1175.18
530,0.881367,1176.521
531,0.883067,1176.372
532,0.8847,1176.372
533,0.88645,1175.255
534,0.888033,1175.18
535,0.8897,1178.384
536,0.891367,1178.384
537,0.893033,1179.799
538,0.8947000000000001,1182.631
539,0.896367,1181.066
540,0.898033,1181.066
541,0.8997000000000001,1175.851
542,0.901367,1176.745
543,0.90315,1175.851
544,0.9046999999999999,1175.851
545,0.906367,1175.851
546,0.908033,1178.607
547,0.9097,1178.607
548,0.911367,1173.466
549,0.913033,1171.529
550,0.9147,1171.306
551,0.916367,1171.306
552,0.918033,1168.624
553,0.9197,1172.796
554,0.921367,1176.298
555,0.923033,1176.298
556,0.9247,1177.192
557,0.9263670000000001,1177.564
558,0.928033,1174.435
559,0.929683,1174.435
560,0.93135,1174.212
561,0.9330000000000001,1174.659
562,0.934667,1174.286
563,0.936333,1174.286
564,0.9379999999999999,1174.212
565,0.939667,1171.827
566,0.941333,1171.827
567,0.9429999999999999,1171.157
568,0.9447,1173.988
569,0.946333,1174.957
570,0.948,1174.957
571,0.949667,1175.404
572,0.951333,1175.031
573,0.953017,1174.212
574,0.954667,1174.212
575,0.956333,1177.937
576,0.958,1178.682
577,0.959667,1178.16
578,0.961333,1178.16
579,0.963,1175.627
580,0.9646670000000001,1173.541
581,0.966333,1173.541
582,0.968,1173.988
583,0.9696669999999999,1175.925
584,0.971333,1179.054
585,0.973,1179.054
586,0.974667,1179.501
587,0.976333,1180.172
588,0.978,1179.352
589,0.979667,1179.352
590,0.981333,1177.415
591,0.983,1176.149
592,0.984667,1175.18
593,0.986333,1175.18
594,0.988067,1173.913
595,0.989667,1176.521
596,0.991333,1174.212
597,0.9929829999999999,1174.212
598,0.99465,1174.212
599,0.996317,1173.094
600,0.997983,1173.094
601,0.99965,1171.678
602,1.001317,1174.733
603,1.002983,1172.125
604,1.00465,1172.125
605,1.006317,1171.529
606,1.007983,1168.027
607,1.00965,1168.475
608,1.011317,1168.475
609,1.012983,1173.243
610,1.01465,1177.415
611,1.016317,1184.046
612,1.017983,1184.046
613,1.01965,1184.419
614,1.021417,1182.407
615,1.022983,1182.407
616,1.02465,1180.47
617,1.026317,1175.627
618,1.027983,1174.137
619,1.02965,1174.137
620,1.031367,1171.455
621,1.033,1173.094
622,1.034667,1175.702
623,1.036317,1175.702
624,1.037983,1174.435
625,1.03965,1174.36
626,1.041317,1174.807
627,1.042983,1174.807
628,1.04465,1177.49
629,1.046317,1179.725
630,1.047983,1179.725
631,1.04965,1182.482
632,1.051317,1180.768
633,1.052967,1175.18
634,1.054633,1175.18
635,1.0563,1176.149
636,1.057967,1178.16
637,1.059633,1178.905
638,1.0613,1178.905
639,1.062967,1180.693
640,1.064633,1179.427
641,1.0663,1179.65
642,1.067967,1179.65
643,1.069633,1180.47
644,1.0713,1183.152
645,1.072967,1184.046
646,1.074633,1184.046
647,1.0763,1181.886
648,1.077967,1182.407
649,1.079633,1182.407
650,1.0813,1181.439
651,1.082967,1182.854
652,1.084633,1182.78
653,1.0863,1182.78
654,1.087967,1181.886
655,1.08965,1180.396
656,1.0913,1177.862
657,1.092967,1177.862
658,1.094633,1179.352
659,1.0963,1180.321
660,1.097967,1182.035
661,1.099633,1182.035
662,1.1013,1184.791
663,1.103,1184.27
664,1.104717,1184.046
665,1.1063,1184.046
666,1.107967,1183.078
667,1.109633,1181.513
668,1.1113,1181.513
669,1.112967,1180.917
670,1.114617,1180.172
671,1.116283,1180.992
672,1.11795,1180.992
673,1.119617,1180.396
674,1.121283,1180.619
675,1.122967,1180.47
676,1.124617,1180.47
677,1.126283,1181.811
678,1.12795,1182.407
679,1.129617,1183.078
680,1.131283,1183.078
681,1.13295,1186.654
682,1.134617,1186.356
683,1.136283,1186.356
684,1.13795,1189.56
685,1.139733,1192.018
686,1.141283,1190.156
687,1.14295,1190.156
688,1.144617,1190.603
689,1.146283,1190.901
690,1.14795,1192.54
691,1.149617,1192.54
692,1.151283,1197.234
693,1.15295,1198.649
694,1.154617,1198.277
695,1.156283,1198.277
696,1.15795,1196.191
697,1.159617,1193.359
698,1.161283,1193.359
699,1.16295,1196.042
700,1.164617,1196.712
701,1.166283,1197.83
702,1.16795,1197.83
703,1.169617,1200.363
704,1.171283,1197.755
705,1.172933,1198.277
706,1.1746,1198.277
707,1.176267,1198.053
708,1.177967,1196.265
709,1.179683,1198.277
710,1.181267,1198.277
711,1.182933,1197.383
712,1.1846,1198.351
713,1.186267,1201.779
714,1.187933,1201.779
715,1.1896,1201.108
716,1.191267,1203.865
717,1.192933,1203.865
718,1.1946,1206.845
719,1.196267,1204.684
720,1.197933,1206.323
721,1.1996,1206.323
722,1.201267,1208.41
723,1.202933,1209.676
724,1.2046,1213.104
725,1.206267,1213.104
726,1.207933,1215.19
727,1.2096,1216.531
728,1.211267,1213.849
729,1.212933,1213.849
730,1.2146,1214.668
731,1.216267,1217.797
732,1.217933,1217.797
733,1.2196,1216.829
734,1.22125,1217.946
735,1.222917,1217.201
736,1.2246,1217.201
737,1.22625,1216.233
738,1.227917,1216.307
739,1.229583,1221.597
740,1.23125,1221.597
741,1.232917,1223.609
742,1.234567,1223.013
743,1.236233,1225.77
744,1.2379,1225.77
745,1.239567,1225.397
746,1.241317,1228.228
747,1.2429,1228.228
748,1.244567,1231.953
749,1.246233,1234.04
750,1.2479,1236.051
751,1.249567,1236.051
752,1.251267,1238.957
753,1.2529,1240.969
754,1.2546,1244.47
755,1.256233,1244.47
756,1.258,1245.588
757,1.259567,1245.439
758,1.261233,1245.216
759,1.2629,1245.216
760,1.264567,1242.459
761,1.266233,1243.353
762,1.2679,1245.141
763,1.269567,1245.141
764,1.271233,1248.494
765,1.2729,1252.517
766,1.274567,1252.517
767,1.276233,1256.913
768,1.2779,1260.34
769,1.279567,1261.234
770,1.281233,1261.234
771,1.2829,1264.513
772,1.284567,1264.214
773,1.286233,1263.842
774,1.2879,1263.842
775,1.289567,1264.438
776,1.291233,1266.748
777,1.292883,1270.1
778,1.29455,1270.1
779,1.296217,1272.485
780,1.297883,1274.794
781,1.29955,1274.794
782,1.301217,1274.347
783,1.302883,1275.465
784,1.30455,1275.763
785,1.306217,1275.763
786,1.307883,1279.041
787,1.30955,1279.19
788,1.311217,1280.01
789,1.312883,1280.01
790,1.3146,1283.511
791,1.316217,1284.629
792,1.317883,1288.503
793,1.31955,1288.503
794,1.321217,1292.825
795,1.322883,1293.793
796,1.32455,1296.103
797,1.326217,1296.103
798,1.327883,1301.169
799,1.32955,1304.224
800,1.331233,1304.224
801,1.332883,1307.502
802,1.33455,1311.451
803,1.336217,1312.271
804,1.337883,1312.271
805,1.33955,1313.761
806,1.341217,1316.965
807,1.342933,1316.89
808,1.34455,1316.89
809,1.346217,1319.274
810,1.347883,1321.733
811,1.34955,1323.372
812,1.351217,1323.372
813,1.352867,1325.458
814,1.354533,1327.097
815,1.3562,1327.097
816,1.357867,1326.948
817,1.359533,1326.054
818,1.3612,1328.811
819,1.362867,1328.811
820,1.364533,1330.227
821,1.3662,1333.207
822,1.367867,1335.889
823,1.369533,1335.889
824,1.3712,1339.614
825,1.372867,1342.669
826,1.374533,1344.904
827,1.3763,1344.904
828,1.377867,1350.12
829,1.379533,1351.61
830,1.3812,1351.833
831,1.382867,1351.833
832,1.384533,1355.931
833,1.3862,1357.347
834,1.387867,1357.347
835,1.389533,1361.296
836,1.391233,1366.138
837,1.392867,1368.001
838,1.394533,1368.001
839,1.3962,1371.279
840,1.397867,1371.875
841,1.399533,1372.248
842,1.4012,1372.248
843,1.402867,1372.099
844,1.404533,1371.875
845,1.4062,1373.962
846,1.407867,1373.962
847,1.409533,1378.581
848,1.4112,1381.487
849,1.41285,1381.487
850,1.414517,1383.796
851,1.416183,1385.063
852,1.41785,1384.616
853,1.419517,1384.616
854,1.421183,1384.616
855,1.4229,1385.882
856,1.424517,1386.255
857,1.426183,1386.255
858,1.42785,1387.671
859,1.429517,1390.278
860,1.431183,1393.333
861,1.43285,1393.333
862,1.434517,1399.145
863,1.436183,1400.486
864,1.437867,1401.976
865,1.439517,1401.976
866,1.441183,1402.497
867,1.44285,1402.87
868,1.444517,1402.87
869,1.446183,1407.415
870,1.44785,1410.544
871,1.449517,1413.45
872,1.451183,1413.45
873,1.45285,1414.791
874,1.454517,1417.995
875,1.4562,1419.485
876,1.45785,1419.485
877,1.459517,1419.932
878,1.46125,1421.869
879,1.46285,1421.347
880,1.464517,1421.347
881,1.466183,1421.72
882,1.46785,1425.073
883,1.469517,1425.073
884,1.471183,1429.99
885,1.47285,1433.641
886,1.4745,1439.527
887,1.476167,1439.527
888,1.477833,1443.401
889,1.4795,1441.762
890,1.481167,1439.601
891,1.482833,1439.601
892,1.4845,1440.272
893,1.486167,1438.931
894,1.487833,1439.825
895,1.4895,1439.825
896,1.491167,1443.625
897,1.492833,1443.774
898,1.494617,1444.37
899,1.496167,1444.37
900,1.497833,1445.711
901,1.4995,1446.307
902,1.501167,1446.307
903,1.502833,1448.169
904,1.5045,1450.405
905,1.506167,1450.181
906,1.507833,1450.181
907,1.5095,1451.448
908,1.511283,1451.001
909,1.512817,1452.863
910,1.514483,1452.863
911,1.51615,1455.694
912,1.517817,1457.036
913,1.519483,1457.408
914,1.52115,1457.408
915,1.522817,1455.918
916,1.524483,1457.557
917,1.52615,1457.557
918,1.527817,1457.781
919,1.529483,1458.377
920,1.531133,1462.474
921,1.532833,1462.474
922,1.534467,1460.835
923,1.536133,1460.016
