"ID","sea_time","fid_signal"
1,0,1171.082
2,0.001667,1171.082
3,0.003333,1167.282
4,0.005,1167.282
5,0.006767,1166.388
6,0.008333,1162.589
7,0.01,1163.706
8,0.0117,1163.706
9,0.013333,1163.036
10,0.015,1163.781
11,0.016667,1165.718
12,0.018333,1165.718
13,0.02,1164.898
14,0.021667,1165.345
15,0.023417,1165.345
16,0.025,1165.345
17,0.026667,1164.004
18,0.028333,1164.6
19,0.03,1164.6
20,0.031667,1164.153
21,0.033333,1167.282
22,0.035,1169.89
23,0.036667,1169.89
24,0.038333,1171.231
25,0.04,1176.67
26,0.04165,1175.106
27,0.043317,1175.106
28,0.044983,1175.851
29,0.04665,1174.435
30,0.048317,1170.933
31,0.049983,1170.933
32,0.05165,1169.294
33,0.0533,1165.271
34,0.054967,1165.271
35,0.056633,1166.537
36,0.0583,1165.569
37,0.059967,1165.345
38,0.061633,1165.345
39,0.0633,1166.165
40,0.064967,1164.451
41,0.066633,1163.706
42,0.0683,1163.706
43,0.069967,1166.239
44,0.071633,1168.102
45,0.0733,1167.059
46,0.07496700000000001,1167.059
47,0.07663300000000001,1168.996
48,0.07829999999999999,1166.537
49,0.079967,1164.973
50,0.081633,1164.973
51,0.083317,1168.251
52,0.084967,1167.059
53,0.08666699999999999,1167.059
54,0.0883,1167.133
55,0.08996700000000001,1168.251
56,0.09163300000000001,1168.251
57,0.09329999999999999,1168.251
58,0.094967,1168.698
59,0.096633,1168.922
60,0.0983,1167.58
61,0.099967,1167.58
62,0.101633,1164.973
63,0.1033,1162.142
64,0.104967,1162.216
65,0.106633,1162.216
66,0.1083,1162.812
67,0.109967,1161.993
68,0.111633,1161.993
69,0.113283,1164.451
70,0.11495,1166.239
71,0.116617,1167.282
72,0.118283,1167.282
73,0.11995,1171.082
74,0.121617,1170.114
75,0.123283,1168.326
76,0.12495,1168.326
77,0.126617,1166.537
78,0.128283,1162.067
79,0.12995,1162.738
80,0.131617,1162.738
81,0.133283,1162.216
82,0.13495,1162.44
83,0.136617,1165.42
84,0.138283,1165.42
85,0.13995,1167.953
86,0.141683,1167.432
87,0.1433,1167.432
88,0.14495,1164.749
89,0.146617,1165.643
90,0.148283,1163.11
91,0.14995,1163.11
92,0.151617,1163.632
93,0.153283,1166.165
94,0.15495,1163.706
95,0.156617,1163.706
96,0.158283,1162.291
97,0.159983,1162.663
98,0.161617,1163.185
99,0.163283,1163.185
100,0.16495,1163.632
101,0.166617,1167.208
102,0.168283,1167.208
103,0.16995,1167.953
104,0.1716,1169.518
105,0.173267,1172.721
106,0.175067,1172.721
107,0.1766,1170.71
108,0.178267,1172.125
109,0.179933,1170.412
110,0.1816,1170.412
111,0.183267,1168.922
112,0.184933,1168.847
113,0.1866,1166.314
114,0.188267,1166.314
115,0.189933,1168.698
116,0.1916,1168.847
117,0.193267,1168.847
118,0.194933,1168.847
119,0.1966,1170.263
120,0.198267,1167.432
121,0.199933,1167.432
122,0.2016,1167.953
123,0.203267,1167.282
124,0.204933,1166.761
125,0.2066,1166.761
126,0.208267,1167.953
127,0.209933,1164.749
128,0.2116,1165.941
129,0.213267,1165.941
130,0.214933,1165.867
131,0.2166,1166.835
132,0.218267,1168.251
133,0.219933,1168.251
134,0.2216,1169.592
135,0.223267,1171.976
136,0.224933,1171.976
137,0.2266,1171.008
138,0.228267,1169.369
139,0.229933,1167.432
140,0.231617,1167.432
141,0.2333,1167.655
142,0.234967,1168.847
143,0.236583,1173.615
144,0.23825,1173.615
145,0.239917,1176.298
146,0.241583,1173.094
147,0.24325,1172.945
148,0.244917,1172.945
149,0.246583,1170.784
150,0.24825,1167.357
151,0.249917,1167.357
152,0.251583,1167.432
153,0.25325,1168.624
154,0.254917,1166.239
155,0.256583,1166.239
156,0.25825,1163.185
157,0.259967,1164.079
158,0.261583,1161.099
159,0.26325,1161.099
160,0.264917,1160.8
161,0.266583,1161.695
162,0.26825,1160.055
163,0.269917,1160.055
164,0.271583,1158.789
165,0.27325,1161.844
166,0.274917,1164.228
167,0.276617,1164.228
168,0.27825,1165.494
169,0.279917,1168.922
170,0.281583,1168.922
171,0.28325,1167.208
172,0.284917,1166.388
173,0.286583,1168.251
174,0.28825,1168.251
175,0.289917,1169.667
176,0.291567,1172.721
177,0.29335,1174.137
178,0.2949,1174.137
179,0.296567,1171.529
180,0.298233,1169.667
181,0.2999,1165.867
182,0.301567,1165.867
183,0.303233,1167.804
184,0.3049,1168.922
185,0.306567,1168.922
186,0.308233,1167.059
187,0.3099,1166.537
188,0.311583,1164.824
189,0.313233,1164.824
190,0.3149,1166.09
191,0.316567,1167.879
192,0.318233,1168.922
193,0.3199,1168.922
194,0.321567,1168.251
195,0.323233,1165.941
196,0.3249,1164.153
197,0.326567,1164.153
198,0.328233,1163.93
199,0.3299,1162.812
200,0.33155,1163.185
201,0.333217,1163.185
202,0.334883,1163.557
203,0.33655,1166.686
204,0.338217,1166.686
205,0.339883,1166.91
206,0.34155,1165.867
207,0.343217,1161.247
208,0.344883,1161.247
209,0.34655,1157.671
210,0.348217,1161.247
211,0.349883,1165.196
212,0.35155,1165.196
213,0.3532,1170.412
214,0.354867,1170.561
215,0.356533,1168.475
216,0.3582,1168.475
217,0.359867,1164.377
218,0.361533,1162.812
219,0.3632,1162.812
220,0.364867,1163.259
221,0.366533,1166.463
222,0.3682,1167.729
223,0.369867,1167.729
224,0.371533,1169.145
225,0.3732,1170.039
226,0.374867,1166.165
227,0.376533,1166.165
228,0.37825,1165.643
229,0.379867,1164.377
230,0.381533,1164.079
231,0.3832,1164.079
232,0.384867,1166.612
233,0.386533,1166.686
234,0.388233,1166.612
235,0.389867,1166.612
236,0.391533,1168.326
237,0.3932,1169.369
238,0.394883,1169.369
239,0.396533,1171.604
240,0.3982,1172.423
241,0.399867,1169.22
242,0.401533,1169.22
243,0.4032,1166.314
244,0.404867,1163.93
245,0.406533,1167.953
246,0.4082,1167.953
247,0.409867,1169.22
248,0.41165,1168.773
249,0.413183,1170.635
250,0.41485,1170.635
251,0.416517,1167.506
252,0.418183,1169.89
253,0.41985,1169.89
254,0.421517,1174.957
255,0.423183,1177.713
256,0.42485,1181.513
257,0.426517,1181.513
258,0.428183,1188.07
259,0.42985,1196.116
260,0.431517,1204.61
261,0.433183,1204.61
262,0.43485,1215.786
263,0.436517,1230.687
264,0.438183,1244.247
265,0.43985,1244.247
266,0.441517,1266.003
267,0.443183,1291.335
268,0.44485,1291.335
269,0.446517,1315.773
270,0.448183,1351.982
271,0.44985,1387.298
272,0.451517,1387.298
273,0.4532,1430.437
274,0.45485,1477.972
275,0.456517,1525.655
276,0.458183,1525.655
277,0.45985,1581.535
278,0.461517,1637.936
279,0.463183,1698.956
280,0.46485,1698.956
281,0.466533,1759.902
282,0.468183,1820.251
283,0.46985,1881.57
284,0.4715,1881.57
285,0.473167,1943.037
286,0.474833,2003.983
287,0.4765,2003.983
288,0.478167,2062.991
289,0.479833,2117.381
290,0.4815,2171.695
291,0.483167,2171.695
292,0.484833,2219.677
293,0.4865,2269.447
294,0.488167,2317.801
295,0.489833,2317.801
296,0.4915,2356.693
297,0.493167,2394.989
298,0.494833,2426.281
299,0.49655,2426.281
300,0.498167,2454.594
301,0.499833,2480.522
302,0.5014999999999999,2480.522
303,0.503167,2505.928
304,0.504833,2529.1
305,0.5065,2549.067
306,0.508167,2549.067
307,0.509833,2566.65
308,0.5115,2581.105
309,0.513167,2591.535
310,0.514833,2591.535
311,0.5165,2599.135
312,0.518167,2605.99
313,0.519833,2608.672
314,0.5215,2608.672
315,0.523167,2612.695
316,0.524833,2616.867
317,0.5265,2616.122
318,0.5281670000000001,2616.122
319,0.529883,2616.122
320,0.5315,2613.217
321,0.53315,2613.217
322,0.534817,2605.692
323,0.536483,2603.605
324,0.53815,2599.359
325,0.539817,2599.359
326,0.541483,2594.888
327,0.54315,2589.673
328,0.544817,2580.956
329,0.5465,2580.956
330,0.54815,2572.76
331,0.549817,2566.353
332,0.5514829999999999,2562.404
333,0.55315,2562.404
334,0.554817,2557.486
335,0.5565,2553.314
336,0.558183,2553.314
337,0.559817,2543.479
338,0.561483,2534.464
339,0.56315,2524.182
340,0.564817,2524.182
341,0.566483,2514.347
342,0.56815,2503.469
343,0.569817,2490.953
344,0.571483,2490.953
345,0.57315,2480.149
346,0.574817,2470.314
347,0.576483,2462.864
348,0.5781500000000001,2462.864
349,0.579817,2454.296
350,0.581483,2446.473
351,0.5831499999999999,2435.297
352,0.584817,2435.297
353,0.586483,2422.929
354,0.58815,2413.69
355,0.589817,2413.69
356,0.591467,2403.036
357,0.593133,2395.511
358,0.5948,2388.805
359,0.596467,2388.805
360,0.59815,2381.206
361,0.599867,2373.01
362,0.601467,2364.144
363,0.603133,2364.144
364,0.6048,2355.576
365,0.606467,2346.262
366,0.608133,2337.173
367,0.6098,2337.173
368,0.611467,2326.071
369,0.613133,2319.813
370,0.6148670000000001,2319.813
371,0.616467,2311.543
372,0.618133,2303.496
373,0.6198,2295.971
374,0.621467,2295.971
375,0.623117,2284.646
376,0.624783,2275.854
377,0.62645,2267.361
378,0.628117,2267.361
379,0.629783,2259.761
380,0.63145,2250.82
381,0.633117,2242.029
382,0.634783,2242.029
383,0.63645,2235.398
384,0.63815,2227.053
385,0.639783,2227.053
386,0.64145,2219.379
387,0.643117,2210.14
388,0.644783,2200.902
389,0.64645,2200.902
390,0.6482329999999999,2194.196
391,0.649783,2187.118
392,0.651433,2183.989
393,0.6531,2183.989
394,0.654767,2178.252
395,0.656433,2172.589
396,0.6581,2166.48
397,0.659767,2166.48
398,0.661433,2157.465
399,0.6631,2150.386
400,0.664767,2141.893
401,0.6664330000000001,2141.893
402,0.6681,2135.038
403,0.669767,2126.843
404,0.67145,2126.843
405,0.6731,2119.616
406,0.674767,2112.985
407,0.676433,2105.236
408,0.6781,2105.236
409,0.679767,2099.276
410,0.681433,2093.092
411,0.6831,2086.759
412,0.684767,2086.759
413,0.686433,2083.629
414,0.6881,2079.755
415,0.689767,2076.551
416,0.691433,2076.551
417,0.6931,2073.422
418,0.694767,2067.983
419,0.696433,2067.983
420,0.6981000000000001,2057.925
421,0.699767,2046.674
422,0.701433,2036.616
423,0.7030999999999999,2036.616
424,0.704767,2027.601
425,0.706433,2024.397
426,0.7081,2023.727
427,0.70975,2023.727
428,0.711417,2021.343
429,0.713083,2015.307
430,0.71475,2007.559
431,0.716417,2007.559
432,0.718083,1997.054
433,0.71975,1989.827
434,0.721433,1985.505
435,0.723083,1985.505
436,0.7247670000000001,1981.482
437,0.726417,1977.757
438,0.728083,1977.757
439,0.72975,1968.741
440,0.731417,1962.408
441,0.733133,1958.385
442,0.73475,1958.385
443,0.736417,1951.978
444,0.7381,1948.476
445,0.73975,1941.919
446,0.741417,1941.919
447,0.743083,1935.81
448,0.74475,1931.19
449,0.746417,1925.603
450,0.7480830000000001,1925.603
451,0.749817,1920.536
452,0.751417,1918.003
453,0.7530829999999999,1918.003
454,0.75475,1913.16
455,0.756417,1910.329
456,0.758083,1908.317
457,0.75975,1908.317
458,0.761417,1898.11
459,0.763083,1891.553
460,0.76475,1886.338
461,0.7665,1886.338
462,0.768083,1881.793
463,0.76975,1880.601
464,0.7714,1880.079
465,0.7730669999999999,1880.079
466,0.774733,1874.641
467,0.7764,1869.5
468,0.778067,1869.5
469,0.779733,1863.539
470,0.7814,1854.971
471,0.783067,1849.83
472,0.784733,1849.83
473,0.7864,1846.105
474,0.788067,1843.125
475,0.789733,1841.485
476,0.7914,1841.485
477,0.793067,1839.697
478,0.794733,1834.482
479,0.7964,1829.639
480,0.798067,1829.639
481,0.799733,1823.977
482,0.8014,1818.761
483,0.803067,1811.609
484,0.804733,1811.609
485,0.8064,1805.723
486,0.808067,1802.742
487,0.809733,1802.742
488,0.8114,1796.931
489,0.813117,1794.696
490,0.814767,1791.641
491,0.8164,1791.641
492,0.818067,1785.01
493,0.819733,1781.806
494,0.8214,1777.783
495,0.823067,1777.783
496,0.824733,1774.505
497,0.8264,1774.356
498,0.828067,1770.183
499,0.8297330000000001,1770.183
500,0.8314,1766.235
501,0.83305,1761.988
502,0.834717,1761.988
503,0.836383,1758.114
504,0.83805,1758.561
505,0.839717,1755.133
506,0.841383,1755.133
507,0.84305,1754.09
508,0.8447170000000001,1749.024
509,0.846383,1740.232
510,0.84805,1740.232
511,0.8497169999999999,1738.146
512,0.8514,1733.527
513,0.85305,1729.801
514,0.8547169999999999,1729.801
515,0.856383,1731.068
516,0.85805,1725.703
517,0.859717,1723.543
518,0.861383,1723.543
519,0.86305,1721.159
520,0.864717,1715.496
521,0.866383,1715.496
522,0.868167,1713.634
523,0.869717,1709.834
524,0.871383,1704.618
525,0.87305,1704.618
526,0.874717,1701.862
527,0.876383,1698.136
528,0.87805,1693.74
529,0.879717,1693.74
530,0.881383,1691.282
531,0.88305,1683.831
532,0.884783,1678.839
533,0.886383,1678.839
534,0.88805,1675.114
535,0.88975,1671.091
536,0.891383,1671.091
537,0.893033,1670.495
538,0.8947000000000001,1666.769
539,0.896367,1662.224
540,0.898033,1662.224
541,0.8997000000000001,1659.393
542,0.901467,1655.668
543,0.903033,1654.029
544,0.9046999999999999,1654.029
545,0.906367,1653.06
546,0.908033,1652.986
547,0.9097,1653.433
548,0.911367,1653.433
549,0.913033,1651.049
550,0.914683,1647.1
551,0.91635,1643.524
552,0.918017,1643.524
553,0.919683,1641.214
554,0.92135,1638.308
555,0.923017,1638.308
556,0.924683,1634.508
557,0.92635,1630.336
558,0.928017,1623.556
559,0.929683,1623.556
560,0.93135,1619.384
561,0.933017,1619.16
562,0.934683,1618.937
563,0.93635,1618.937
564,0.938017,1620.054
565,0.939683,1620.948
566,0.94135,1619.011
567,0.943017,1619.011
568,0.9446830000000001,1613.721
569,0.94635,1607.612
570,0.948017,1607.612
571,0.9496830000000001,1604.632
572,0.951333,1600.31
573,0.953,1599.267
574,0.9547,1599.267
575,0.956367,1598.895
576,0.958,1597.777
577,0.959667,1598.224
578,0.961333,1598.224
579,0.963,1595.542
580,0.9646670000000001,1595.169
581,0.966333,1593.307
582,0.968,1593.307
583,0.9696669999999999,1590.326
584,0.971333,1587.272
585,0.973,1587.272
586,0.974667,1581.758
587,0.976333,1578.033
588,0.978,1572.743
589,0.979667,1572.743
590,0.981333,1570.359
591,0.983,1567.304
592,0.984667,1562.61
593,0.9864000000000001,1562.61
594,0.988,1561.716
595,0.989667,1560.375
596,0.991333,1560.673
597,0.993,1560.673
598,0.994667,1560.226
599,0.996333,1557.991
600,0.998,1554.862
601,0.999667,1554.862
602,1.001333,1551.956
603,1.003083,1549.646
604,1.004667,1549.646
605,1.006333,1549.125
606,1.008,1547.113
607,1.009667,1544.878
608,1.011333,1544.878
609,1.012983,1542.196
610,1.01465,1540.482
611,1.016317,1538.023
612,1.017983,1538.023
613,1.0197,1535.043
614,1.021317,1532.733
615,1.022983,1527.965
616,1.02465,1527.965
617,1.026317,1528.785
618,1.027983,1527.518
619,1.02965,1527.518
620,1.031367,1526.922
621,1.033017,1526.773
622,1.03465,1525.059
623,1.036317,1525.059
624,1.037983,1524.538
625,1.03965,1521.93
626,1.041317,1520.068
627,1.042983,1520.068
628,1.04465,1517.832
629,1.046317,1517.758
630,1.047983,1517.385
631,1.04965,1517.385
632,1.051317,1515.523
633,1.052983,1511.425
634,1.05465,1503.676
635,1.056317,1503.676
636,1.057983,1498.759
637,1.05965,1496.077
638,1.061317,1496.077
639,1.062983,1494.512
640,1.06465,1495.704
641,1.066317,1494.363
642,1.067983,1494.363
643,1.06965,1492.724
644,1.0713,1492.053
645,1.072967,1490.34
646,1.074633,1490.34
647,1.0763,1490.638
648,1.077967,1488.253
649,1.079633,1484.603
650,1.0813,1484.603
651,1.082967,1484.156
652,1.084633,1482.293
653,1.0863,1482.293
654,1.087967,1479.685
655,1.089633,1481.25
656,1.0913,1479.983
657,1.092967,1479.983
658,1.094633,1479.089
659,1.0963,1478.94
660,1.097983,1475.96
661,1.099633,1475.96
662,1.1013,1472.086
663,1.102967,1468.062
664,1.1047,1466.498
665,1.1063,1466.498
666,1.107967,1465.604
667,1.109667,1464.859
668,1.1113,1465.827
669,1.112967,1465.827
670,1.114633,1463.071
671,1.1163,1462.102
672,1.117967,1462.102
673,1.119633,1462.251
674,1.121333,1458.749
675,1.122967,1461.729
676,1.124633,1461.729
677,1.1263,1461.059
678,1.127967,1458.377
679,1.129633,1460.016
680,1.1313,1460.016
681,1.13295,1456.886
682,1.134617,1454.204
683,1.136283,1455.396
684,1.138067,1455.396
685,1.139617,1453.683
686,1.141283,1452.863
687,1.14295,1452.863
688,1.144617,1449.734
689,1.146283,1445.711
690,1.14795,1443.326
691,1.149617,1443.326
692,1.151283,1441.389
693,1.15295,1443.401
694,1.154617,1443.252
695,1.156283,1443.252
696,1.15795,1442.805
697,1.159617,1442.209
698,1.161283,1439.154
699,1.16295,1439.154
700,1.164617,1438.037
701,1.166283,1434.758
702,1.16795,1431.331
703,1.169617,1431.331
704,1.171283,1429.617
705,1.17295,1427.978
706,1.174617,1427.978
707,1.1763,1429.319
708,1.177967,1431.033
709,1.179617,1430.511
710,1.181283,1430.511
711,1.18295,1431.778
712,1.184617,1429.99
713,1.186283,1425.743
714,1.18795,1425.743
715,1.189617,1422.241
716,1.191283,1415.685
717,1.192983,1411.661
718,1.1946,1411.661
719,1.196267,1411.959
720,1.197933,1412.258
721,1.1996,1412.258
722,1.201267,1412.034
723,1.202933,1411.587
724,1.2046,1412.481
725,1.20625,1412.481
726,1.207917,1413.003
727,1.209583,1415.759
728,1.21125,1416.43
729,1.212917,1416.43
730,1.214583,1413.077
731,1.21625,1411.587
732,1.217917,1408.383
733,1.219583,1408.383
734,1.22125,1404.36
735,1.22295,1404.211
736,1.224583,1404.211
737,1.22625,1404.36
738,1.227917,1401.901
739,1.229583,1404.136
740,1.23125,1404.136
741,1.232917,1401.752
742,1.234583,1400.188
743,1.23625,1399.443
744,1.237917,1399.443
745,1.239667,1397.207
746,1.24125,1396.835
747,1.242917,1396.239
748,1.244583,1396.239
749,1.24625,1397.058
750,1.247917,1396.835
751,1.249617,1397.803
752,1.25125,1397.803
753,1.2529,1395.792
754,1.254567,1392.886
755,1.256333,1392.886
756,1.2579,1391.545
757,1.259567,1388.863
758,1.261233,1388.714
759,1.2629,1388.714
760,1.264567,1386.628
761,1.266233,1384.094
762,1.2679,1384.616
763,1.269567,1384.616
764,1.271233,1383.275
765,1.2729,1384.914
766,1.274567,1387.894
767,1.276233,1387.894
768,1.2779,1386.926
769,1.279567,1386.702
770,1.28125,1386.702
771,1.2829,1384.467
772,1.284567,1381.412
773,1.286233,1378.059
774,1.2879,1378.059
775,1.289567,1374.483
776,1.291233,1373.217
777,1.2929,1368.746
778,1.294567,1368.746
779,1.296233,1371.056
780,1.2979,1374.036
781,1.299567,1377.985
782,1.301233,1377.985
783,1.3029,1381.934
784,1.304567,1378.208
785,1.306233,1376.867
786,1.3079,1376.867
787,1.309567,1375.526
788,1.311217,1374.781
789,1.312883,1374.781
790,1.31455,1374.26
791,1.316233,1371.726
792,1.317933,1368.895
793,1.31955,1368.895
794,1.321217,1367.629
795,1.322883,1366.213
796,1.32455,1365.542
797,1.326217,1365.542
798,1.327883,1365.244
799,1.32955,1364.723
800,1.331217,1363.68
801,1.332883,1363.68
802,1.33455,1360.923
803,1.336217,1358.539
804,1.337883,1358.539
805,1.33955,1359.135
806,1.341283,1358.092
807,1.342883,1358.688
808,1.34455,1358.688
809,1.346217,1358.39
810,1.347883,1355.782
811,1.34955,1358.464
812,1.351217,1358.464
813,1.3529,1359.284
814,1.35455,1358.688
815,1.356217,1357.049
816,1.357883,1357.049
817,1.35955,1353.771
818,1.361217,1350.79
819,1.362917,1348.555
820,1.36455,1348.555
821,1.366217,1347.214
822,1.367883,1346.543
823,1.36955,1346.543
824,1.3712,1345.873
825,1.372867,1347.587
826,1.37465,1348.779
827,1.3762,1348.779
828,1.377867,1349.375
829,1.379533,1351.684
830,1.3812,1351.61
831,1.382867,1351.61
832,1.384533,1351.535
833,1.3862,1350.418
834,1.387867,1345.724
835,1.389533,1345.724
836,1.391233,1344.83
837,1.392867,1346.022
838,1.394533,1346.022
839,1.3962,1347.288
840,1.397867,1351.163
841,1.399533,1351.61
842,1.4012,1351.61
843,1.402867,1346.841
844,1.404533,1342.818
845,1.4062,1337.901
846,1.407867,1337.901
847,1.409533,1334.026
848,1.4112,1335.74
849,1.412867,1338.422
850,1.414533,1338.422
851,1.4162,1342.073
852,1.417867,1344.83
853,1.419533,1344.83
854,1.4212,1344.159
855,1.422867,1342.148
856,1.424533,1341.477
857,1.4262,1341.477
858,1.427867,1338.571
859,1.429533,1336.187
860,1.431183,1337.677
861,1.43285,1337.677
862,1.434517,1334.921
863,1.436183,1333.952
864,1.43785,1334.324
865,1.439517,1334.324
866,1.441183,1330.823
867,1.44285,1329.854
868,1.444517,1330.003
869,1.446183,1330.003
870,1.44785,1326.725
871,1.44955,1323.447
872,1.451183,1323.447
873,1.45285,1323.67
874,1.454517,1322.329
875,1.456183,1324.192
876,1.45785,1324.192
877,1.459567,1328.737
878,1.4612,1326.054
879,1.46285,1324.564
880,1.464517,1324.564
881,1.466183,1323.67
882,1.46785,1321.51
883,1.469517,1323.745
884,1.471183,1323.745
885,1.47285,1324.192
886,1.474517,1322.553
887,1.476183,1322.553
888,1.47785,1320.839
889,1.479517,1317.486
890,1.481183,1317.263
891,1.48285,1317.263
892,1.484517,1320.466
893,1.486183,1319.721
894,1.48785,1321.957
895,1.4895,1321.957
896,1.491167,1320.839
897,1.49295,1318.38
898,1.4945,1317.188
899,1.496167,1317.188
900,1.497817,1315.996
901,1.499483,1315.922
902,1.50115,1314.133
903,1.502817,1314.133
904,1.504483,1315.325
905,1.50615,1314.655
906,1.507817,1314.655
907,1.509483,1315.177
908,1.51115,1315.102
909,1.512817,1314.133
910,1.514483,1314.133
911,1.51615,1313.686
912,1.517817,1312.718
913,1.519483,1312.792
914,1.52115,1312.792
915,1.522817,1314.357
916,1.524483,1312.047
917,1.52615,1312.494
918,1.527833,1312.494
919,1.529483,1310.408
920,1.53115,1308.918
921,1.532817,1308.918
922,1.534483,1311.004
923,1.536183,1309.44
924,1.537833,1311.749
