"ID","sea_time","fid_signal"
1,0,140.138
2,0.00165,139.825
3,0.003317,139.855
4,0.004983,139.855
5,0.00665,140.049
6,0.008317,140.332
7,0.009983000000000001,140.19
8,0.01165,140.19
9,0.013317,139.795
10,0.014983,139.616
11,0.01665,139.616
12,0.018317,139.318
13,0.019983,139.505
14,0.02165,139.616
15,0.023317,139.616
16,0.024983,139.624
17,0.02665,139.639
18,0.028317,139.482
19,0.029983,139.482
20,0.03165,139.415
21,0.033317,139.609
22,0.034983,139.959
23,0.03665,139.959
24,0.038317,140.19
25,0.04,140.458
26,0.041717,140.257
27,0.043317,140.257
28,0.044983,140.153
29,0.04665,139.937
30,0.048317,139.937
31,0.049983,139.914
32,0.05165,140.138
33,0.053317,140.212
34,0.054983,140.212
35,0.05665,140.302
36,0.058383,140.242
37,0.059967,140.317
38,0.061633,140.317
39,0.0633,140.257
40,0.064967,140.429
41,0.066633,140.578
42,0.0683,140.578
43,0.069967,140.414
44,0.071633,140.406
45,0.0733,140.406
46,0.0751,140.071
47,0.07663300000000001,140.183
48,0.07829999999999999,140.153
49,0.079967,140.153
50,0.081633,140.488
51,0.0833,140.719
52,0.084967,140.592
53,0.086633,140.592
54,0.0883,140.756
55,0.08996700000000001,140.205
56,0.09163300000000001,140.287
57,0.09329999999999999,140.287
58,0.094967,140.309
59,0.096633,140.302
60,0.0983,140.741
61,0.099967,140.741
62,0.101633,140.414
63,0.1033,140.28
64,0.104967,140.28
65,0.106633,140.361
66,0.1083,140.004
67,0.109967,140.302
68,0.111633,140.302
69,0.113333,140.257
70,0.114967,139.959
71,0.116633,140.101
72,0.1183,140.101
73,0.11995,140.19
74,0.121617,140.086
75,0.123283,140.011
76,0.12495,140.011
77,0.126633,139.922
78,0.128317,139.795
79,0.12995,139.795
80,0.131617,139.818
81,0.133283,139.81
82,0.13495,139.9
83,0.136617,139.9
84,0.138283,139.907
85,0.13995,140.123
86,0.141617,140.54
87,0.143283,140.54
88,0.14495,140.66
89,0.146617,140.51
90,0.148283,140.637
91,0.14995,140.637
92,0.151633,140.145
93,0.153283,139.832
94,0.15495,139.877
95,0.156617,139.877
96,0.158283,139.922
97,0.159983,140.421
98,0.161617,140.421
99,0.163283,140.399
100,0.16495,140.183
101,0.166617,139.78
102,0.168283,139.78
103,0.16995,139.706
104,0.171617,139.929
105,0.173283,140.466
106,0.17495,140.466
107,0.17665,140.89
108,0.178283,141.017
109,0.179933,140.905
110,0.1816,140.905
111,0.183267,140.63
112,0.184933,140.421
113,0.1866,140.421
114,0.188267,140.391
115,0.189933,140.488
116,0.191667,140.294
117,0.193367,140.294
118,0.194917,140.056
119,0.196583,139.616
120,0.19825,139.631
121,0.199917,139.631
122,0.201583,139.929
123,0.20325,140.034
124,0.204917,140.086
125,0.206583,140.086
126,0.20825,139.862
127,0.209917,139.579
128,0.211583,139.579
129,0.21325,139.527
130,0.214917,139.847
131,0.2166,140.049
132,0.21825,140.049
133,0.219917,140.063
134,0.221583,140.317
135,0.22325,140.078
136,0.224917,140.078
137,0.226583,140.16
138,0.22825,140.384
139,0.229917,140.332
140,0.231583,140.332
141,0.23325,140.376
142,0.234917,140.473
143,0.236583,140.473
144,0.23825,140.473
145,0.2399,140.421
146,0.241567,140.51
147,0.243233,140.51
148,0.2449,140.54
149,0.246567,140.421
150,0.248233,140.309
151,0.2499,140.309
152,0.251567,140.272
153,0.253233,139.996
154,0.254917,140.056
155,0.256567,140.056
156,0.258233,140.205
157,0.2599,140.257
158,0.261567,140.406
159,0.263233,140.406
160,0.2649,140.205
161,0.266567,139.914
162,0.268233,139.914
163,0.2699,139.825
164,0.271567,139.691
165,0.273233,139.743
166,0.2749,139.743
167,0.276567,139.959
168,0.278233,140.056
169,0.2799,140.309
170,0.281567,140.309
171,0.283233,140.496
172,0.2849,140.525
173,0.286567,140.302
174,0.288233,140.302
175,0.2899,140.175
176,0.291567,140.183
177,0.293233,140.026
178,0.294917,140.026
179,0.296583,140.294
180,0.298217,140.354
181,0.299883,140.354
182,0.30155,140.242
183,0.303217,140.429
184,0.304883,140.399
185,0.30655,140.399
186,0.308217,140.153
187,0.309883,140.056
188,0.311667,140.019
189,0.313217,140.019
190,0.314883,139.929
191,0.31655,139.84
192,0.318217,139.9
193,0.319883,139.9
194,0.32155,140.108
195,0.323217,140.376
196,0.324883,140.376
197,0.326567,140.786
198,0.328217,140.823
199,0.329883,140.712
200,0.33155,140.712
201,0.33325,140.57
202,0.334883,140.347
203,0.33655,140.563
204,0.338217,140.563
205,0.339883,140.54
206,0.34155,140.794
207,0.343217,141.27
208,0.344883,141.27
209,0.34655,141.345
210,0.348217,141.628
211,0.349883,141.524
212,0.35155,141.524
213,0.353217,141.293
214,0.354883,141.293
215,0.35655,141.293
216,0.358217,141.181
217,0.359867,141.099
218,0.361533,141.181
219,0.3632,141.181
220,0.364867,141.121
221,0.366533,141.151
222,0.3682,141.382
223,0.369867,141.382
224,0.371533,141.479
225,0.3732,141.65
226,0.374867,141.457
227,0.376533,141.457
228,0.3782,141.285
229,0.3799,141.121
230,0.381533,141.121
231,0.3832,140.98
232,0.384867,141.211
233,0.386533,141.241
234,0.3882,141.241
235,0.389867,141.248
236,0.391533,141.293
237,0.3932,141.241
238,0.394867,141.241
239,0.396583,141.308
240,0.3982,141.524
241,0.399867,141.732
242,0.401533,141.732
243,0.4032,141.926
244,0.404867,141.673
245,0.406533,141.673
246,0.408233,141.419
247,0.409867,141.211
248,0.411533,140.883
249,0.4132,140.883
250,0.414867,141.144
251,0.416533,141.174
252,0.4182,141.323
253,0.41985,141.323
254,0.421517,141.449
255,0.423183,141.39
256,0.42485,141.338
257,0.426517,141.338
258,0.428183,141.218
259,0.42985,141.181
260,0.431517,140.95
261,0.433183,140.95
262,0.43485,140.995
263,0.436517,140.771
264,0.438183,140.771
265,0.43985,140.868
266,0.441517,141.181
267,0.443183,141.248
268,0.44485,141.248
269,0.446517,141.315
270,0.448183,141.151
271,0.44985,141.189
272,0.451517,141.189
273,0.453183,141.263
274,0.45485,141.315
275,0.456517,141.308
276,0.458183,141.308
277,0.45985,141.092
278,0.461517,141.047
279,0.463183,141.047
280,0.46485,140.779
281,0.466517,140.66
282,0.4682,140.697
283,0.46985,140.697
284,0.471517,140.66
285,0.473183,140.965
286,0.47485,141.136
287,0.476517,141.136
288,0.478183,141.293
289,0.479833,141.047
290,0.481533,140.965
291,0.48315,140.965
292,0.484817,141.069
293,0.486483,140.756
294,0.48815,140.943
295,0.489817,140.943
296,0.491483,140.712
297,0.49315,140.622
298,0.494817,140.622
299,0.496483,140.928
300,0.49815,140.935
301,0.499817,141.434
302,0.5014999999999999,141.434
303,0.50315,141.39
304,0.504817,140.89
305,0.506483,140.719
306,0.50815,140.719
307,0.509817,140.443
308,0.511483,140.138
309,0.51315,140.488
310,0.514883,140.488
311,0.516483,140.771
312,0.51815,141.017
313,0.519817,141.017
314,0.521483,141.546
315,0.52315,141.68
316,0.524817,141.233
317,0.526483,141.233
318,0.52815,140.98
319,0.529817,141.054
320,0.531483,140.876
321,0.53315,140.876
322,0.534817,141.114
323,0.536483,141.241
324,0.53815,140.972
325,0.5397999999999999,140.972
326,0.541467,141.285
327,0.543133,141.427
328,0.5448,141.427
329,0.546467,141.591
330,0.548217,141.636
331,0.5498,141.196
332,0.551467,141.196
333,0.553133,141.166
334,0.5548,140.943
335,0.556467,140.905
336,0.558167,140.905
337,0.5598,141.032
338,0.561467,141.211
339,0.563133,141.159
340,0.5648,141.159
341,0.5664670000000001,140.876
342,0.568133,140.883
343,0.5698,140.592
344,0.5714669999999999,140.592
345,0.573133,140.63
346,0.5748,141.069
347,0.576467,141.069
348,0.578133,140.749
349,0.5798,140.429
350,0.581467,140.451
351,0.583133,140.451
352,0.5848,140.198
353,0.586467,140.406
354,0.588133,140.794
355,0.5898,140.794
356,0.591467,140.734
357,0.593133,141.039
358,0.5948,141.121
359,0.596467,141.121
360,0.598133,141.039
361,0.599783,141.203
362,0.60145,141.203
363,0.603117,141.136
364,0.604783,141.345
365,0.60645,141.457
366,0.608117,141.457
367,0.609783,141.717
368,0.61145,141.941
369,0.613117,142.194
370,0.614783,142.194
371,0.6164500000000001,142.597
372,0.618117,142.701
373,0.6198,143.096
374,0.6214499999999999,143.096
375,0.623117,143.193
376,0.624783,143.327
377,0.626483,143.573
378,0.628117,143.573
379,0.629783,143.744
380,0.63145,144.28
381,0.6331830000000001,144.28
382,0.634783,144.802
383,0.63645,145.182
384,0.638117,145.696
385,0.639783,145.696
386,0.64145,146.195
387,0.643117,146.933
388,0.644783,147.618
389,0.64645,147.618
390,0.6481170000000001,148.319
391,0.649783,149.213
392,0.65145,149.906
393,0.6531169999999999,149.906
394,0.654783,150.956
395,0.65645,151.999
396,0.658117,151.999
397,0.659767,152.7
398,0.661433,153.549
399,0.6631,154.547
400,0.664767,154.547
401,0.66655,155.21
402,0.6681,156.082
403,0.669767,157.125
404,0.6714329999999999,157.125
405,0.6731,158.086
406,0.674767,159.1
407,0.676433,160.404
408,0.6781,160.404
409,0.679767,161.618
410,0.681433,162.713
411,0.6831,164.151
412,0.684767,164.151
413,0.686433,165.418
414,0.6881,166.64
415,0.689767,166.64
416,0.691433,167.988
417,0.6931,169.307
418,0.694767,170.916
419,0.696433,170.916
420,0.69815,172.429
421,0.699767,173.986
422,0.701433,175.67
423,0.7030999999999999,175.67
424,0.704767,177.056
425,0.706433,178.635
426,0.7081,180.23
427,0.709767,180.23
428,0.711433,181.69
429,0.7131,183.202
430,0.7148,183.202
431,0.716433,184.789
432,0.7181,186.525
433,0.71975,188.254
434,0.721417,188.254
435,0.723083,190.131
436,0.72475,192.046
437,0.726417,193.849
438,0.728083,193.849
439,0.7297670000000001,195.459
440,0.731417,197.157
441,0.733083,198.595
442,0.73475,198.595
443,0.736417,200.003
444,0.738083,201.628
445,0.73975,203.252
446,0.741417,203.252
447,0.743083,205.152
448,0.74475,207.044
449,0.746417,207.044
450,0.7480830000000001,208.914
451,0.74975,210.822
452,0.751467,212.312
453,0.7530829999999999,212.312
454,0.75475,213.891
455,0.756417,215.627
456,0.758083,217.013
457,0.75975,217.013
458,0.761417,218.54
459,0.763083,220.09
460,0.76475,221.573
461,0.766417,221.573
462,0.768167,223.294
463,0.76975,225.238
464,0.77145,225.238
465,0.773083,226.84
466,0.774733,228.129
467,0.7764,229.359
468,0.778067,229.359
469,0.779717,230.685
470,0.781383,232.279
471,0.78305,234.015
472,0.78485,234.015
473,0.7863830000000001,235.431
474,0.78805,236.765
475,0.789717,237.733
476,0.7913829999999999,237.733
477,0.79305,238.821
478,0.794717,240.266
479,0.796383,240.266
480,0.79805,241.376
481,0.799717,242.777
482,0.801383,244.088
483,0.80305,244.088
484,0.804717,245.333
485,0.8064,246.987
486,0.80805,248.536
487,0.809717,248.536
488,0.811383,249.676
489,0.8130500000000001,250.839
490,0.814717,251.718
491,0.816383,251.718
492,0.8180500000000001,252.597
493,0.819717,253.499
494,0.821383,254.378
495,0.8230499999999999,254.378
496,0.824717,255.302
497,0.826383,256.084
498,0.82805,256.084
499,0.829717,257.269
500,0.831383,258.088
501,0.83305,258.96
502,0.834717,258.96
503,0.836383,259.936
504,0.83805,260.778
505,0.8397,261.784
506,0.841367,261.784
507,0.843033,262.588
508,0.844733,263.274
509,0.846367,264.205
510,0.848033,264.205
511,0.8497,264.98
512,0.851367,265.65
513,0.853033,265.65
514,0.8547,266.328
515,0.856367,266.843
516,0.858033,267.342
517,0.8597,267.342
518,0.861367,268.146
519,0.8630330000000001,268.958
520,0.8647,269.622
521,0.866367,269.622
522,0.8680330000000001,270.545
523,0.8697,271.253
524,0.871367,271.931
525,0.8730329999999999,271.931
526,0.8747,272.624
527,0.876367,272.818
528,0.878033,273.25
529,0.8797,273.25
530,0.881367,273.608
531,0.883033,274.062
532,0.8847,274.062
533,0.88645,274.599
534,0.888033,275.031
535,0.8897,275.262
536,0.891367,275.262
537,0.893033,275.724
538,0.8947000000000001,276.163
539,0.896367,276.513
540,0.898033,276.513
541,0.899683,277.117
542,0.90135,276.983
543,0.9031169999999999,277.117
544,0.9046999999999999,277.117
545,0.90635,277.318
546,0.908017,277.452
547,0.909683,277.452
548,0.91135,277.832
549,0.913017,278.242
550,0.914683,278.354
551,0.91635,278.354
552,0.918017,278.54
553,0.919783,278.838
554,0.921383,279.009
555,0.923017,279.009
556,0.924683,279.658
557,0.92635,279.993
558,0.928017,280.321
559,0.929683,280.321
560,0.93135,280.797
561,0.933017,280.73
562,0.934683,280.835
563,0.93635,280.835
564,0.938017,280.969
565,0.939683,280.932
566,0.94135,280.932
567,0.943017,280.835
568,0.9446830000000001,280.783
569,0.94635,280.671
570,0.948017,280.671
571,0.9496830000000001,280.954
572,0.95135,281.371
573,0.953017,281.937
574,0.9546829999999999,281.937
575,0.95635,281.982
576,0.958017,281.915
577,0.959667,281.967
578,0.961333,281.967
579,0.963,281.803
580,0.9646670000000001,282.019
581,0.966333,282.019
582,0.968,282.258
583,0.9696669999999999,282.198
584,0.971367,282.183
585,0.973,282.183
586,0.974667,282.243
587,0.976333,282.273
588,0.978,282.556
589,0.979667,282.556
590,0.981333,282.608
591,0.983,282.839
592,0.984667,282.63
593,0.986333,282.63
594,0.988017,282.422
595,0.989667,282.332
596,0.991333,282.332
597,0.993,282.116
598,0.994667,282.072
599,0.996333,282.042
600,0.998,282.042
601,0.999667,281.945
602,1.001333,281.908
603,1.003,281.759
604,1.004733,281.759
605,1.006333,281.833
606,1.008,281.692
607,1.009667,281.587
608,1.011333,281.587
609,1.013,281.773
610,1.014667,281.654
611,1.016333,281.863
612,1.018,281.863
613,1.019667,282.004
614,1.021383,282.101
615,1.022983,282.101
616,1.02465,282.295
617,1.026317,282.235
618,1.027983,282.086
619,1.02965,282.086
620,1.031317,282.101
621,1.032983,281.796
622,1.03465,281.736
623,1.036317,281.736
624,1.038067,281.692
625,1.03965,281.356
626,1.041317,281.289
627,1.042983,281.289
628,1.04465,281.282
629,1.046317,281.259
630,1.047983,281.259
631,1.04965,281.207
632,1.051317,281.021
633,1.052983,280.932
634,1.05465,280.932
635,1.056317,280.917
636,1.057983,280.79
637,1.0597,280.82
638,1.061317,280.82
639,1.062983,280.559
640,1.06465,280.291
641,1.066333,280.179
642,1.067967,280.179
643,1.069633,279.911
644,1.0713,279.933
645,1.072967,279.926
646,1.074633,279.926
647,1.0763,279.672
648,1.07795,279.792
649,1.079633,279.792
650,1.081283,279.643
651,1.08295,279.531
652,1.084617,279.531
653,1.086283,279.531
654,1.08795,279.248
655,1.089617,279.039
656,1.091283,278.883
657,1.09295,278.883
658,1.094617,278.86
659,1.096283,278.883
660,1.09795,278.89
661,1.099617,278.89
662,1.101283,278.741
663,1.10295,278.547
664,1.104617,278.547
665,1.106283,278.369
666,1.10795,278.413
667,1.109617,278.339
668,1.111283,278.339
669,1.11295,278.205
670,1.114617,277.966
671,1.116283,277.773
672,1.11795,277.773
673,1.119617,277.564
674,1.121283,277.385
675,1.123,277.422
676,1.124617,277.422
677,1.126283,276.99
678,1.12795,276.96
679,1.129617,276.804
680,1.131283,276.804
681,1.13295,276.513
682,1.134617,276.58
683,1.136283,276.58
684,1.137983,276.439
685,1.139717,276.387
686,1.141267,276.528
687,1.142933,276.528
688,1.1446,276.29
689,1.146267,276.275
690,1.147933,275.932
691,1.1496,275.932
692,1.151267,275.396
693,1.152933,275.359
694,1.1546,275.12
695,1.156367,275.12
696,1.157933,275.314
697,1.1596,275.455
698,1.161267,275.455
699,1.162933,275.21
700,1.1646,274.852
701,1.166267,274.628
702,1.167933,274.628
703,1.1696,274.494
704,1.171267,274.33
705,1.172933,274.248
706,1.1746,274.248
707,1.176267,273.943
708,1.177933,273.883
709,1.1796,273.801
710,1.181267,273.801
711,1.182933,273.6
712,1.1846,273.593
713,1.186267,273.593
714,1.187933,273.034
715,1.1896,272.796
716,1.191267,272.423
717,1.192933,272.423
718,1.1946,272.192
719,1.196267,272.08
720,1.197933,271.991
721,1.199583,271.991
722,1.20125,272.162
723,1.202917,271.946
724,1.204583,271.961
725,1.20625,271.961
726,1.207917,272.028
727,1.209583,271.834
728,1.21125,271.782
729,1.21295,271.782
730,1.214583,271.477
731,1.21625,271.156
732,1.217917,271.156
733,1.219583,271.037
734,1.22125,270.709
735,1.222917,270.583
736,1.224583,270.583
737,1.22625,270.538
738,1.227917,270.441
739,1.229583,270.545
740,1.23125,270.545
741,1.232917,270.538
742,1.234583,270.143
743,1.23625,270.091
744,1.237917,270.091
745,1.239583,269.808
746,1.24125,269.487
747,1.242917,269.487
748,1.244583,269.122
749,1.24625,268.593
750,1.247917,268.467
751,1.249583,268.467
752,1.25125,268.377
753,1.252917,268.556
754,1.254583,268.549
755,1.25625,268.549
756,1.2579,268.534
757,1.259567,268.221
758,1.261233,267.893
759,1.2629,267.893
760,1.264567,267.662
761,1.266233,267.498
762,1.2679,267.603
763,1.269567,267.603
764,1.271233,267.468
765,1.2729,267.237
766,1.274617,267.237
767,1.276233,266.783
768,1.2779,266.239
769,1.279567,265.993
770,1.281233,265.993
771,1.2829,265.896
772,1.284567,265.643
773,1.286233,265.963
774,1.287917,265.963
775,1.289567,266.008
776,1.291317,265.829
777,1.2929,266.068
778,1.294567,266.068
779,1.296233,265.479
780,1.2979,265.159
781,1.299567,265.159
782,1.301233,265.092
783,1.3029,264.741
784,1.304567,264.712
785,1.306233,264.712
786,1.3079,264.794
787,1.309567,264.66
788,1.311233,264.443
789,1.3129,264.443
790,1.314567,264.496
791,1.316233,264.309
792,1.3179,263.989
793,1.31955,263.989
794,1.321217,264.145
795,1.322883,263.684
796,1.32455,263.356
797,1.326217,263.356
798,1.327883,263.385
799,1.32955,263.02
800,1.331217,263.02
801,1.332883,263.363
802,1.33455,263.475
803,1.336217,263.333
804,1.337883,263.333
805,1.33955,263.14
806,1.341217,262.834
807,1.342883,262.618
808,1.34455,262.618
809,1.346217,262.64
810,1.347883,262.618
811,1.34955,262.551
812,1.351217,262.551
813,1.352883,262.491
814,1.354583,262.089
815,1.356217,262.089
816,1.357867,261.717
817,1.3596,261.27
818,1.361233,260.979
819,1.362867,260.979
820,1.364533,261.165
821,1.3662,261.284
822,1.367867,261.21
823,1.369533,261.21
824,1.3712,261.366
825,1.372867,260.875
826,1.374533,260.577
827,1.376183,260.577
828,1.377867,260.569
829,1.379517,260.368
830,1.381183,260.368
831,1.38285,260.562
832,1.384517,260.562
833,1.386183,260.629
834,1.38785,260.629
835,1.389517,260.174
836,1.391183,259.75
837,1.39295,259.444
838,1.394517,259.444
839,1.396183,259.064
840,1.39785,259.228
841,1.399517,259.258
842,1.401183,259.258
843,1.40285,259.228
844,1.404517,259.273
845,1.406183,258.997
846,1.40785,258.997
847,1.409517,258.751
848,1.411183,258.58
849,1.41285,258.58
850,1.414517,258.207
851,1.416183,258.029
852,1.41785,258.014
853,1.419517,258.014
854,1.421183,257.82
855,1.42285,257.857
856,1.424517,257.574
857,1.426183,257.574
858,1.42785,257.246
859,1.429533,257.47
860,1.431183,257.254
861,1.43285,257.254
862,1.434517,257.641
863,1.436183,257.686
864,1.43785,257.686
865,1.4395,257.462
866,1.441167,257.202
867,1.442833,256.769
868,1.4445,256.769
869,1.446167,256.345
870,1.447833,255.823
871,1.449533,255.622
872,1.451167,255.622
873,1.452833,255.011
874,1.4545,254.728
875,1.456167,254.437
876,1.457833,254.437
877,1.4595,254.221
878,1.461167,254.713
879,1.462833,255.086
880,1.4645,255.086
881,1.466167,255.57
882,1.467833,255.845
883,1.4695,255.845
884,1.471167,255.369
885,1.472833,255.123
886,1.4745,254.691
887,1.476167,254.691
888,1.477883,254.437
889,1.4795,254.214
890,1.481167,253.916
891,1.482833,253.916
892,1.4845,253.893
893,1.486167,253.618
894,1.487833,253.521
895,1.4895,253.521
896,1.491167,253.648
897,1.492833,253.625
898,1.494483,253.625
899,1.496167,253.551
900,1.497817,253.461
901,1.499483,253.059
902,1.501167,253.059
903,1.502867,252.694
904,1.504483,252.567
905,1.50615,252.448
906,1.507817,252.448
907,1.509483,252.344
908,1.511267,252.105
909,1.512817,251.837
910,1.514483,251.837
911,1.51615,251.904
912,1.517817,252.046
913,1.519483,251.956
914,1.52115,251.956
915,1.522817,252.008
916,1.524483,251.487
917,1.52615,251.487
918,1.527817,250.846
919,1.529483,250.541
920,1.53115,250.079
921,1.532817,250.079
922,1.534483,249.974
923,1.536167,250.25
924,1.537817,250.466
925,1.539483,250.466
926,1.54115,250.705
927,1.542817,250.645
928,1.544483,250.429
929,1.54615,250.429
930,1.547817,250.153
931,1.549483,250.094
932,1.55115,250.094
933,1.552817,250.317
934,1.554483,250.034
935,1.55615,249.602
936,1.557817,249.602
937,1.559467,249.259
938,1.561133,248.775
939,1.5628,248.834
940,1.564467,248.834
941,1.566133,248.939
942,1.5678,248.633
943,1.569467,248.79
944,1.571133,248.79
945,1.572833,248.611
946,1.574467,248.663
947,1.576133,248.663
948,1.5778,248.484
949,1.579467,248.075
950,1.581133,247.583
951,1.5828,247.583
952,1.584467,247.151
953,1.586133,247.143
954,1.5878,246.935
955,1.589467,246.935
956,1.591133,247.017
957,1.5928,246.92
958,1.594467,247.002
959,1.59615,247.002
960,1.5978,247.084
961,1.599467,247.061
962,1.601133,247.173
963,1.6028,247.173
964,1.604467,246.8
965,1.606133,246.651
