"ID","sea_time","fid_signal"
1,0,1171.306
2,0.001667,1170.263
3,0.003333,1173.913
4,0.005,1173.913
5,0.006667,1173.019
6,0.00835,1168.4
7,0.01,1170.412
8,0.011667,1170.412
9,0.013333,1170.039
10,0.015,1167.953
11,0.016667,1169.369
12,0.018333,1169.369
13,0.020067,1169.667
14,0.021667,1169.816
15,0.023333,1171.529
16,0.025,1171.529
17,0.02665,1171.753
18,0.028317,1171.529
19,0.029983,1171.529
20,0.03165,1169.667
21,0.033317,1168.251
22,0.034983,1166.91
23,0.036717,1166.91
24,0.038317,1164.898
25,0.039983,1166.537
26,0.04165,1172.274
27,0.043317,1172.274
28,0.044983,1175.851
29,0.04665,1177.862
30,0.048317,1178.011
31,0.049983,1178.011
32,0.05165,1175.776
33,0.053417,1173.168
34,0.054983,1170.188
35,0.056667,1170.188
36,0.058317,1167.357
37,0.059983,1163.408
38,0.06165,1163.408
39,0.063317,1165.494
40,0.064983,1169.071
41,0.06665,1172.572
42,0.0683,1172.572
43,0.070067,1173.69
44,0.071633,1174.584
45,0.0733,1171.753
46,0.07496700000000001,1171.753
47,0.07663300000000001,1170.859
48,0.07829999999999999,1173.392
49,0.079967,1170.337
50,0.081633,1170.337
51,0.0833,1169.741
52,0.08495,1167.506
53,0.086617,1167.506
54,0.088283,1167.059
55,0.08995,1167.432
56,0.091617,1169.443
57,0.093283,1169.443
58,0.09495000000000001,1168.624
59,0.09661699999999999,1169.443
60,0.0983,1169.741
61,0.09995,1169.741
62,0.101617,1168.475
63,0.103283,1170.039
64,0.10495,1166.761
65,0.106617,1166.761
66,0.108283,1166.016
67,0.10995,1167.655
68,0.111617,1169.816
69,0.113283,1169.816
70,0.11495,1169.741
71,0.116617,1170.635
72,0.118283,1170.635
73,0.11995,1167.357
74,0.121617,1163.781
75,0.123283,1164.079
76,0.124983,1164.079
77,0.126617,1162.812
78,0.128283,1166.239
79,0.12995,1166.314
80,0.131617,1166.314
81,0.133283,1169.294
82,0.13495,1171.753
83,0.136617,1173.094
84,0.138283,1173.094
85,0.13995,1174.733
86,0.141617,1172.647
87,0.143283,1172.647
88,0.144933,1170.263
89,0.1466,1166.537
90,0.148267,1163.781
91,0.149933,1163.781
92,0.1516,1162.514
93,0.153267,1165.569
94,0.155017,1165.047
95,0.1566,1165.047
96,0.158283,1165.792
97,0.159933,1166.612
98,0.1616,1167.432
99,0.163267,1167.432
100,0.164933,1170.784
101,0.1666,1173.765
102,0.168267,1174.584
103,0.169933,1174.584
104,0.171683,1173.615
105,0.173267,1173.615
106,0.174933,1173.615
107,0.1766,1170.859
108,0.178267,1172.2
109,0.179933,1167.655
110,0.1816,1167.655
111,0.183267,1164.973
112,0.184933,1164.377
113,0.1866,1162.44
114,0.1884,1162.44
115,0.189933,1165.345
116,0.1916,1165.271
117,0.193267,1169.518
118,0.194933,1169.518
119,0.1966,1168.549
120,0.198267,1170.784
121,0.199933,1170.784
122,0.2016,1170.933
123,0.20325,1167.655
124,0.20495,1170.337
125,0.206583,1170.337
126,0.20825,1167.133
127,0.209917,1169.592
128,0.211583,1172.498
129,0.21325,1172.498
130,0.214917,1170.486
131,0.216583,1172.945
132,0.21825,1170.635
133,0.219917,1170.635
134,0.221583,1167.208
135,0.22325,1166.09
136,0.224917,1166.09
137,0.226583,1163.632
138,0.22825,1162.216
139,0.229917,1164.973
140,0.231583,1164.973
141,0.23325,1168.922
142,0.234917,1169.592
143,0.236583,1170.412
144,0.23825,1170.412
145,0.239917,1168.996
146,0.241583,1165.867
147,0.24325,1165.42
148,0.244917,1165.42
149,0.246583,1165.345
150,0.24825,1165.271
151,0.249917,1165.345
152,0.251583,1165.345
153,0.25325,1167.506
154,0.254917,1171.827
155,0.256583,1171.827
156,0.25825,1171.902
157,0.259917,1171.678
158,0.261583,1171.902
159,0.26325,1171.902
160,0.264933,1171.082
161,0.266617,1171.008
162,0.268233,1171.082
163,0.2699,1171.082
164,0.271567,1171.306
165,0.27335,1169.518
166,0.2749,1171.529
167,0.276567,1171.529
168,0.278233,1171.678
169,0.2799,1168.549
170,0.281567,1168.549
171,0.283233,1165.643
172,0.2849,1163.632
173,0.286567,1163.781
174,0.288233,1163.781
175,0.289917,1164.004
176,0.291567,1165.271
177,0.293233,1168.251
178,0.2949,1168.251
179,0.296567,1171.604
180,0.298233,1172.796
181,0.2999,1176.372
182,0.301567,1176.372
183,0.303233,1182.109
184,0.3049,1191.199
185,0.306667,1208.708
186,0.308233,1208.708
187,0.3099,1231.581
188,0.311567,1255.199
189,0.313233,1255.199
190,0.3149,1283.958
191,0.316567,1318.902
192,0.318233,1357.943
193,0.3199,1357.943
194,0.321567,1404.956
195,0.323233,1458.228
196,0.3249,1520.291
197,0.32655,1520.291
198,0.328217,1592.264
199,0.329883,1673.102
200,0.33155,1771.078
201,0.333217,1771.078
202,0.334883,1890.361
203,0.33655,2038.702
204,0.338217,2038.702
205,0.339883,2228.618
206,0.34155,2471.06
207,0.343217,2784.505
208,0.344917,2784.505
209,0.346617,3188.699
210,0.348217,3696.457
211,0.349883,4321.784
212,0.35155,4321.784
213,0.353217,5050.227
214,0.354883,5865.47
215,0.35655,6738.827
216,0.358217,6738.827
217,0.359867,7622.987
218,0.361533,8478.834999999999
219,0.3632,9261.593000000001
220,0.364867,9261.593000000001
221,0.366533,9932.071
222,0.3682,10467.47
223,0.369867,10467.47
224,0.371533,10850.578
225,0.3732,11077.3
226,0.374867,11156.499
227,0.376533,11156.499
228,0.3782,11100.247
229,0.379867,10926.649
230,0.381533,10656.268
231,0.3832,10656.268
232,0.384867,10317.415
233,0.386517,9925.290999999999
234,0.388183,9499.714
235,0.38985,9499.714
236,0.391517,9055.808999999999
237,0.393183,8600.503000000001
238,0.39485,8600.503000000001
239,0.396517,8150.861
240,0.398183,7712.618
241,0.39985,7290.766
242,0.401517,7290.766
243,0.403183,6893.724
244,0.40485,6513.447
245,0.406517,6154.85
246,0.4082,6154.85
247,0.40985,5822.927
248,0.411517,5509.332
249,0.413183,5218.014
250,0.41485,5218.014
251,0.416517,4950.091
252,0.418183,4702.21
253,0.41985,4702.21
254,0.42155,4473.701
255,0.4232,4264.415
256,0.42495,4068.986
257,0.426517,4068.986
258,0.428183,3885.552
259,0.42985,3716.946
260,0.431517,3560.483
261,0.433183,3560.483
262,0.43485,3418.252
263,0.436517,3288.835
264,0.438183,3169.85
265,0.43985,3169.85
266,0.441517,3059.581
267,0.443183,2956.614
268,0.44485,2860.65
269,0.4465,2860.65
270,0.448167,2769.008
271,0.449833,2687.275
272,0.4515,2687.275
273,0.453167,2610.013
274,0.454833,2538.636
275,0.4565,2472.997
276,0.458167,2472.997
277,0.459833,2408.773
278,0.4615,2351.776
279,0.463167,2299.1
280,0.464833,2299.1
281,0.4665,2249.405
282,0.468167,2203.36
283,0.469833,2160.37
284,0.4715,2160.37
285,0.473167,2118.2
286,0.474833,2078.563
287,0.4765,2078.563
288,0.478167,2042.726
289,0.479833,2007.112
290,0.4815,1974.925
291,0.483167,1974.925
292,0.484833,1943.186
293,0.4865,1911.372
294,0.4882,1883.954
295,0.489833,1883.954
296,0.4915,1855.046
297,0.493167,1828.372
298,0.494833,1804.307
299,0.4965,1804.307
300,0.498167,1782.104
301,0.499833,1762.584
302,0.5014999999999999,1743.212
303,0.503167,1743.212
304,0.50485,1723.543
305,0.506533,1703.948
306,0.50815,1703.948
307,0.5099,1685.47
308,0.511483,1671.091
309,0.51315,1659.319
310,0.514817,1659.319
311,0.516483,1643.896
312,0.51815,1631.156
313,0.519817,1620.576
314,0.521483,1620.576
315,0.52315,1605.153
316,0.524817,1592.413
317,0.526483,1579.523
318,0.52815,1579.523
319,0.529817,1566.037
320,0.531483,1556.054
321,0.53315,1556.054
322,0.534817,1546.145
323,0.536483,1536.831
324,0.53815,1524.314
325,0.539817,1524.314
326,0.541483,1514.629
327,0.5432670000000001,1505.613
328,0.544817,1494.139
329,0.5464830000000001,1494.139
330,0.54815,1488.253
331,0.549817,1482.889
332,0.5514829999999999,1474.544
333,0.55315,1474.544
334,0.554817,1468.956
335,0.5564829999999999,1462.176
336,0.55815,1451.001
337,0.559817,1451.001
338,0.561483,1446.828
339,0.56315,1441.836
340,0.564833,1441.836
341,0.566517,1435.354
342,0.568133,1432.225
343,0.5698,1424.402
344,0.5714669999999999,1424.402
345,0.573133,1415.014
346,0.5748,1406.223
347,0.576467,1401.827
348,0.578133,1401.827
349,0.5798,1396.164
350,0.581467,1393.482
351,0.583133,1390.055
352,0.5848,1390.055
353,0.586467,1380.816
354,0.588133,1375.973
355,0.5898,1375.973
356,0.591467,1373.589
357,0.593133,1368.821
358,0.5948,1366.138
359,0.5965,1366.138
360,0.598133,1363.158
361,0.5998,1358.092
362,0.601467,1353.1
363,0.603133,1353.1
364,0.6048,1351.237
365,0.606467,1347.363
366,0.608133,1342.222
367,0.6098,1342.222
368,0.611467,1340.732
369,0.613133,1337.156
370,0.6148169999999999,1335.219
371,0.616467,1335.219
372,0.618133,1331.94
373,0.6198,1327.321
374,0.621467,1327.321
375,0.623133,1324.117
376,0.6248,1319.945
377,0.62645,1318.529
378,0.628183,1318.529
379,0.629783,1318.157
380,0.631483,1316.816
381,0.633117,1314.58
382,0.634783,1314.58
383,0.63645,1313.463
384,0.638117,1311.153
385,0.639783,1306.087
386,0.64145,1306.087
387,0.643117,1303.032
388,0.644783,1298.711
389,0.64645,1298.711
390,0.6481170000000001,1296.699
391,0.649783,1298.115
392,0.651433,1298.04
393,0.6531,1298.04
394,0.654767,1294.762
395,0.656433,1293.421
396,0.6581,1291.26
397,0.659767,1291.26
398,0.6615,1286.864
399,0.6631,1286.045
400,0.664767,1280.159
401,0.6664330000000001,1280.159
402,0.6681,1275.167
403,0.669767,1274.794
404,0.6714329999999999,1274.794
405,0.6731,1276.284
406,0.674767,1280.457
407,0.676433,1279.712
408,0.6781,1279.712
409,0.679767,1279.265
410,0.681433,1274.422
411,0.683133,1271.814
412,0.684767,1271.814
413,0.6864170000000001,1271.74
414,0.688083,1272.261
415,0.68975,1272.112
416,0.6914169999999999,1272.112
417,0.693083,1268.983
418,0.69475,1264.811
419,0.696417,1261.085
420,0.698083,1261.085
421,0.69975,1262.426
422,0.701417,1260.489
423,0.703083,1260.489
424,0.70475,1261.085
425,0.70645,1259.744
426,0.708083,1256.615
427,0.70975,1256.615
428,0.711417,1257.434
429,0.713083,1253.709
430,0.71475,1253.262
431,0.716417,1253.262
432,0.718083,1252.666
433,0.71975,1248.196
434,0.721417,1248.27
435,0.723083,1248.27
436,0.72475,1244.62
437,0.726417,1242.31
438,0.728083,1242.31
439,0.72975,1244.396
440,0.731417,1246.259
441,0.733083,1247.749
442,0.73475,1247.749
443,0.736417,1246.929
444,0.738083,1246.035
445,0.73975,1245.588
446,0.741417,1245.588
447,0.743083,1242.831
448,0.74475,1240.522
449,0.7464499999999999,1239.777
450,0.748067,1239.777
451,0.749733,1236.796
452,0.7514,1240.373
453,0.753067,1242.906
454,0.754733,1242.906
455,0.7564,1240.447
456,0.758067,1240.224
457,0.759733,1240.224
458,0.7614,1234.114
459,0.7630670000000001,1228.526
460,0.764767,1229.197
461,0.7664,1229.197
462,0.7680670000000001,1229.867
463,0.769733,1231.059
464,0.7714,1233.518
465,0.7730669999999999,1233.518
466,0.774733,1233.22
467,0.7764,1229.569
468,0.778067,1227.856
469,0.779767,1227.856
470,0.7814,1225.62
471,0.783067,1221.746
472,0.784733,1221.746
473,0.7864,1221.076
474,0.788067,1221.448
475,0.78975,1222.491
476,0.7914,1222.491
477,0.793067,1222.64
478,0.794733,1221.821
479,0.7964,1220.033
480,0.798067,1220.033
481,0.799733,1221.15
482,0.8014,1223.236
483,0.803067,1224.801
484,0.804733,1224.801
485,0.806383,1224.726
486,0.80805,1221.746
487,0.809717,1221.746
488,0.811383,1221.001
489,0.8130500000000001,1220.554
490,0.814717,1219.064
491,0.816383,1219.064
492,0.8180500000000001,1220.405
493,0.819717,1218.468
494,0.821383,1218.17
495,0.8230499999999999,1218.17
496,0.824717,1220.927
497,0.826383,1218.915
498,0.82805,1217.648
499,0.829717,1217.648
500,0.831383,1218.021
501,0.83305,1216.456
502,0.834717,1214.072
503,0.836383,1214.072
504,0.83805,1216.158
505,0.839717,1214.892
506,0.841383,1214.892
507,0.84305,1214.892
508,0.8447170000000001,1214.966
509,0.846383,1213.253
510,0.848083,1213.253
511,0.8497169999999999,1211.539
512,0.851417,1210.794
513,0.85305,1212.507
514,0.8547169999999999,1212.507
515,0.856383,1212.135
516,0.85805,1212.507
517,0.859717,1209.825
518,0.861383,1209.825
519,0.86305,1210.943
520,0.864717,1208.931
521,0.866367,1208.931
522,0.8680330000000001,1206.547
523,0.8697,1207.888
524,0.871367,1207.441
525,0.8730329999999999,1207.441
526,0.8747,1210.645
527,0.876367,1213.178
528,0.878033,1213.476
529,0.8797,1213.476
530,0.881433,1213.253
531,0.883033,1212.507
532,0.8847,1209.602
533,0.886367,1209.602
534,0.888033,1210.943
535,0.8897,1208.261
536,0.891367,1207.739
537,0.893033,1207.739
538,0.8947000000000001,1207.739
539,0.896367,1207.218
540,0.8981170000000001,1207.218
541,0.8997000000000001,1206.845
542,0.901367,1202.375
543,0.903033,1199.171
544,0.9046999999999999,1199.171
545,0.906367,1193.732
546,0.908033,1193.285
547,0.9097,1193.583
548,0.911367,1193.583
549,0.913033,1199.693
550,0.914817,1201.704
551,0.916367,1202.449
552,0.918033,1202.449
553,0.9197,1203.418
554,0.921367,1200.885
555,0.923033,1200.885
556,0.9247,1200.959
557,0.92635,1199.32
558,0.92805,1200.438
559,0.929733,1200.438
560,0.931433,1199.767
561,0.933017,1200.661
562,0.934683,1200.736
563,0.93635,1200.736
564,0.938017,1202.226
565,0.939683,1201.704
566,0.94135,1201.108
567,0.9429999999999999,1201.108
568,0.944667,1202.524
569,0.946333,1198.5
570,0.948,1199.245
571,0.949667,1199.245
572,0.951333,1197.681
573,0.953,1196.861
574,0.954667,1196.861
575,0.956333,1197.308
576,0.958,1197.159
577,0.959667,1195.297
578,0.961333,1195.297
579,0.963,1194.626
580,0.964683,1196.191
581,0.966333,1194.254
582,0.968,1194.254
583,0.9696669999999999,1196.042
584,0.971333,1196.563
585,0.973,1196.191
586,0.974667,1196.191
587,0.976333,1196.265
588,0.978,1195.148
589,0.979667,1195.148
590,0.981333,1192.018
591,0.983,1190.677
592,0.984667,1193.285
593,0.986317,1193.285
594,0.9879829999999999,1195.595
595,0.98965,1197.159
596,0.991317,1195.297
597,0.9929829999999999,1195.297
598,0.99465,1191.348
599,0.996317,1191.124
600,0.998,1193.136
601,0.999717,1193.136
602,1.001317,1194.701
603,1.002983,1194.924
604,1.00465,1194.924
605,1.006317,1195.446
606,1.007983,1193.956
607,1.00965,1195.073
608,1.011317,1195.073
609,1.012983,1193.509
610,1.01465,1192.167
611,1.016383,1188.517
612,1.017983,1188.517
613,1.01965,1187.399
614,1.021317,1188.815
615,1.022983,1187.399
616,1.02465,1187.399
617,1.026317,1189.634
618,1.027983,1189.113
619,1.02965,1189.336
620,1.031317,1189.336
621,1.0331,1188.591
622,1.03465,1190.379
623,1.036317,1190.379
624,1.037983,1188.889
625,1.03965,1188.144
626,1.041317,1188.591
627,1.042983,1188.591
628,1.04465,1187.176
629,1.0463,1186.952
630,1.047967,1187.026
631,1.049633,1187.026
632,1.0513,1189.932
633,1.052967,1189.783
634,1.054633,1192.614
635,1.0563,1192.614
636,1.057967,1192.391
637,1.059633,1188.219
638,1.0613,1188.219
639,1.062967,1187.846
640,1.064633,1186.803
641,1.0663,1188.368
642,1.067967,1188.368
643,1.069667,1193.21
644,1.0713,1191.869
645,1.072967,1190.007
646,1.074633,1190.007
647,1.0763,1189.485
648,1.077967,1186.207
649,1.079633,1186.803
650,1.0813,1186.803
651,1.082967,1191.124
652,1.084633,1194.254
653,1.0863,1192.54
654,1.087967,1192.54
655,1.089633,1193.807
656,1.0913,1192.167
657,1.092967,1192.167
658,1.094633,1188.815
659,1.0963,1190.156
660,1.097967,1189.113
661,1.099633,1189.113
662,1.1013,1187.995
663,1.102967,1187.176
664,1.104633,1187.548
665,1.106283,1187.548
666,1.10795,1187.995
667,1.109617,1188.591
668,1.111283,1189.858
669,1.11295,1189.858
670,1.114617,1188.591
671,1.116283,1186.356
672,1.117983,1186.356
673,1.119617,1184.642
674,1.121283,1185.611
675,1.12295,1186.132
676,1.124617,1186.132
677,1.126283,1186.877
678,1.12795,1186.579
679,1.129617,1183.823
680,1.131283,1183.823
681,1.13295,1183.897
682,1.134667,1183.376
683,1.136283,1183.078
684,1.13795,1183.078
685,1.139617,1181.96
686,1.141317,1181.066
687,1.14295,1181.811
688,1.144617,1181.811
689,1.146283,1184.568
690,1.14795,1185.611
691,1.14965,1185.611
692,1.151367,1185.983
693,1.15295,1186.729
694,1.154617,1184.195
695,1.156283,1184.195
696,1.15795,1186.356
697,1.159617,1185.983
698,1.161283,1184.94
699,1.16295,1184.94
700,1.164617,1184.493
701,1.166267,1185.089
702,1.167933,1188.442
703,1.1696,1188.442
704,1.171267,1190.007
705,1.172933,1190.305
706,1.1746,1190.305
707,1.176267,1187.772
708,1.177933,1186.207
709,1.1796,1184.717
710,1.181267,1184.717
711,1.182933,1186.654
712,1.1846,1190.156
713,1.186267,1188.144
714,1.187933,1188.144
715,1.1896,1187.772
716,1.191267,1185.387
717,1.19295,1181.215
718,1.1946,1181.215
719,1.196267,1180.47
720,1.197933,1179.203
721,1.1996,1179.799
722,1.201267,1179.799
723,1.202933,1179.576
724,1.2046,1180.396
725,1.206267,1180.396
726,1.207933,1182.333
727,1.2096,1182.556
728,1.211267,1183.45
729,1.212933,1183.45
730,1.2146,1182.929
731,1.216283,1183.748
732,1.217933,1183.003
733,1.219633,1183.003
734,1.221267,1183.599
735,1.222933,1183.45
736,1.2246,1179.427
737,1.22625,1179.427
738,1.227917,1178.309
739,1.229583,1176.894
740,1.23125,1176.894
741,1.232917,1175.329
742,1.234567,1176.447
743,1.236233,1177.341
744,1.2379,1177.341
745,1.239567,1176.596
746,1.241233,1179.427
747,1.2429,1184.121
748,1.244567,1184.121
749,1.246233,1187.548
750,1.2479,1189.858
751,1.249567,1190.528
752,1.251233,1190.528
753,1.252917,1187.697
754,1.254567,1185.164
755,1.256233,1185.164
756,1.2579,1184.642
757,1.259567,1182.333
758,1.261233,1183.599
759,1.2629,1183.599
760,1.264567,1185.983
761,1.266233,1188.144
762,1.2679,1191.497
763,1.269667,1191.497
764,1.271233,1190.081
765,1.2729,1187.176
766,1.274567,1185.387
767,1.276233,1185.387
768,1.2779,1183.227
769,1.279567,1183.301
770,1.281233,1184.493
771,1.2829,1184.493
772,1.28455,1185.015
773,1.286217,1185.685
774,1.287883,1185.685
775,1.28955,1184.94
776,1.291217,1184.121
777,1.292883,1182.929
778,1.294583,1182.929
779,1.296217,1180.172
780,1.297883,1178.756
781,1.29955,1177.713
782,1.301217,1177.713
783,1.302883,1176.596
784,1.30455,1178.607
785,1.306217,1180.768
786,1.307883,1180.768
787,1.30955,1178.905
788,1.31125,1179.948
789,1.312883,1179.948
790,1.31455,1178.905
791,1.316217,1178.235
792,1.317883,1181.811
793,1.31955,1181.811
794,1.321217,1181.737
795,1.322883,1180.843
796,1.32455,1180.768
797,1.326217,1180.768
798,1.327883,1176.372
799,1.32955,1176
800,1.331217,1177.862
801,1.332883,1177.862
802,1.33455,1177.788
803,1.336217,1180.023
804,1.337883,1180.023
805,1.33955,1180.023
806,1.341217,1179.054
807,1.342883,1180.843
808,1.34455,1180.843
809,1.3462,1183.078
810,1.347867,1185.387
811,1.349533,1184.642
812,1.3512,1184.642
813,1.352867,1182.556
814,1.35455,1179.799
815,1.3562,1177.788
816,1.357867,1177.788
817,1.359533,1179.427
818,1.3612,1180.396
819,1.362867,1182.333
820,1.364567,1182.333
821,1.3662,1180.172
822,1.367883,1179.725
823,1.369533,1179.725
824,1.3712,1178.309
825,1.372867,1178.235
826,1.374533,1176.447
827,1.3762,1176.447
828,1.377867,1177.341
829,1.379533,1177.788
830,1.3812,1178.905
831,1.382867,1178.905
832,1.384533,1182.407
833,1.3862,1180.545
834,1.387967,1180.246
835,1.389533,1180.246
836,1.3912,1175.404
837,1.392867,1175.627
838,1.394533,1175.851
839,1.3962,1175.851
840,1.397867,1176.223
841,1.399533,1178.905
842,1.401233,1178.905
843,1.402867,1176.894
844,1.404533,1177.043
845,1.406183,1176.745
846,1.40785,1176.745
847,1.409517,1177.266
848,1.411183,1179.129
849,1.41285,1181.662
850,1.414517,1181.662
851,1.416183,1180.396
852,1.41785,1179.799
853,1.419517,1180.693
854,1.421183,1180.693
855,1.42285,1180.545
856,1.424517,1181.96
857,1.426183,1181.96
858,1.42785,1180.768
859,1.429517,1181.811
860,1.431183,1180.246
861,1.43285,1180.246
862,1.434517,1179.874
863,1.436217,1180.396
864,1.43785,1178.16
865,1.439517,1178.16
866,1.441183,1178.086
867,1.44285,1177.639
868,1.444517,1177.862
869,1.446183,1177.862
870,1.44785,1175.776
871,1.449517,1174.286
872,1.451183,1174.286
873,1.45285,1172.721
874,1.454517,1170.188
875,1.456183,1170.263
876,1.45785,1170.263
877,1.459517,1171.753
878,1.461183,1174.137
879,1.46285,1176.223
880,1.4645,1176.223
881,1.466167,1176.372
882,1.467833,1174.584
883,1.4695,1172.498
884,1.471167,1172.498
885,1.4729,1170.635
886,1.4745,1170.263
887,1.476167,1169.518
888,1.477833,1169.518
889,1.4795,1171.231
890,1.481167,1174.063
891,1.482833,1174.063
892,1.4845,1175.925
893,1.486183,1177.341
894,1.487833,1177.49
895,1.4895,1177.49
896,1.491167,1175.776
897,1.492833,1175.702
898,1.4945,1177.192
899,1.496167,1177.192
900,1.497833,1177.788
901,1.4995,1177.266
902,1.501167,1177.266
903,1.502833,1177.266
904,1.5045,1175.478
905,1.506267,1175.627
906,1.507833,1175.627
907,1.5095,1176.372
908,1.511167,1178.384
909,1.512833,1179.948
910,1.514517,1179.948
911,1.516167,1178.384
912,1.517833,1178.98
913,1.5195,1176.298
914,1.521167,1176.298
915,1.522833,1173.019
916,1.524483,1172.796
917,1.526133,1173.243
