"ID","sea_time","fid_signal"
1,0,31.152
2,0.001667,31.152
3,0.003333,31.161
4,0.005,31.166
5,0.006667,31.166
6,0.008433,31.132
7,0.01,31.033
8,0.01165,30.859
9,0.013317,30.859
10,0.014983,30.681
11,0.01665,30.546
12,0.018317,30.502
13,0.019983,30.502
14,0.02165,30.538
15,0.023317,30.595
16,0.024983,30.644
17,0.02665,30.644
18,0.028317,30.682
19,0.029983,30.713
20,0.03165,30.737
21,0.033317,30.737
22,0.034983,30.757
23,0.03665,30.772
24,0.038317,30.772
25,0.039983,30.794
26,0.04165,30.809
27,0.043317,30.825
28,0.044983,30.825
29,0.04665,30.833
30,0.048317,30.838
31,0.049983,30.842
32,0.05165,30.842
33,0.053317,30.846
34,0.054983,30.849
35,0.05665,30.849
36,0.058317,30.849
37,0.06,30.85
38,0.06165,30.852
39,0.06335,30.852
40,0.064983,30.858
41,0.06665,30.867
42,0.068317,30.875
43,0.069983,30.875
44,0.07165000000000001,30.882
45,0.0733,30.889
46,0.07496700000000001,30.894
47,0.07663300000000001,30.894
48,0.07829999999999999,30.903
49,0.079967,30.913
50,0.081633,30.923
51,0.0833,30.923
52,0.084967,30.928
53,0.086633,30.931
54,0.0883,30.933
55,0.08996700000000001,30.933
56,0.09163300000000001,30.933
57,0.09335,30.936
58,0.094967,30.936
59,0.096633,30.941
60,0.0983,30.948
61,0.099967,30.952
62,0.101633,30.952
63,0.1033,30.958
64,0.104967,30.96
65,0.106633,30.96
66,0.1083,30.96
67,0.110083,30.963
68,0.111633,30.964
69,0.1133,30.967
70,0.114967,30.967
71,0.116633,30.975
72,0.1183,30.984
73,0.119967,30.984
74,0.121633,30.992
75,0.1233,31
76,0.124967,31.002
77,0.126733,31.002
78,0.1283,31.004
79,0.129967,31.012
80,0.131633,31.021
81,0.133283,31.021
82,0.13495,31.026
83,0.136617,31.026
84,0.138283,31.021
85,0.13995,31.021
86,0.141633,31.015
87,0.143367,31.017
88,0.144967,31.022
89,0.146617,31.022
90,0.148283,31.024
91,0.14995,31.026
92,0.151617,31.026
93,0.153283,31.026
94,0.15495,31.03
95,0.156617,31.038
96,0.158283,31.038
97,0.15995,31.039
98,0.161617,31.04
99,0.163283,31.039
100,0.16495,31.039
101,0.166617,31.04
102,0.168283,31.045
103,0.16995,31.052
104,0.171617,31.052
105,0.173283,31.061
106,0.17495,31.067
107,0.176617,31.067
108,0.178283,31.066
109,0.17995,31.067
110,0.181617,31.062
111,0.183283,31.062
112,0.18495,31.063
113,0.186617,31.068
114,0.188283,31.068
115,0.18995,31.068
116,0.1916,31.072
117,0.193267,31.064
118,0.194933,31.067
119,0.1966,31.067
120,0.198267,31.063
121,0.199933,31.062
122,0.2016,31.062
123,0.203267,31.064
124,0.204933,31.065
125,0.2066,31.073
126,0.2083,31.073
127,0.210017,31.079
128,0.2116,31.086
129,0.213267,31.092
130,0.214933,31.092
131,0.2166,31.096
132,0.218267,31.1
133,0.219933,31.103
134,0.2216,31.103
135,0.223267,31.098
136,0.224933,31.099
137,0.2266,31.103
138,0.22835,31.103
139,0.229917,31.105
140,0.231583,31.111
141,0.23325,31.111
142,0.234917,31.111
143,0.236583,31.112
144,0.23825,31.114
145,0.239917,31.114
146,0.241583,31.116
147,0.24325,31.117
148,0.245,31.122
149,0.246583,31.122
150,0.24825,31.123
151,0.249917,31.119
152,0.251567,31.118
153,0.253233,31.118
154,0.2549,31.109
155,0.256567,31.106
156,0.258233,31.106
157,0.2599,31.109
158,0.261683,31.112
159,0.263233,31.12
160,0.2649,31.12
161,0.266567,31.13
162,0.268233,31.14
163,0.2699,31.144
164,0.271567,31.144
165,0.273233,31.15
166,0.2749,31.152
167,0.276567,31.153
168,0.278233,31.153
169,0.2799,31.156
170,0.281567,31.151
171,0.283233,31.143
172,0.284933,31.143
173,0.286567,31.139
174,0.288283,31.139
175,0.2899,31.139
176,0.291567,31.139
177,0.293233,31.136
178,0.2949,31.135
179,0.296567,31.135
180,0.298233,31.137
181,0.2999,31.143
182,0.301567,31.155
183,0.303233,31.155
184,0.3049,31.16
185,0.306567,31.168
186,0.308233,31.18
187,0.3099,31.18
188,0.311567,31.185
189,0.313217,31.191
190,0.314883,31.191
191,0.31655,31.194
192,0.318217,31.194
193,0.3199,31.202
194,0.32155,31.202
195,0.323217,31.216
196,0.324883,31.228
197,0.32655,31.242
198,0.328217,31.242
199,0.329883,31.251
200,0.33155,31.254
201,0.333217,31.268
202,0.334883,31.268
203,0.33655,31.279
204,0.338217,31.292
205,0.339883,31.318
206,0.34155,31.318
207,0.343217,31.328
208,0.344883,31.345
209,0.3466,31.345
210,0.348217,31.363
211,0.349883,31.372
212,0.35155,31.385
213,0.353217,31.385
214,0.354883,31.393
215,0.356567,31.395
216,0.358267,31.4
217,0.359883,31.4
218,0.36155,31.401
219,0.363267,31.402
220,0.364883,31.403
221,0.36655,31.403
222,0.368217,31.392
223,0.369883,31.382
224,0.37155,31.382
225,0.3732,31.374
226,0.374867,31.364
227,0.376533,31.358
228,0.3782,31.358
229,0.38,31.354
230,0.381533,31.345
231,0.3832,31.344
232,0.384867,31.344
233,0.386533,31.342
234,0.3882,31.338
235,0.389867,31.336
236,0.391533,31.336
237,0.3932,31.326
238,0.394867,31.318
239,0.396533,31.318
240,0.3982,31.315
241,0.399867,31.312
242,0.401533,31.313
243,0.4032,31.313
244,0.404867,31.322
245,0.406533,31.325
246,0.4082,31.324
247,0.409867,31.324
248,0.411533,31.322
249,0.4132,31.315
250,0.414867,31.312
251,0.416533,31.312
252,0.4182,31.309
253,0.419867,31.305
254,0.421533,31.298
255,0.4232,31.298
256,0.424867,31.292
257,0.426533,31.291
258,0.4282,31.291
259,0.42985,31.294
260,0.43155,31.296
261,0.4332,31.295
262,0.4349,31.295
263,0.436517,31.291
264,0.438183,31.286
265,0.43985,31.286
266,0.441517,31.286
267,0.443183,31.286
268,0.44485,31.283
269,0.446517,31.279
270,0.448183,31.279
271,0.44985,31.273
272,0.451517,31.268
273,0.453183,31.268
274,0.45485,31.265
275,0.456517,31.265
276,0.458183,31.261
277,0.45985,31.261
278,0.461517,31.26
279,0.463183,31.259
280,0.464867,31.256
281,0.466517,31.256
282,0.468183,31.257
283,0.46985,31.258
284,0.471517,31.259
285,0.473183,31.259
286,0.47485,31.264
287,0.476517,31.266
288,0.478183,31.266
289,0.47985,31.266
290,0.481533,31.266
291,0.483183,31.261
292,0.48485,31.261
293,0.486517,31.254
294,0.488183,31.246
295,0.48985,31.239
296,0.4915,31.239
297,0.493167,31.242
298,0.494833,31.248
299,0.4965,31.254
300,0.498267,31.254
301,0.499833,31.26
302,0.5014999999999999,31.262
303,0.503167,31.262
304,0.504833,31.262
305,0.5065,31.264
306,0.508167,31.261
307,0.509883,31.254
308,0.5115,31.254
309,0.513167,31.254
310,0.514833,31.258
311,0.5165,31.258
312,0.518167,31.26
313,0.519817,31.262
314,0.521483,31.257
315,0.52315,31.257
316,0.524817,31.247
317,0.526483,31.237
318,0.52815,31.234
319,0.529817,31.234
320,0.531483,31.235
321,0.53315,31.23
322,0.534817,31.233
323,0.536483,31.233
324,0.53815,31.238
325,0.539817,31.237
326,0.541483,31.237
327,0.54315,31.241
328,0.544817,31.239
329,0.5464830000000001,31.229
330,0.54815,31.229
331,0.549817,31.222
332,0.551467,31.217
333,0.553133,31.213
334,0.5548,31.213
335,0.556467,31.216
336,0.558133,31.219
337,0.5598,31.215
338,0.561467,31.215
339,0.563133,31.219
340,0.5648,31.218
341,0.5664670000000001,31.218
342,0.568133,31.218
343,0.5698,31.221
344,0.5714669999999999,31.213
345,0.573133,31.213
346,0.5748,31.209
347,0.576483,31.205
348,0.578133,31.202
349,0.5798,31.202
350,0.581467,31.203
351,0.583167,31.201
352,0.5848,31.201
353,0.586467,31.201
354,0.588133,31.202
355,0.5898,31.207
356,0.591467,31.207
357,0.593133,31.214
358,0.5948,31.22
359,0.596467,31.218
360,0.598133,31.218
361,0.5998,31.213
362,0.601467,31.208
363,0.603133,31.206
364,0.6048,31.206
365,0.606467,31.203
366,0.608133,31.202
367,0.6098,31.204
368,0.61145,31.204
369,0.613117,31.203
370,0.614783,31.206
371,0.616567,31.201
372,0.618117,31.201
373,0.619783,31.191
374,0.6214499999999999,31.187
375,0.623117,31.187
376,0.624783,31.189
377,0.62645,31.193
378,0.628117,31.198
379,0.629783,31.198
380,0.63145,31.192
381,0.633117,31.186
382,0.634783,31.191
383,0.63645,31.191
384,0.638117,31.192
385,0.639783,31.203
386,0.64145,31.206
387,0.643117,31.206
388,0.644783,31.202
389,0.64645,31.202
390,0.6481170000000001,31.202
391,0.649783,31.196
392,0.651467,31.196
393,0.6531169999999999,31.198
394,0.654783,31.198
395,0.65645,31.198
396,0.658117,31.204
397,0.659783,31.211
398,0.66145,31.211
399,0.663117,31.216
400,0.664783,31.216
401,0.66645,31.215
402,0.668117,31.215
403,0.6698,31.214
404,0.6714329999999999,31.211
405,0.6731,31.217
406,0.674767,31.217
407,0.676433,31.213
408,0.6781,31.206
409,0.679767,31.206
410,0.681433,31.205
411,0.6831,31.2
412,0.684767,31.205
413,0.686433,31.205
414,0.6881,31.212
415,0.689767,31.21
416,0.691433,31.207
417,0.6931,31.207
418,0.694767,31.201
419,0.696433,31.201
420,0.6981000000000001,31.199
421,0.699767,31.199
422,0.7015,31.199
423,0.7030999999999999,31.199
424,0.704767,31.199
425,0.706433,31.197
426,0.7081,31.202
427,0.709767,31.203
428,0.711433,31.203
429,0.7131,31.212
430,0.714767,31.214
431,0.716433,31.218
432,0.7181,31.218
433,0.719767,31.222
434,0.721433,31.219
435,0.7231,31.218
436,0.7247670000000001,31.218
437,0.726467,31.22
438,0.7281,31.231
439,0.7297670000000001,31.237
440,0.731417,31.237
441,0.733083,31.245
442,0.734867,31.246
443,0.736417,31.246
444,0.738083,31.243
445,0.73975,31.249
446,0.741417,31.252
447,0.743083,31.252
448,0.74475,31.259
449,0.746417,31.26
450,0.7480830000000001,31.263
451,0.74975,31.263
452,0.751417,31.259
453,0.7530829999999999,31.26
454,0.75475,31.268
455,0.756417,31.268
456,0.758083,31.267
457,0.75975,31.275
458,0.761417,31.275
459,0.763117,31.286
460,0.76475,31.289
461,0.766417,31.295
462,0.768083,31.295
463,0.76975,31.302
464,0.771417,31.298
465,0.773083,31.302
466,0.77475,31.302
467,0.776433,31.31
468,0.778083,31.319
469,0.7797500000000001,31.333
470,0.781417,31.333
471,0.783083,31.344
472,0.7847499999999999,31.354
473,0.786417,31.354
474,0.788083,31.36
475,0.78975,31.366
476,0.7914,31.376
477,0.793067,31.376
478,0.79475,31.385
479,0.7964329999999999,31.397
480,0.798067,31.41
481,0.799733,31.41
482,0.8014,31.41
483,0.803067,31.416
484,0.804733,31.416
485,0.8064,31.416
486,0.808067,31.424
487,0.809733,31.437
488,0.811383,31.443
489,0.8130500000000001,31.443
490,0.814717,31.459
491,0.816383,31.461
492,0.8180500000000001,31.461
493,0.8198,31.469
494,0.821383,31.48
495,0.8230499999999999,31.491
496,0.824717,31.491
497,0.826383,31.509
498,0.82805,31.523
499,0.829717,31.532
500,0.831383,31.532
501,0.83305,31.539
502,0.834717,31.544
503,0.836383,31.55
504,0.83805,31.55
505,0.839733,31.563
506,0.841383,31.571
507,0.84305,31.571
508,0.8447170000000001,31.584
509,0.846383,31.595
510,0.84805,31.606
511,0.8497169999999999,31.606
512,0.851383,31.615
513,0.85315,31.62
514,0.8547,31.631
515,0.856367,31.631
516,0.858033,31.635
517,0.8597,31.652
518,0.861367,31.668
519,0.8630330000000001,31.668
520,0.8647,31.681
521,0.866367,31.697
522,0.8680330000000001,31.704
523,0.869717,31.704
524,0.871367,31.714
525,0.8730329999999999,31.724
526,0.8747,31.724
527,0.876367,31.735
528,0.878033,31.749
529,0.8797,31.766
530,0.881367,31.766
531,0.883033,31.781
532,0.8847,31.797
533,0.886367,31.814
534,0.888033,31.814
535,0.8897,31.825
536,0.891367,31.843
537,0.893033,31.859
538,0.8947000000000001,31.859
539,0.896367,31.874
540,0.898033,31.89
541,0.8997000000000001,31.89
542,0.901367,31.9
543,0.903033,31.917
544,0.9046999999999999,31.934
545,0.906367,31.934
546,0.908033,31.951
547,0.9097,31.97
548,0.91135,31.982
549,0.913017,31.982
550,0.914683,31.998
551,0.91635,32.011
552,0.918017,32.024
553,0.919683,32.024
554,0.92135,32.043
555,0.923017,32.061
556,0.9247,32.082
557,0.92635,32.082
558,0.928017,32.098
559,0.929683,32.105
560,0.93135,32.105
561,0.933017,32.114
562,0.9347,32.126
563,0.93635,32.14
564,0.938017,32.14
565,0.939683,32.156
566,0.94135,32.176
567,0.943017,32.19
568,0.9446830000000001,32.19
569,0.94635,32.208
570,0.948017,32.224
571,0.9496830000000001,32.23
572,0.951367,32.23
573,0.953017,32.24
574,0.954783,32.259
575,0.95635,32.259
576,0.958017,32.286
577,0.959683,32.312
578,0.96135,32.343
579,0.963017,32.343
580,0.964683,32.366
581,0.96635,32.381
582,0.968017,32.398
583,0.969683,32.398
584,0.97145,32.406
585,0.973,32.414
586,0.974667,32.427
587,0.976333,32.427
588,0.978,32.439
589,0.979667,32.453
590,0.981333,32.453
591,0.983,32.464
592,0.984667,32.477
593,0.986333,32.496
594,0.988,32.496
595,0.989667,32.521
596,0.991333,32.55
597,0.993,32.573
598,0.994667,32.573
599,0.996333,32.591
600,0.998,32.608
601,0.999667,32.619
602,1.001333,32.619
603,1.003,32.635
604,1.004667,32.653
605,1.006333,32.67
606,1.008,32.67
607,1.009667,32.688
608,1.011333,32.707
609,1.01305,32.707
610,1.014667,32.72
611,1.016333,32.734
612,1.018,32.756
613,1.019667,32.756
614,1.021333,32.775
615,1.023,32.801
616,1.024667,32.82
617,1.026333,32.82
618,1.028,32.837
619,1.029667,32.856
620,1.031317,32.867
621,1.032983,32.867
622,1.03465,32.882
623,1.036317,32.9
624,1.037983,32.9
625,1.03965,32.915
626,1.041317,32.939
627,1.042983,32.964
628,1.04465,32.964
629,1.046317,32.98
630,1.047983,33.001
631,1.04965,33.021
632,1.051317,33.021
633,1.052983,33.041
634,1.05465,33.063
635,1.056333,33.079
636,1.057983,33.079
637,1.05965,33.093
638,1.061317,33.114
639,1.062983,33.131
640,1.06465,33.131
641,1.066317,33.148
642,1.067983,33.166
643,1.06965,33.166
644,1.071317,33.181
645,1.072983,33.195
646,1.07465,33.22
647,1.076317,33.22
648,1.077983,33.246
649,1.07965,33.261
650,1.081317,33.282
651,1.082983,33.282
652,1.08465,33.298
653,1.086333,33.308
654,1.088,33.328
655,1.08975,33.328
656,1.091317,33.345
657,1.092967,33.364
658,1.094633,33.364
659,1.0963,33.381
660,1.097967,33.399
661,1.099633,33.415
662,1.101283,33.415
663,1.10295,33.436
664,1.104617,33.457
665,1.106383,33.479
666,1.10795,33.479
667,1.109617,33.496
668,1.111283,33.512
669,1.11295,33.529
670,1.114617,33.529
671,1.116283,33.547
672,1.11795,33.569
673,1.119617,33.59
674,1.121283,33.59
675,1.12295,33.608
676,1.124617,33.628
677,1.1263,33.628
678,1.12795,33.651
679,1.129617,33.672
680,1.131283,33.689
681,1.13295,33.689
682,1.134617,33.707
683,1.136283,33.723
684,1.13795,33.743
685,1.139617,33.743
686,1.141283,33.763
687,1.14295,33.776
688,1.144617,33.788
689,1.146283,33.788
690,1.14795,33.795
691,1.149617,33.801
692,1.151267,33.801
693,1.152933,33.812
694,1.1546,33.828
695,1.156267,33.845
696,1.157967,33.845
697,1.1596,33.866
698,1.161267,33.893
699,1.162933,33.916
700,1.1646,33.916
701,1.166267,33.937
702,1.16795,33.951
703,1.1696,33.962
704,1.171267,33.962
705,1.172933,33.969
706,1.1746,33.987
707,1.176267,33.987
708,1.177933,34.002
709,1.1796,34.018
710,1.181267,34.035
711,1.182933,34.035
712,1.1846,34.042
713,1.186267,34.06
714,1.187933,34.074
715,1.1896,34.074
716,1.191333,34.085
717,1.192933,34.101
718,1.1946,34.122
719,1.196267,34.122
720,1.197933,34.139
721,1.1996,34.156
722,1.201267,34.177
723,1.202933,34.177
724,1.2046,34.192
725,1.206267,34.207
726,1.208017,34.229
727,1.209583,34.229
728,1.21125,34.248
729,1.212917,34.262
730,1.214583,34.262
731,1.21625,34.279
732,1.217917,34.292
733,1.219583,34.303
734,1.22125,34.303
735,1.222917,34.321
736,1.224667,34.337
737,1.22625,34.355
738,1.227917,34.355
739,1.229583,34.376
740,1.23125,34.394
741,1.232967,34.394
742,1.234583,34.414
743,1.23625,34.432
744,1.237917,34.446
745,1.239583,34.446
746,1.24125,34.455
747,1.242917,34.465
748,1.244583,34.477
749,1.24625,34.477
750,1.247917,34.493
751,1.249583,34.514
752,1.25125,34.532
753,1.252917,34.532
754,1.254583,34.548
755,1.25625,34.56
756,1.25795,34.577
757,1.259583,34.577
758,1.26125,34.589
759,1.262917,34.605
760,1.264583,34.605
761,1.26625,34.621
762,1.267917,34.634
763,1.269567,34.65
764,1.271233,34.65
765,1.2729,34.667
766,1.274567,34.684
767,1.276233,34.696
768,1.2779,34.696
769,1.279567,34.714
770,1.281233,34.727
771,1.2829,34.74
772,1.284567,34.74
773,1.286233,34.751
774,1.2879,34.76
775,1.289567,34.76
776,1.291233,34.777
777,1.2929,34.792
778,1.294567,34.812
779,1.296233,34.812
780,1.2979,34.833
781,1.299567,34.845
782,1.301267,34.863
783,1.3029,34.863
784,1.304567,34.876
785,1.306233,34.887
786,1.3079,34.904
787,1.309567,34.904
788,1.311233,34.92
789,1.3129,34.939
790,1.314567,34.956
791,1.316233,34.956
792,1.3179,34.969
793,1.319567,34.98
794,1.321233,34.98
795,1.3229,34.996
796,1.324567,35.011
797,1.326267,35.022
798,1.3279,35.022
799,1.329567,35.042
800,1.331217,35.061
801,1.332883,35.073
802,1.33455,35.073
803,1.336217,35.088
804,1.337883,35.096
805,1.33955,35.101
806,1.341217,35.101
807,1.3429,35.118
808,1.34455,35.134
809,1.346217,35.134
810,1.347883,35.143
811,1.34955,35.156
812,1.351233,35.17
813,1.352883,35.17
814,1.354567,35.177
815,1.356217,35.196
816,1.357883,35.206
817,1.35955,35.206
818,1.361217,35.211
819,1.362883,35.22
820,1.36455,35.228
821,1.366217,35.228
822,1.367883,35.241
823,1.36955,35.254
824,1.371217,35.269
825,1.372883,35.269
826,1.37455,35.279
827,1.376217,35.289
828,1.377883,35.289
829,1.379567,35.298
830,1.381217,35.313
831,1.382883,35.323
832,1.38455,35.323
833,1.386217,35.339
834,1.387867,35.358
835,1.38955,35.376
836,1.3912,35.376
837,1.39285,35.395
838,1.394517,35.402
839,1.396183,35.414
840,1.39785,35.414
841,1.399517,35.42
842,1.401183,35.428
843,1.40285,35.428
844,1.404517,35.448
845,1.406183,35.461
846,1.40785,35.476
847,1.409517,35.476
848,1.411183,35.49
849,1.41285,35.495
850,1.414517,35.503
851,1.416183,35.503
852,1.41785,35.511
853,1.419517,35.516
854,1.421183,35.527
855,1.42285,35.527
856,1.424517,35.533
857,1.426183,35.539
858,1.427933,35.545
859,1.429517,35.545
860,1.431183,35.555
861,1.43285,35.565
862,1.434517,35.565
863,1.436183,35.577
864,1.43785,35.587
865,1.439517,35.593
866,1.441183,35.593
867,1.44285,35.604
868,1.444583,35.619
869,1.446183,35.636
870,1.447833,35.636
871,1.449517,35.653
872,1.4512,35.669
873,1.452833,35.686
874,1.4545,35.686
875,1.456167,35.694
876,1.457833,35.703
877,1.4595,35.703
878,1.461167,35.721
879,1.462833,35.729
880,1.4645,35.74
881,1.466167,35.74
882,1.467833,35.75
883,1.4695,35.753
884,1.471167,35.762
885,1.472833,35.762
886,1.4745,35.777
887,1.476167,35.798
888,1.477833,35.813
889,1.4795,35.813
890,1.481167,35.826
891,1.482833,35.839
892,1.4845,35.839
893,1.486167,35.848
894,1.487833,35.854
895,1.4895,35.864
896,1.491167,35.864
897,1.492833,35.878
898,1.4945,35.892
899,1.496167,35.912
900,1.497833,35.912
901,1.4995,35.923
902,1.501167,35.928
903,1.502833,35.927
904,1.5045,35.927
905,1.506167,35.931
906,1.507833,35.935
907,1.5095,35.946
908,1.51115,35.946
909,1.512817,35.966
910,1.514517,35.983
911,1.51615,35.983
912,1.517817,36.004
913,1.519483,36.016
914,1.52115,36.023
915,1.522867,36.023
916,1.524483,36.026
917,1.52615,36.027
918,1.527817,36.028
919,1.5295,36.028
920,1.53115,36.035
921,1.532817,36.042
922,1.534483,36.054
923,1.53615,36.054
924,1.537817,36.066
925,1.539483,36.078
926,1.54115,36.078
927,1.542817,36.089
928,1.544483,36.096
929,1.546217,36.105
930,1.547817,36.105
931,1.549483,36.111
932,1.55115,36.122
933,1.552817,36.139
934,1.554483,36.139
935,1.55615,36.149
936,1.557817,36.161
937,1.559483,36.163
938,1.56115,36.163
939,1.562817,36.168
940,1.564483,36.177
941,1.56615,36.177
942,1.567817,36.183
943,1.569483,36.199
944,1.571133,36.206
945,1.5728,36.206
946,1.574467,36.22
947,1.576133,36.237
948,1.5778,36.254
949,1.57955,36.254
950,1.581133,36.27
951,1.5828,36.275
952,1.584467,36.284
953,1.586133,36.284
954,1.5878,36.283
955,1.589467,36.287
956,1.591133,36.299
957,1.5928,36.299
958,1.594483,36.308
959,1.59615,36.314
960,1.5978,36.314
961,1.599467,36.321
962,1.601133,36.332
963,1.6028,36.336
964,1.604467,36.336
965,1.606133,36.346
966,1.6078,36.352
967,1.609467,36.358
968,1.611133,36.358
969,1.6128,36.366
970,1.614467,36.374
971,1.616133,36.387
972,1.6178,36.387
973,1.619467,36.389
974,1.621133,36.393
975,1.6228,36.393
976,1.624467,36.395
977,1.626133,36.399
978,1.6278,36.409
979,1.629467,36.409
980,1.631117,36.416
981,1.632783,36.425
982,1.63445,36.433
983,1.636117,36.433
984,1.637783,36.439
985,1.63945,36.449
986,1.641117,36.464
987,1.642783,36.464
988,1.64445,36.477
989,1.646117,36.485
990,1.647783,36.5
991,1.64945,36.5
992,1.651117,36.504
993,1.652783,36.509
994,1.65445,36.509
995,1.656117,36.514
996,1.657783,36.517
997,1.65945,36.523
998,1.661117,36.523
999,1.662817,36.527
1000,1.664517,36.537
1001,1.666117,36.547
1002,1.667783,36.547
1003,1.66945,36.561
1004,1.671117,36.569
1005,1.672783,36.575
1006,1.674467,36.575
1007,1.676117,36.577
1008,1.677783,36.578
1009,1.67945,36.578
1010,1.681117,36.588
1011,1.682783,36.595
1012,1.684433,36.605
1013,1.6861,36.605
1014,1.687767,36.609
1015,1.689433,36.605
