"ID","sea_time","fid_signal"
1,0,1167.655
2,0.001667,1170.784
3,0.003333,1170.784
4,0.005,1170.784
5,0.006667,1172.349
6,0.008333,1172.498
7,0.01,1172.498
8,0.011667,1169.145
9,0.013333,1167.208
10,0.015,1165.718
11,0.016667,1165.718
12,0.018333,1164.004
13,0.02,1166.91
14,0.021667,1166.91
15,0.023333,1169.22
16,0.025017,1168.624
17,0.026667,1166.612
18,0.028333,1166.612
19,0.03,1166.463
20,0.031667,1163.706
21,0.03335,1163.781
22,0.035033,1163.781
23,0.036667,1164.526
24,0.038317,1164.824
25,0.039983,1164.302
26,0.04165,1164.302
27,0.043317,1163.855
28,0.044983,1164.749
29,0.046683,1164.749
30,0.048317,1162.812
31,0.049983,1163.259
32,0.05165,1167.357
33,0.053317,1167.357
34,0.054983,1169.965
35,0.05665,1170.784
36,0.058317,1171.38
37,0.059983,1171.38
38,0.06165,1166.984
39,0.063317,1163.93
40,0.064983,1163.557
41,0.06665,1163.557
42,0.068317,1162.738
43,0.069983,1164.004
44,0.07165000000000001,1164.004
45,0.07335,1165.42
46,0.07498299999999999,1164.6
47,0.07665,1166.984
48,0.078317,1166.984
49,0.079983,1166.686
50,0.08165,1167.059
51,0.083317,1169.294
52,0.084983,1169.294
53,0.08665,1170.114
54,0.08831700000000001,1170.114
55,0.090017,1168.102
56,0.09165,1168.102
57,0.093317,1166.91
58,0.094983,1164.526
59,0.09665,1166.016
60,0.0983,1166.016
61,0.099967,1167.282
62,0.101633,1165.718
63,0.1033,1165.718
64,0.104967,1168.4
65,0.10675,1166.612
66,0.1083,1169.22
67,0.109967,1169.22
68,0.111633,1172.051
69,0.1133,1171.976
70,0.114967,1172.945
71,0.116633,1172.945
72,0.1183,1170.859
73,0.119967,1168.4
74,0.121667,1167.953
75,0.123333,1167.953
76,0.124967,1167.282
77,0.126633,1168.698
78,0.1283,1168.698
79,0.129967,1171.976
80,0.131633,1172.721
81,0.1333,1174.063
82,0.134967,1174.063
83,0.136633,1172.125
84,0.1383,1168.549
85,0.139967,1162.44
86,0.141633,1162.44
87,0.1433,1160.875
88,0.144967,1162.812
89,0.146633,1164.451
90,0.1483,1164.451
91,0.149967,1167.655
92,0.151633,1167.58
93,0.1533,1164.898
94,0.154967,1164.898
95,0.156633,1163.036
96,0.158283,1162.44
97,0.15995,1162.44
98,0.161617,1161.099
99,0.163283,1161.471
100,0.16495,1162.291
101,0.166617,1162.291
102,0.168283,1164.451
103,0.16995,1167.804
104,0.171617,1166.761
105,0.173283,1166.761
106,0.17495,1167.58
107,0.176617,1166.388
108,0.178283,1164.898
109,0.17995,1164.898
110,0.181617,1169.145
111,0.183283,1168.698
112,0.18495,1168.698
113,0.186617,1167.804
114,0.188283,1168.177
115,0.18995,1166.984
116,0.191717,1166.984
117,0.193283,1166.537
118,0.19495,1165.718
119,0.196617,1165.122
120,0.198283,1165.122
121,0.19995,1164.451
122,0.201617,1163.334
123,0.203283,1164.153
124,0.20495,1164.153
125,0.206617,1163.855
126,0.208283,1162.514
127,0.20995,1166.016
128,0.211617,1166.016
129,0.213283,1168.922
130,0.21495,1172.349
131,0.216617,1172.349
132,0.218267,1172.796
133,0.219933,1173.69
134,0.2216,1171.529
135,0.223267,1171.529
136,0.22505,1170.263
137,0.2266,1169.443
138,0.228267,1166.686
139,0.229933,1166.686
140,0.2316,1166.537
141,0.233267,1164.973
142,0.234917,1166.016
143,0.236583,1166.016
144,0.23825,1167.953
145,0.239917,1170.337
146,0.241583,1170.337
147,0.24325,1171.529
148,0.244917,1171.306
149,0.246583,1169.965
150,0.24825,1169.965
151,0.249917,1170.412
152,0.251583,1170.635
153,0.25325,1169.89
154,0.254917,1169.89
155,0.256583,1169.22
156,0.25825,1168.847
157,0.259917,1168.177
158,0.261583,1168.177
159,0.26325,1171.753
160,0.264917,1170.561
161,0.266617,1170.263
162,0.26825,1170.263
163,0.269917,1169.518
164,0.271583,1165.271
165,0.27325,1165.271
166,0.274917,1166.016
167,0.276567,1163.93
168,0.278233,1166.612
169,0.2799,1166.612
170,0.281567,1171.008
171,0.283233,1173.69
172,0.2849,1173.541
173,0.286567,1173.541
174,0.288233,1170.337
175,0.2899,1168.027
176,0.291567,1167.357
177,0.293233,1167.357
178,0.2949,1170.039
179,0.296567,1169.89
180,0.298233,1169.89
181,0.2999,1171.976
182,0.301567,1172.572
183,0.303233,1170.114
184,0.3049,1170.114
185,0.306567,1172.498
186,0.308233,1172.051
187,0.3099,1176.149
188,0.311567,1176.149
189,0.313233,1179.65
190,0.3149,1182.109
191,0.316567,1184.121
192,0.318233,1184.121
193,0.3199,1185.909
194,0.321567,1190.752
195,0.323233,1190.752
196,0.3249,1199.543
197,0.326567,1206.398
198,0.328233,1209.974
199,0.3299,1209.974
200,0.331567,1219.734
201,0.333233,1226.291
202,0.3349,1238.212
203,0.336567,1238.212
204,0.338233,1254.901
205,0.33995,1265.63
206,0.34155,1280.978
207,0.343317,1280.978
208,0.344883,1296.625
209,0.34655,1315.325
210,0.348217,1337.677
211,0.349883,1337.677
212,0.35155,1360.551
213,0.353217,1389.31
214,0.354883,1389.31
215,0.35655,1421.869
216,0.358217,1463.965
217,0.359883,1514.703
218,0.36155,1514.703
219,0.363217,1571.551
220,0.364883,1640.32
221,0.36655,1722.798
222,0.368217,1722.798
223,0.369883,1832.172
224,0.37155,1972.541
225,0.373217,2141.893
226,0.374883,2141.893
227,0.37655,2346.262
228,0.378217,2579.838
229,0.379883,2579.838
230,0.38155,2846.122
231,0.383217,3140.047
232,0.384883,3455.952
233,0.38655,3455.952
234,0.388217,3786.087
235,0.389883,4117.787
236,0.39155,4442.409
237,0.393217,4442.409
238,0.394867,4753.545
239,0.39655,5041.212
240,0.3982,5300.194
241,0.399867,5300.194
242,0.401533,5531.013
243,0.4032,5729.198
244,0.404867,5894.303
245,0.406533,5894.303
246,0.4082,6026.7
247,0.409933,6125.048
248,0.411533,6125.048
249,0.4132,6192.327
250,0.414867,6233.007
251,0.416533,6252.974
252,0.4182,6252.974
253,0.419867,6253.123
254,0.421533,6233.901
255,0.4232,6196.872
256,0.424867,6196.872
257,0.426533,6144.271
258,0.42825,6080.866
259,0.429867,6012.619
260,0.431533,6012.619
261,0.4332,5939.379
262,0.434867,5859.286
263,0.436533,5859.286
264,0.4382,5773.157
265,0.439867,5682.334
266,0.441533,5588.606
267,0.4432,5588.606
268,0.444867,5493.313
269,0.446533,5397.126
270,0.4482,5298.629
271,0.449867,5298.629
272,0.451533,5200.58
273,0.4532,5103.35
274,0.454867,5010.143
275,0.456533,5010.143
276,0.458183,4917.756
277,0.45985,4827.529
278,0.461583,4737.601
279,0.463183,4737.601
280,0.46485,4644.468
281,0.466517,4551.336
282,0.468183,4551.336
283,0.46985,4464.015
284,0.471517,4376.918
285,0.473183,4296.452
286,0.47485,4296.452
287,0.476517,4219.413
288,0.478183,4138.425
289,0.47985,4064.366
290,0.481517,4064.366
291,0.483183,3991.351
292,0.484883,3919.005
293,0.486533,3848.97
294,0.488183,3848.97
295,0.48985,3780.499
296,0.491517,3711.879
297,0.493183,3711.879
298,0.49485,3647.879
299,0.496517,3585.89
300,0.498183,3524.274
301,0.49985,3524.274
302,0.501517,3466.159
303,0.503183,3408.864
304,0.50485,3353.73
305,0.506517,3353.73
306,0.5081830000000001,3299.192
307,0.50985,3246.888
308,0.511517,3193.766
309,0.5131829999999999,3193.766
310,0.51485,3142.878
311,0.516517,3095.94
312,0.518167,3095.94
313,0.519833,3051.534
314,0.5215,3011.897
315,0.523167,2969.95
316,0.524817,2969.95
317,0.526483,2929.866
318,0.52815,2888.069
319,0.529817,2849.475
320,0.531483,2849.475
321,0.53315,2814.978
322,0.534817,2778.545
323,0.536483,2743.08
324,0.53815,2743.08
325,0.539817,2706.125
326,0.541483,2669.021
327,0.54315,2633.408
328,0.544817,2633.408
329,0.54655,2601.147
330,0.54815,2570.003
331,0.549817,2570.003
332,0.5514829999999999,2540.946
333,0.55315,2515.241
334,0.554817,2489.612
335,0.5564829999999999,2489.612
336,0.558167,2464.578
337,0.559817,2440.363
338,0.561517,2413.69
339,0.5632,2413.69
340,0.564817,2388.954
341,0.566483,2364.665
342,0.56815,2337.992
343,0.569817,2337.992
344,0.571483,2314.597
345,0.57315,2292.767
346,0.574817,2292.767
347,0.576483,2267.435
348,0.578133,2247.691
349,0.579917,2227.798
350,0.581467,2227.798
351,0.583133,2208.129
352,0.5848,2190.918
353,0.586467,2174.676
354,0.588133,2174.676
355,0.5898,2157.465
356,0.591467,2138.093
357,0.593133,2123.192
358,0.5948,2123.192
359,0.596467,2101.511
360,0.598133,2083.555
361,0.5998,2066.195
362,0.601467,2066.195
363,0.60315,2048.835
364,0.6048,2036.244
365,0.606467,2036.244
366,0.608133,2019.927
367,0.6098,2006.367
368,0.611467,1991.242
369,0.613133,1991.242
370,0.6148,1975.298
371,0.616467,1962.259
372,0.618133,1949.891
373,0.6198,1949.891
374,0.621467,1938.269
375,0.623133,1926.199
376,0.6248,1914.501
377,0.626467,1914.501
378,0.6281330000000001,1900.345
379,0.6298,1885.667
380,0.631467,1885.667
381,0.63315,1875.46
382,0.63485,1863.39
383,0.636467,1853.928
384,0.638117,1853.928
385,0.639783,1842.231
386,0.64145,1830.533
387,0.643117,1822.114
388,0.644783,1822.114
389,0.64645,1809.001
390,0.6481170000000001,1800.135
391,0.649783,1790.598
392,0.65145,1790.598
393,0.6531169999999999,1780.316
394,0.654783,1771.748
395,0.65645,1771.748
396,0.658117,1759.902
397,0.659783,1750.216
398,0.66145,1740.232
399,0.663117,1740.232
400,0.6648500000000001,1733.303
401,0.66645,1728.088
402,0.668117,1719.892
403,0.669783,1719.892
404,0.67145,1712.814
405,0.673117,1706.556
406,0.674783,1699.477
407,0.67645,1699.477
408,0.678117,1690.835
409,0.679783,1681.149
410,0.6815330000000001,1673.102
411,0.683117,1673.102
412,0.684783,1666.471
413,0.68645,1661.777
414,0.688117,1661.777
415,0.689783,1658.127
416,0.69145,1649.931
417,0.693117,1644.12
418,0.694783,1644.12
419,0.69645,1636.371
420,0.69815,1627.654
421,0.699767,1620.278
422,0.701433,1620.278
423,0.7030999999999999,1611.188
424,0.704767,1604.036
425,0.706433,1598.82
426,0.7081,1598.82
427,0.7097830000000001,1593.828
428,0.7115,1586.75
429,0.7131,1586.75
430,0.7147829999999999,1580.715
431,0.716433,1573.339
432,0.7181,1566.783
433,0.719767,1566.783
434,0.721433,1564.324
435,0.7231,1560.524
436,0.7247670000000001,1556.426
437,0.726433,1556.426
438,0.7281,1552.776
439,0.7297670000000001,1546.74
440,0.731433,1542.121
441,0.7331,1542.121
442,0.7347669999999999,1539.141
443,0.736433,1536.012
444,0.7381,1529.381
445,0.739767,1529.381
446,0.741433,1524.836
447,0.7431,1520.216
448,0.744767,1520.216
449,0.746433,1513.213
450,0.7481,1509.86
451,0.749767,1507.401
452,0.751433,1507.401
453,0.7531,1500.398
454,0.754767,1496.598
455,0.756433,1495.853
456,0.758083,1495.853
457,0.75975,1490.34
458,0.761417,1487.955
459,0.763083,1485.422
460,0.76475,1485.422
461,0.766417,1481.101
462,0.768083,1476.78
463,0.76975,1476.78
464,0.771417,1475.215
465,0.773083,1471.192
466,0.774767,1465.008
467,0.776417,1465.008
468,0.778083,1462.4
469,0.7797500000000001,1455.62
470,0.781417,1450.106
471,0.783133,1450.106
472,0.7847499999999999,1450.032
473,0.786417,1445.934
474,0.788083,1443.55
475,0.78975,1443.55
476,0.791417,1442.879
477,0.793083,1438.111
478,0.79475,1434.311
479,0.796417,1434.311
480,0.798083,1429.99
481,0.799817,1424.775
482,0.801417,1424.775
483,0.803083,1419.783
484,0.80475,1418.814
485,0.8064170000000001,1416.802
486,0.808083,1416.802
487,0.80975,1416.951
488,0.8114170000000001,1416.132
489,0.813083,1412.63
490,0.81475,1412.63
491,0.816483,1408.16
492,0.8180500000000001,1402.05
493,0.819717,1401.901
494,0.821383,1401.901
495,0.8230499999999999,1397.282
496,0.824717,1399.592
497,0.826383,1399.592
498,0.82805,1398.995
499,0.829717,1391.992
500,0.831383,1391.396
501,0.8331499999999999,1391.396
502,0.834717,1386.851
503,0.836383,1383.647
504,0.83805,1385.882
505,0.839717,1385.882
506,0.841383,1383.647
507,0.84305,1379.475
508,0.8447170000000001,1376.495
509,0.846383,1376.495
510,0.84805,1371.726
511,0.84975,1371.652
512,0.851383,1371.652
513,0.85305,1371.205
514,0.8547169999999999,1370.832
515,0.856383,1366.66
516,0.85805,1366.66
517,0.859717,1360.923
518,0.861383,1358.092
519,0.86305,1356.527
520,0.864717,1356.527
521,0.866383,1358.464
522,0.86805,1359.06
523,0.869717,1358.539
524,0.871417,1358.539
525,0.87305,1355.559
526,0.874717,1349.524
527,0.876383,1345.798
528,0.878033,1345.798
529,0.8797,1343.861
530,0.881367,1344.085
531,0.883033,1344.085
532,0.8847,1342.595
533,0.886367,1341.179
534,0.888033,1340.583
535,0.8897,1340.583
536,0.891367,1337.752
537,0.893033,1338.571
538,0.8947000000000001,1337.528
539,0.896367,1337.528
540,0.898033,1333.505
541,0.8997000000000001,1332.089
542,0.901367,1328.662
543,0.903033,1328.662
544,0.9046999999999999,1328.141
545,0.906367,1328.811
546,0.908033,1328.811
547,0.9097,1324.564
548,0.911367,1325.756
549,0.913033,1321.435
550,0.9147,1321.435
551,0.916367,1314.357
552,0.918117,1314.953
553,0.9197,1309.291
554,0.921367,1309.291
555,0.923033,1307.279
556,0.9247,1309.812
557,0.9263670000000001,1305.714
558,0.928033,1305.714
559,0.9297,1307.8
560,0.9313669999999999,1310.408
561,0.933033,1307.502
562,0.934733,1307.502
563,0.9363669999999999,1309.589
564,0.938017,1307.577
565,0.939683,1307.577
566,0.94135,1306.236
567,0.943017,1307.353
568,0.9446830000000001,1306.012
569,0.94635,1306.012
570,0.948017,1304.597
571,0.9496830000000001,1302.063
572,0.951483,1299.009
573,0.953017,1299.009
574,0.9546829999999999,1296.55
575,0.95635,1295.88
576,0.958017,1294.464
577,0.959683,1294.464
578,0.96135,1294.017
579,0.96305,1294.538
580,0.964683,1294.538
581,0.96635,1293.197
582,0.968017,1290.292
583,0.969683,1290.813
584,0.97135,1290.813
585,0.973017,1286.641
586,0.974683,1284.555
587,0.9763500000000001,1283.735
588,0.978017,1283.735
589,0.979683,1280.457
590,0.9813499999999999,1279.041
591,0.983017,1279.786
592,0.984683,1279.786
593,0.9863499999999999,1278.892
594,0.988017,1278.594
595,0.989683,1277.998
596,0.99135,1277.998
597,0.99305,1276.284
598,0.994683,1275.316
599,0.99635,1275.316
600,0.998,1274.869
601,0.999667,1275.316
602,1.001333,1273.9
603,1.003,1273.9
604,1.004667,1274.571
605,1.00635,1273.602
606,1.008,1271.218
607,1.009667,1271.218
608,1.011333,1271.069
609,1.013,1271.591
610,1.014667,1271.367
611,1.016333,1271.367
612,1.018,1273.975
613,1.019667,1271.069
614,1.021333,1271.069
615,1.023,1266.971
616,1.024667,1264.289
617,1.026333,1261.16
618,1.028,1261.16
619,1.029667,1264.811
620,1.031333,1267.94
621,1.033,1267.12
622,1.034667,1267.12
623,1.03635,1265.854
624,1.038017,1261.756
625,1.039667,1256.987
626,1.041333,1256.987
627,1.043,1256.54
628,1.044667,1256.913
629,1.046333,1254.38
630,1.048,1254.38
631,1.049667,1255.795
632,1.051333,1258.031
633,1.053,1258.031
634,1.054667,1257.36
635,1.056333,1259.893
636,1.057983,1259.372
637,1.05965,1259.372
638,1.061317,1255.795
639,1.062983,1254.901
640,1.06465,1253.709
641,1.066317,1253.709
642,1.067983,1251.996
643,1.06975,1250.058
644,1.071317,1250.803
645,1.072983,1250.803
646,1.07465,1248.27
647,1.076317,1249.537
648,1.077983,1249.537
649,1.07965,1248.196
650,1.081317,1247.376
651,1.082983,1247.972
652,1.08465,1247.972
653,1.086317,1244.694
654,1.087983,1247.525
655,1.08965,1244.247
656,1.091317,1244.247
657,1.092983,1241.788
658,1.09465,1240
659,1.096317,1238.286
660,1.097983,1238.286
661,1.09965,1239.33
662,1.101317,1242.31
663,1.102983,1242.31
664,1.10465,1240.82
665,1.106317,1241.639
666,1.107967,1241.341
667,1.109633,1241.341
668,1.1113,1238.883
669,1.112967,1240.149
670,1.114633,1238.212
671,1.1163,1238.212
672,1.11795,1237.318
673,1.119617,1235.381
674,1.1213,1233.965
675,1.122983,1233.965
676,1.124617,1234.114
677,1.126283,1231.506
678,1.12795,1230.91
679,1.129617,1230.91
680,1.131283,1228.899
681,1.132967,1224.652
682,1.134617,1224.652
683,1.136283,1227.558
684,1.13795,1229.271
685,1.139617,1233.071
686,1.141283,1233.071
687,1.14295,1235.604
688,1.144617,1231.879
689,1.146283,1230.091
690,1.14795,1230.091
691,1.149617,1230.314
692,1.151283,1228.154
693,1.15295,1229.42
694,1.154667,1229.42
695,1.156283,1228.377
696,1.15795,1224.13
697,1.159617,1224.13
698,1.161283,1225.77
699,1.16295,1227.781
700,1.164617,1226.664
701,1.166283,1226.664
702,1.16795,1227.111
703,1.169617,1228.005
704,1.171283,1223.981
705,1.17295,1223.981
706,1.174617,1226.664
707,1.176283,1226.962
708,1.177933,1223.534
709,1.1796,1223.534
710,1.181283,1225.397
711,1.182933,1223.385
712,1.1846,1224.875
713,1.186267,1224.875
714,1.188067,1224.577
715,1.1896,1222.044
716,1.191267,1222.044
717,1.192933,1221.076
718,1.1946,1218.021
719,1.196267,1217.052
720,1.197933,1217.052
721,1.1996,1216.68
722,1.201267,1216.829
723,1.202933,1219.287
724,1.2046,1219.287
725,1.206267,1222.044
726,1.207967,1222.268
727,1.209617,1223.013
728,1.211267,1223.013
729,1.212933,1221.225
730,1.2146,1217.723
731,1.216267,1217.723
732,1.217933,1218.17
733,1.2196,1213.923
734,1.221267,1210.496
735,1.222933,1210.496
736,1.2246,1211.241
737,1.226267,1211.464
738,1.227933,1215.041
739,1.2296,1215.041
740,1.231267,1219.362
741,1.232933,1219.809
742,1.2346,1218.393
743,1.236267,1218.393
744,1.237917,1216.456
745,1.239583,1215.413
746,1.24125,1215.413
747,1.242917,1212.284
748,1.244583,1209.825
749,1.24625,1212.06
750,1.247917,1212.06
751,1.249583,1212.582
752,1.25125,1214.966
753,1.252917,1217.499
754,1.254583,1217.499
755,1.25625,1213.178
756,1.257917,1210.421
757,1.259583,1210.496
758,1.26125,1210.496
759,1.262917,1212.135
760,1.264583,1214.743
761,1.26625,1214.37
762,1.267917,1214.37
763,1.269583,1212.582
764,1.27125,1208.484
765,1.272967,1208.484
766,1.274583,1205.951
767,1.27625,1204.982
768,1.277917,1205.951
769,1.279583,1205.951
770,1.28125,1207.59
771,1.28295,1208.41
772,1.28465,1207.218
773,1.28625,1207.218
774,1.287917,1205.28
775,1.289583,1205.802
776,1.29125,1207.069
777,1.292917,1207.069
778,1.294583,1211.986
779,1.29625,1213.625
780,1.2979,1213.625
781,1.299567,1213.104
782,1.301233,1209.453
783,1.3029,1204.237
784,1.304567,1204.237
785,1.306367,1202.747
786,1.3079,1199.245
787,1.309567,1200.661
788,1.311233,1200.661
789,1.3129,1201.332
790,1.314567,1197.159
791,1.316233,1200.14
792,1.3179,1200.14
793,1.319567,1200.736
794,1.321233,1200.959
795,1.3229,1204.833
796,1.324567,1204.833
797,1.326233,1201.555
798,1.3279,1200.438
799,1.329567,1200.438
800,1.331233,1198.798
801,1.3329,1198.053
802,1.334567,1195.967
803,1.336233,1195.967
804,1.3379,1192.614
805,1.339567,1193.509
806,1.341233,1193.285
807,1.3429,1193.285
808,1.344567,1196.787
809,1.346233,1200.438
810,1.3479,1201.481
811,1.349567,1201.481
812,1.351233,1204.014
813,1.3529,1202.822
814,1.354567,1202.822
815,1.35625,1203.865
816,1.3579,1202.449
817,1.35955,1200.736
818,1.361217,1200.736
819,1.362883,1202.3
820,1.36455,1200.81
821,1.366217,1199.543
822,1.367883,1199.543
823,1.369583,1197.308
824,1.371217,1196.042
825,1.372883,1193.509
826,1.37455,1193.509
827,1.376217,1194.179
828,1.377883,1194.775
829,1.37955,1193.359
830,1.381217,1193.359
831,1.382883,1195.073
832,1.38455,1196.712
833,1.386217,1196.712
834,1.387883,1198.202
835,1.38955,1199.096
836,1.391233,1200.736
837,1.392883,1200.736
838,1.39455,1197.01
839,1.396217,1195.818
840,1.397883,1195.744
841,1.399533,1195.744
842,1.4012,1194.775
843,1.402867,1195.744
844,1.404533,1194.03
845,1.4062,1194.03
846,1.407867,1191.795
847,1.409533,1189.709
848,1.4112,1189.709
849,1.412867,1191.944
850,1.414533,1193.583
851,1.416183,1198.649
852,1.41785,1198.649
853,1.419517,1199.767
854,1.421183,1198.128
855,1.42285,1198.426
856,1.424617,1198.426
857,1.426183,1196.116
858,1.42785,1196.191
859,1.429517,1195.744
860,1.431183,1195.744
861,1.4329,1193.434
862,1.434517,1189.113
863,1.436183,1189.113
864,1.43785,1189.783
865,1.439517,1190.603
866,1.441183,1193.359
867,1.44285,1193.359
868,1.444517,1197.606
869,1.446183,1197.234
870,1.44785,1199.693
871,1.449517,1199.693
872,1.451183,1200.14
873,1.45285,1200.885
874,1.454517,1201.332
875,1.456233,1201.332
876,1.45785,1196.265
877,1.459517,1193.062
878,1.461183,1188.889
879,1.46285,1188.889
880,1.464517,1188.964
881,1.466183,1192.689
882,1.46785,1192.689
883,1.469517,1194.775
884,1.471183,1197.085
885,1.47285,1194.477
886,1.474517,1194.477
887,1.476183,1191.05
888,1.477833,1190.156
889,1.4795,1188.591
890,1.481167,1188.591
891,1.482833,1190.007
892,1.4845,1192.912
893,1.486167,1193.359
894,1.487833,1193.359
895,1.4895,1192.614
896,1.491167,1190.528
897,1.492833,1190.528
898,1.4945,1187.026
899,1.496167,1186.803
900,1.497833,1189.113
901,1.499517,1189.113
902,1.501167,1188.591
903,1.502833,1187.772
904,1.5045,1184.046
905,1.506167,1184.046
906,1.507833,1183.674
907,1.50955,1183.823
908,1.511167,1184.717
909,1.512833,1184.717
910,1.5145,1185.909
911,1.516167,1183.45
912,1.517833,1182.333
913,1.5195,1182.333
914,1.521167,1181.141
915,1.522833,1183.525
916,1.5245,1183.525
917,1.52625,1184.419
918,1.527833,1188.442
919,1.5295,1190.379
920,1.531167,1190.379
