"ID","sea_time","fid_signal"
1,0,1165.271
2,0.001767,1165.271
3,0.003333,1167.506
4,0.005,1169.145
5,0.006667,1166.686
6,0.008333,1166.686
7,0.01,1166.463
8,0.011667,1163.93
9,0.013333,1162.812
10,0.015,1162.812
11,0.016667,1163.781
12,0.018317,1164.824
13,0.019983,1164.973
14,0.02165,1164.973
15,0.023317,1168.326
16,0.024983,1168.4
17,0.02665,1168.4
18,0.028317,1169.965
19,0.03,1170.188
20,0.031717,1167.357
21,0.033317,1167.357
22,0.034983,1167.208
23,0.03665,1164.6
24,0.038317,1166.463
25,0.039983,1166.463
26,0.04165,1167.059
27,0.043333,1164.526
28,0.044983,1165.867
29,0.04665,1165.867
30,0.048317,1163.483
31,0.049983,1165.122
32,0.05165,1165.122
33,0.053317,1168.102
34,0.054983,1168.847
35,0.05665,1169.741
36,0.058317,1169.741
37,0.059983,1167.208
38,0.06165,1165.345
39,0.063333,1165.792
40,0.064983,1165.792
41,0.06665,1166.239
42,0.068317,1169.443
43,0.069983,1169.443
44,0.07165000000000001,1169.443
45,0.07331699999999999,1167.953
46,0.07498299999999999,1166.91
47,0.07665,1166.91
48,0.078317,1166.314
49,0.079967,1166.686
50,0.081633,1165.718
51,0.0833,1165.718
52,0.08495,1166.835
53,0.086683,1167.58
54,0.088283,1167.804
55,0.08995,1167.804
56,0.091617,1169.965
57,0.093283,1170.933
58,0.09495000000000001,1168.027
59,0.09661699999999999,1168.027
60,0.098283,1166.761
61,0.09995,1164.6
62,0.10165,1163.632
63,0.103283,1163.632
64,0.10495,1163.855
65,0.106617,1167.282
66,0.108283,1167.282
67,0.10995,1167.655
68,0.111617,1167.282
69,0.113283,1166.984
70,0.11495,1166.984
71,0.116617,1165.941
72,0.118283,1166.612
73,0.120067,1168.624
74,0.121617,1168.624
75,0.123283,1168.922
76,0.12495,1166.761
77,0.126617,1168.922
78,0.128283,1168.922
79,0.12995,1170.114
80,0.131617,1174.36
81,0.133283,1174.36
82,0.13495,1178.533
83,0.136617,1175.18
84,0.138283,1171.306
85,0.13995,1171.306
86,0.1416,1165.941
87,0.143267,1163.855
88,0.144933,1164.302
89,0.1466,1164.302
90,0.148267,1167.059
91,0.149933,1168.251
92,0.1516,1166.314
93,0.153267,1166.314
94,0.154967,1167.282
95,0.1566,1163.557
96,0.158267,1163.185
97,0.159933,1163.185
98,0.1616,1163.855
99,0.163267,1163.036
100,0.164933,1163.036
101,0.1666,1166.463
102,0.168267,1167.208
103,0.169933,1166.686
104,0.1716,1166.686
105,0.173267,1164.302
106,0.174967,1161.62
107,0.1766,1160.726
108,0.178267,1160.726
109,0.179933,1160.502
110,0.1816,1163.557
111,0.183267,1163.632
112,0.184933,1163.632
113,0.1866,1163.632
114,0.188267,1164.824
115,0.189933,1164.824
116,0.1916,1163.259
117,0.193267,1166.463
118,0.194933,1169.741
119,0.1966,1169.741
120,0.198267,1171.231
121,0.199933,1172.498
122,0.201583,1168.773
123,0.20325,1168.773
124,0.205,1165.941
125,0.206583,1163.185
126,0.20825,1161.695
127,0.209917,1161.695
128,0.211583,1162.961
129,0.21325,1164.079
130,0.214917,1166.686
131,0.216583,1166.686
132,0.218267,1167.506
133,0.219917,1167.655
134,0.221583,1167.655
135,0.22325,1166.761
136,0.224917,1163.855
137,0.226583,1166.761
138,0.22825,1166.761
139,0.229917,1165.569
140,0.231583,1167.133
141,0.23325,1169.89
142,0.234917,1169.89
143,0.236583,1168.996
144,0.238283,1168.475
145,0.239917,1166.165
146,0.241583,1166.165
147,0.24325,1166.388
148,0.244917,1165.941
149,0.246583,1165.941
150,0.24825,1169.816
151,0.249917,1171.902
152,0.251583,1172.349
153,0.25325,1172.349
154,0.254933,1173.69
155,0.256583,1172.572
156,0.25825,1170.933
157,0.2599,1170.933
158,0.261567,1169.518
159,0.263233,1165.941
160,0.2649,1163.334
161,0.266567,1163.334
162,0.268233,1163.93
163,0.2699,1160.651
164,0.271567,1160.651
165,0.273233,1163.11
166,0.2749,1163.632
167,0.276567,1163.259
168,0.278233,1163.259
169,0.2799,1165.941
170,0.281567,1164.079
171,0.283233,1165.345
172,0.2849,1165.345
173,0.286567,1168.698
174,0.288233,1170.635
175,0.2899,1174.584
176,0.291567,1174.584
177,0.293233,1174.286
178,0.2949,1171.827
179,0.296567,1168.549
180,0.298233,1168.549
181,0.2999,1164.451
182,0.301567,1164.6
183,0.303233,1164.6
184,0.3049,1163.781
185,0.306567,1166.239
186,0.308233,1167.879
187,0.3099,1167.879
188,0.311567,1169.071
189,0.313233,1169.965
190,0.314917,1168.102
191,0.316567,1168.102
192,0.318217,1169.667
193,0.319917,1169.592
194,0.3216,1169.965
195,0.323283,1169.965
196,0.324883,1172.125
197,0.32655,1172.572
198,0.328217,1172.572
199,0.329883,1171.38
200,0.33155,1173.466
201,0.333217,1174.212
202,0.334883,1174.212
203,0.33655,1173.466
204,0.338217,1173.466
205,0.339883,1173.541
206,0.34155,1173.541
207,0.343217,1171.38
208,0.344883,1171.082
209,0.34655,1170.561
210,0.348217,1170.561
211,0.349883,1167.432
212,0.35155,1166.388
213,0.353217,1167.208
214,0.354883,1167.208
215,0.356667,1169.071
216,0.358217,1170.635
217,0.359883,1170.635
218,0.36155,1172.349
219,0.363217,1169.667
220,0.364883,1167.879
221,0.36655,1167.879
222,0.368217,1165.271
223,0.369883,1164.451
224,0.37155,1165.271
225,0.373217,1165.271
226,0.374883,1168.102
227,0.376533,1172.125
228,0.378183,1175.553
229,0.379867,1175.553
230,0.381517,1176.223
231,0.383183,1179.054
232,0.38485,1179.054
233,0.386517,1179.65
234,0.388183,1180.172
235,0.38985,1183.376
236,0.391517,1183.376
237,0.3932,1185.387
238,0.39485,1186.729
239,0.396517,1190.603
240,0.398283,1190.603
241,0.39985,1195.222
242,0.401517,1196.712
243,0.403183,1204.908
244,0.40485,1204.908
245,0.406517,1212.954
246,0.408183,1226.291
247,0.40985,1248.196
248,0.411517,1248.196
249,0.413183,1278.594
250,0.41485,1326.576
251,0.416517,1326.576
252,0.418183,1390.725
253,0.41985,1479.909
254,0.421517,1595.765
255,0.423183,1595.765
256,0.42485,1744.777
257,0.426517,1937.747
258,0.428183,2176.017
259,0.42985,2176.017
260,0.431517,2463.907
261,0.433183,2800.077
262,0.43485,3185.719
263,0.436517,3185.719
264,0.438183,3619.641
265,0.43985,4101.321
266,0.441583,4625.768
267,0.443167,4625.768
268,0.444833,5188.137
269,0.4465,5780.831
270,0.448167,5780.831
271,0.449833,6397.441
272,0.4515,7033.87
273,0.453167,7677.376
274,0.454833,7677.376
275,0.4565,8329.674999999999
276,0.458167,8981.450999999999
277,0.459833,9624.287
278,0.4615,9624.287
279,0.463167,10255.947
280,0.464833,10860.711
281,0.466517,11438.504
282,0.468167,11438.504
283,0.469867,11986.271
284,0.4715,12496.263
285,0.473167,12496.263
286,0.4749,12967.14
287,0.4765,13396.442
288,0.478167,13778.731
289,0.479833,13778.731
290,0.4815,14112.07
291,0.483167,14397.055
292,0.484833,14624.298
293,0.4865,14624.298
294,0.488167,14798.045
295,0.489833,14917.553
296,0.4915,14982.745
297,0.493167,14982.745
298,0.494833,14999.658
299,0.4965,14967.844
300,0.498167,14967.844
301,0.499833,14891.476
302,0.501483,14770.478
303,0.50315,14610.365
304,0.504817,14610.365
305,0.506483,14414.861
306,0.50815,14190.227
307,0.509817,13942.122
308,0.511483,13942.122
309,0.51315,13674.944
310,0.514817,13387.277
311,0.516483,13090
312,0.51815,13090
313,0.519817,12782.813
314,0.521483,12469.292
315,0.52315,12469.292
316,0.524817,12153.387
317,0.526483,11831.597
318,0.52815,11511.892
319,0.529817,11511.892
320,0.531483,11197.18
321,0.53315,10887.385
322,0.534817,10583.848
323,0.536483,10583.848
324,0.53815,10289.997
325,0.539833,10002.479
326,0.541483,9726.286
327,0.543183,9726.286
328,0.544817,9460.226000000001
329,0.5464830000000001,9200.498
330,0.54815,8950.978999999999
331,0.549817,8950.978999999999
332,0.5514829999999999,8708.834999999999
333,0.55315,8477.791999999999
334,0.554817,8477.791999999999
335,0.5564829999999999,8255.02
336,0.55815,8040.518
337,0.559817,7833.987
338,0.561467,7833.987
339,0.563133,7634.014
340,0.5648,7445.142
341,0.5664670000000001,7263.794
342,0.568133,7263.794
343,0.5698,7090.568
344,0.5714669999999999,6927.326
345,0.573133,6767.139
346,0.5748,6767.139
347,0.57655,6611.272
348,0.578133,6462.783
349,0.5798,6462.783
350,0.581467,6320.402
351,0.583133,6182.343
352,0.5848,6052.926
353,0.586467,6052.926
354,0.588133,5929.247
355,0.5898,5809.367
356,0.591467,5696.938
357,0.5931999999999999,5696.938
358,0.5948,5586.594
359,0.596467,5477.518
360,0.598133,5372.614
361,0.5998,5372.614
362,0.601467,5274.862
363,0.603133,5179.42
364,0.6048,5090.758
365,0.606467,5090.758
366,0.608133,5001.053
367,0.6099,4912.168
368,0.611467,4912.168
369,0.613133,4828.2
370,0.6148,4746.988
371,0.616467,4670.396
372,0.618117,4670.396
373,0.619833,4596.188
374,0.6215000000000001,4526.749
375,0.623117,4456.788
376,0.624783,4456.788
377,0.62645,4390.254
378,0.628117,4328.042
379,0.629783,4262.626
380,0.63145,4262.626
381,0.633117,4204.213
382,0.634783,4143.119
383,0.63645,4143.119
384,0.638117,4083.291
385,0.639783,4027.635
386,0.64145,3972.65
387,0.643117,3972.65
388,0.644783,3923.848
389,0.64645,3875.122
390,0.6481170000000001,3826.32
391,0.649783,3826.32
392,0.65145,3779.679
393,0.6531169999999999,3731.325
394,0.654783,3685.206
395,0.65645,3685.206
396,0.658117,3641.248
397,0.659783,3596.395
398,0.66145,3558.099
399,0.663117,3558.099
400,0.664783,3519.058
401,0.66645,3481.433
402,0.6681,3481.433
403,0.669767,3444.627
404,0.6714329999999999,3408.864
405,0.6731,3372.654
406,0.674767,3372.654
407,0.676433,3336.892
408,0.67815,3304.258
409,0.679767,3268.719
410,0.6814170000000001,3268.719
411,0.683117,3236.309
412,0.68475,3204.569
413,0.6864170000000001,3169.7
414,0.6881,3169.7
415,0.689783,3136.098
416,0.6914169999999999,3105.998
417,0.693083,3105.998
418,0.6948,3078.058
419,0.696417,3051.534
420,0.698083,3025.085
421,0.69975,3025.085
422,0.701417,2995.953
423,0.703083,2968.907
424,0.70475,2942.458
425,0.706417,2942.458
426,0.708083,2920.106
427,0.70975,2898.872
428,0.711467,2874.583
429,0.713083,2874.583
430,0.71475,2852.157
431,0.716417,2826.899
432,0.718083,2826.899
433,0.71975,2804.101
434,0.721417,2784.356
435,0.723083,2764.761
436,0.72475,2764.761
437,0.726417,2745.762
438,0.728167,2725.05
439,0.72975,2703.071
440,0.731417,2703.071
441,0.733083,2683.699
442,0.73475,2664.924
443,0.736417,2647.34
444,0.738083,2647.34
445,0.73975,2631.023
446,0.7413999999999999,2613.291
447,0.743067,2596.006
448,0.744733,2596.006
449,0.7464,2578.199
450,0.748067,2563.819
451,0.749733,2563.819
452,0.7514,2549.663
453,0.753067,2533.123
454,0.754733,2520.308
455,0.7564,2520.308
456,0.7581,2501.532
457,0.759733,2483.279
458,0.7614,2465.919
459,0.7630670000000001,2465.919
460,0.764733,2446.026
461,0.7664,2431.497
462,0.7680670000000001,2416.447
463,0.769733,2416.447
464,0.7714,2403.632
465,0.7730669999999999,2394.393
466,0.774767,2394.393
467,0.7764,2380.312
468,0.778067,2368.54
469,0.779733,2356.023
470,0.7814,2356.023
471,0.783067,2343.357
472,0.784733,2332.628
473,0.7864,2320.26
474,0.788067,2320.26
475,0.789733,2310.201
476,0.7914,2297.908
477,0.793067,2288.818
478,0.794733,2288.818
479,0.7964,2277.866
480,0.798067,2266.69
481,0.799717,2255.663
482,0.801383,2255.663
483,0.80305,2238.229
484,0.804717,2226.457
485,0.806383,2226.457
486,0.80805,2215.952
487,0.809717,2203.435
488,0.811383,2197.325
489,0.813067,2197.325
490,0.814717,2188.608
491,0.816383,2176.24
492,0.8180500000000001,2167.597
493,0.819717,2167.597
494,0.821383,2157.241
495,0.8230499999999999,2145.842
496,0.824717,2134.591
497,0.826383,2134.591
498,0.828067,2125.353
499,0.82975,2118.051
500,0.831383,2118.051
501,0.83305,2111.495
502,0.834717,2105.087
503,0.836383,2094.358
504,0.83805,2094.358
505,0.839717,2082.81
506,0.841383,2071.038
507,0.84305,2063.438
508,0.8447170000000001,2063.438
509,0.846483,2055.615
510,0.84805,2048.016
511,0.849733,2041.683
512,0.851383,2041.683
513,0.85305,2034.456
514,0.8547169999999999,2027.154
515,0.856383,2027.154
516,0.85805,2023.578
517,0.8597,2018.064
518,0.861367,2010.465
519,0.86305,2010.465
520,0.864733,2001.3
521,0.866367,1992.956
522,0.8680330000000001,1986.027
523,0.8697,1986.027
524,0.871367,1977.235
525,0.8730329999999999,1974.776
526,0.8747,1966.208
527,0.876367,1966.208
528,0.878033,1957.044
529,0.8797,1951.903
530,0.881367,1941.696
531,0.883033,1941.696
532,0.8847,1932.681
533,0.886367,1924.559
534,0.888033,1924.559
535,0.8897,1918.301
536,0.891367,1913.086
537,0.893033,1909.733
538,0.8947000000000001,1909.733
539,0.896367,1904.07
540,0.898033,1897.439
541,0.8997000000000001,1890.138
542,0.9014,1890.138
543,0.903033,1882.911
544,0.9046999999999999,1877.621
545,0.906367,1871.66
546,0.908033,1871.66
547,0.9097,1867.786
548,0.911367,1860.559
549,0.913033,1860.559
550,0.9147,1856.387
551,0.916367,1851.171
552,0.918033,1845.136
553,0.919683,1845.136
554,0.92135,1841.858
555,0.923017,1836.047
556,0.924683,1828.969
557,0.92635,1828.969
558,0.928017,1821.741
559,0.929683,1816.005
560,0.9313669999999999,1812.726
561,0.933017,1812.726
562,0.934683,1810.789
563,0.93635,1806.989
564,0.938017,1800.284
565,0.939683,1800.284
566,0.94135,1795.143
567,0.943017,1789.927
568,0.9447,1789.927
569,0.94635,1787.618
570,0.948017,1786.947
571,0.9496830000000001,1780.316
572,0.95135,1780.316
573,0.953017,1775.92
574,0.9546829999999999,1769.811
575,0.95635,1763.627
576,0.958,1763.627
577,0.959667,1758.337
578,0.961333,1752.228
579,0.963,1750.216
580,0.9647829999999999,1750.216
581,0.966333,1745.895
582,0.968,1742.095
583,0.9696669999999999,1742.095
584,0.97135,1739.264
585,0.973,1732.334
586,0.974667,1728.609
587,0.976333,1728.609
588,0.978,1724.139
589,0.979683,1717.88
590,0.981367,1716.986
591,0.9829830000000001,1716.986
592,0.98465,1714.751
593,0.986317,1713.932
594,0.9879829999999999,1714.677
595,0.98965,1714.677
596,0.991317,1710.281
597,0.9929829999999999,1705.587
598,0.99465,1698.732
599,0.996317,1698.732
600,0.997983,1692.25
601,0.99965,1689.792
602,1.001317,1689.792
603,1.002983,1687.78
604,1.00465,1686.96
605,1.006317,1683.906
606,1.007983,1683.906
607,1.00965,1679.361
608,1.011317,1675.561
609,1.012983,1672.73
610,1.01465,1672.73
611,1.016317,1669.303
612,1.017983,1664.162
613,1.01965,1660.585
614,1.021317,1660.585
615,1.022983,1657.903
616,1.024667,1656.786
617,1.026333,1656.786
618,1.027983,1655.891
619,1.02965,1651.421
620,1.031317,1649.633
621,1.032983,1649.633
622,1.03465,1647.77
623,1.036317,1645.163
624,1.037983,1641.661
625,1.03965,1641.661
626,1.0413,1636.446
627,1.042967,1632.124
628,1.04465,1628.92
629,1.04635,1628.92
630,1.047967,1628.026
631,1.0497,1626.685
632,1.0513,1626.685
633,1.052967,1622.96
634,1.054633,1619.756
635,1.0563,1615.882
636,1.057967,1615.882
637,1.059633,1610.443
638,1.0613,1604.632
639,1.062967,1600.832
640,1.064633,1600.832
641,1.0663,1599.714
642,1.067967,1598.895
643,1.069633,1598.969
644,1.0713,1598.969
645,1.072967,1597.703
646,1.074633,1595.02
647,1.0763,1592.934
648,1.077967,1592.934
649,1.079633,1593.828
650,1.0813,1595.244
651,1.083067,1595.169
652,1.084633,1595.169
653,1.0863,1590.326
654,1.087967,1585.409
655,1.089633,1585.409
656,1.0913,1579.672
657,1.092967,1574.457
658,1.094633,1573.563
659,1.0963,1573.563
660,1.097967,1572.52
661,1.099617,1569.763
662,1.101283,1568.794
663,1.10295,1568.794
664,1.104617,1566.485
665,1.106283,1562.908
666,1.10795,1562.908
667,1.109617,1559.406
668,1.111283,1555.979
669,1.11295,1555.905
670,1.114617,1555.905
671,1.116283,1554.042
672,1.117967,1552.478
673,1.119667,1551.36
674,1.121283,1551.36
675,1.12295,1548.603
676,1.124617,1547.188
677,1.126283,1547.709
678,1.12795,1547.709
679,1.129617,1543.313
680,1.131283,1539.141
681,1.13295,1534.894
682,1.134617,1534.894
683,1.136283,1531.541
684,1.13795,1529.306
685,1.139617,1529.306
686,1.141283,1528.412
687,1.14295,1528.487
688,1.144617,1526.028
689,1.146283,1526.028
690,1.14795,1527.667
691,1.149617,1524.836
692,1.151283,1522.005
693,1.15295,1522.005
694,1.154617,1519.769
695,1.156283,1516.491
696,1.15795,1516.491
697,1.1596,1516.491
698,1.161267,1515.895
699,1.162933,1514.479
700,1.1646,1514.479
701,1.166267,1512.393
702,1.168017,1507.849
703,1.1696,1504.868
704,1.171267,1504.868
705,1.172933,1501.813
706,1.1746,1497.045
707,1.176267,1497.418
708,1.177933,1497.418
709,1.1796,1498.535
710,1.181267,1498.61
711,1.182933,1500.621
712,1.1846,1500.621
713,1.186267,1497.939
714,1.187933,1495.704
715,1.189617,1492.351
716,1.1913,1492.351
717,1.192967,1488.253
718,1.1946,1486.912
719,1.196267,1486.912
720,1.197933,1481.473
721,1.1996,1481.324
722,1.201367,1479.685
723,1.202933,1479.685
724,1.2046,1477.972
725,1.206267,1476.184
726,1.207933,1473.054
727,1.2096,1473.054
728,1.211267,1474.768
729,1.212933,1475.289
730,1.2146,1477.376
731,1.216267,1477.376
732,1.217933,1479.164
733,1.219583,1474.991
734,1.22125,1474.991
735,1.222917,1471.862
736,1.224583,1469.255
737,1.22625,1466.796
738,1.227917,1466.796
739,1.229583,1466.498
740,1.23125,1463.369
741,1.232917,1460.835
742,1.234583,1460.835
743,1.23625,1458.377
744,1.237917,1454.502
745,1.239583,1453.087
746,1.24125,1453.087
747,1.242917,1450.926
748,1.244583,1448.318
749,1.24625,1450.777
750,1.247917,1450.777
751,1.249567,1450.926
752,1.251233,1451.224
753,1.2529,1451.224
754,1.254567,1450.181
755,1.256233,1444.593
756,1.2579,1443.625
757,1.259567,1443.625
758,1.261233,1441.836
759,1.262917,1441.24
760,1.264567,1445.487
761,1.266233,1445.487
762,1.2679,1443.997
763,1.269567,1444.146
764,1.271233,1442.581
765,1.272933,1442.581
766,1.274567,1437.664
767,1.276233,1435.876
768,1.2779,1435.876
769,1.279567,1429.021
770,1.281217,1427.755
771,1.282883,1427.829
772,1.28455,1427.829
773,1.28625,1426.712
774,1.287883,1429.096
775,1.28955,1426.339
776,1.291217,1426.339
777,1.292883,1424.477
778,1.29455,1425.445
779,1.296217,1424.924
780,1.297883,1424.924
781,1.29955,1423.88
782,1.301217,1421.571
783,1.302933,1419.634
784,1.30455,1419.634
785,1.306217,1417.92
786,1.307883,1420.453
787,1.30955,1420.453
788,1.311217,1422.688
789,1.312883,1422.614
790,1.31455,1420.23
791,1.316217,1420.23
792,1.317883,1417.622
793,1.319667,1413.301
794,1.321217,1410.693
795,1.322883,1410.693
796,1.32455,1409.575
797,1.326217,1409.128
798,1.327883,1408.905
799,1.32955,1408.905
800,1.331217,1409.575
801,1.332883,1412.258
802,1.33455,1412.258
803,1.336217,1409.799
804,1.337883,1406.893
805,1.33955,1404.211
806,1.341233,1404.211
807,1.342867,1402.87
808,1.344533,1402.497
809,1.3462,1402.497
810,1.347867,1402.497
811,1.349533,1398.995
812,1.3512,1394.525
813,1.352867,1394.972
814,1.354533,1394.972
815,1.3562,1395.941
816,1.357867,1396.835
817,1.359533,1396.835
818,1.3612,1397.356
819,1.362867,1393.11
820,1.36455,1389.459
821,1.3662,1389.459
822,1.367867,1386.181
823,1.369533,1384.839
824,1.3712,1385.734
825,1.372867,1385.734
826,1.374533,1384.467
827,1.3762,1384.69
828,1.377867,1384.914
829,1.379533,1384.914
830,1.3812,1382.828
831,1.382867,1384.318
832,1.384533,1386.181
833,1.3862,1386.181
834,1.387867,1384.765
835,1.389533,1384.914
836,1.3912,1384.914
837,1.392867,1382.679
838,1.394533,1378.804
839,1.3962,1376.048
840,1.397867,1376.048
841,1.399517,1375.973
842,1.401183,1376.346
843,1.40285,1379.028
844,1.404567,1379.028
845,1.406183,1380.071
846,1.40785,1379.848
847,1.409517,1379.102
848,1.411183,1379.102
849,1.41285,1376.569
850,1.414517,1377.24
851,1.416183,1377.24
852,1.41785,1375.452
853,1.419517,1375.228
854,1.4213,1376.495
855,1.42285,1376.495
856,1.424517,1373.962
857,1.426183,1371.503
858,1.427867,1371.279
859,1.429517,1371.279
860,1.431183,1369.64
861,1.43285,1369.193
862,1.434517,1366.809
863,1.436183,1366.809
864,1.437917,1364.201
865,1.439517,1363.233
866,1.441183,1361.817
867,1.44285,1361.817
868,1.444517,1362.935
869,1.446183,1364.425
870,1.44785,1364.425
871,1.449517,1363.233
872,1.451183,1362.339
873,1.452867,1362.339
874,1.454617,1362.339
875,1.456183,1358.241
876,1.45785,1357.794
877,1.459517,1356.453
878,1.461167,1356.453
879,1.462833,1357.496
880,1.4645,1360.774
881,1.466167,1358.613
882,1.467833,1358.613
883,1.4695,1359.284
884,1.471167,1358.986
885,1.472833,1358.986
886,1.4745,1358.986
887,1.476167,1358.464
888,1.477833,1357.868
889,1.4795,1357.868
890,1.4812,1356.006
891,1.482833,1353.025
892,1.4845,1352.504
893,1.486167,1352.504
894,1.487833,1351.014
895,1.4895,1348.555
896,1.491167,1344.979
897,1.492833,1344.979
898,1.4945,1341.775
899,1.496167,1341.775
900,1.497833,1341.775
901,1.4995,1341.254
902,1.501167,1343.936
903,1.502833,1346.618
904,1.5045,1346.618
905,1.506167,1346.841
906,1.507833,1344.83
907,1.5095,1342.669
908,1.511167,1342.669
909,1.512833,1342.669
910,1.5145,1339.838
911,1.516167,1340.955
912,1.517833,1340.955
913,1.519483,1339.614
