"ID","sea_time","fid_signal"
1,0,1175.776
2,0.001583,1174.212
3,0.00325,1174.212
4,0.004917,1175.627
5,0.006583,1177.937
6,0.00825,1179.054
7,0.009917,1179.054
8,0.011583,1180.619
9,0.01325,1178.384
10,0.014917,1178.384
11,0.016633,1177.862
12,0.018267,1174.435
13,0.019917,1171.529
14,0.021583,1171.529
15,0.02325,1169.294
16,0.024917,1166.984
17,0.026583,1171.753
18,0.02825,1171.753
19,0.029917,1173.69
20,0.031583,1179.576
21,0.03325,1181.737
22,0.034917,1181.737
23,0.036583,1183.078
24,0.03825,1181.141
25,0.039917,1178.086
26,0.041583,1178.086
27,0.04325,1176.521
28,0.044917,1170.933
29,0.046583,1170.933
30,0.048233,1171.455
31,0.0499,1171.827
32,0.051567,1169.369
33,0.053233,1169.369
34,0.0549,1170.561
35,0.056567,1167.804
36,0.058233,1164.302
37,0.059933,1164.302
38,0.061567,1163.781
39,0.063233,1162.961
40,0.0649,1162.291
41,0.066567,1162.291
42,0.068233,1165.792
43,0.0699,1169.518
44,0.07156700000000001,1169.518
45,0.07323300000000001,1171.753
46,0.07489999999999999,1171.38
47,0.076567,1168.475
48,0.078233,1168.475
49,0.0799,1165.122
50,0.081567,1164.004
51,0.083233,1167.953
52,0.0849,1167.953
53,0.08656700000000001,1168.624
54,0.088267,1171.529
55,0.08989999999999999,1171.976
56,0.091567,1171.976
57,0.093233,1170.114
58,0.0949,1168.549
59,0.096567,1168.996
60,0.098233,1168.996
61,0.0999,1169.965
62,0.101567,1175.478
63,0.103233,1175.478
64,0.1049,1178.756
65,0.106567,1175.404
66,0.108233,1178.16
67,0.109883,1178.16
68,0.11155,1172.945
69,0.113233,1172.2
70,0.114883,1175.553
71,0.11655,1175.553
72,0.1183,1172.945
73,0.119883,1171.529
74,0.12155,1170.337
75,0.123217,1170.337
76,0.124883,1168.251
77,0.12655,1169.592
78,0.128217,1169.592
79,0.129883,1173.317
80,0.13155,1174.212
81,0.133217,1173.839
82,0.134917,1173.839
83,0.13655,1171.678
84,0.138217,1171.902
85,0.139883,1172.498
86,0.14155,1172.498
87,0.143217,1172.349
88,0.144883,1171.827
89,0.14655,1171.082
90,0.148233,1171.082
91,0.149883,1170.188
92,0.151633,1174.51
93,0.153217,1174.584
94,0.154883,1174.584
95,0.15655,1175.329
96,0.158217,1176.447
97,0.159883,1176.447
98,0.16155,1173.839
99,0.163217,1174.659
100,0.164883,1170.859
101,0.166533,1170.859
102,0.168233,1173.615
103,0.169867,1175.106
104,0.171533,1177.862
105,0.1732,1177.862
106,0.174867,1179.054
107,0.176533,1173.317
108,0.1782,1171.678
109,0.179867,1171.678
110,0.181533,1167.879
111,0.1832,1167.804
112,0.184867,1167.804
113,0.186533,1169.22
114,0.1882,1169.667
115,0.189867,1171.604
116,0.191533,1171.604
117,0.1932,1173.839
118,0.194867,1172.796
119,0.196533,1173.019
120,0.1982,1173.019
121,0.199867,1173.913
122,0.201533,1171.827
123,0.2032,1173.317
124,0.204867,1173.317
125,0.206533,1174.063
126,0.2082,1176
127,0.209867,1176
128,0.211533,1180.693
129,0.2132,1182.631
130,0.214867,1181.29
131,0.216533,1181.29
132,0.2182,1179.129
133,0.2199,1175.18
134,0.221533,1173.913
135,0.2232,1173.913
136,0.224867,1174.435
137,0.22655,1176.447
138,0.2282,1181.215
139,0.22985,1181.215
140,0.231517,1183.748
141,0.233183,1183.748
142,0.23485,1184.419
143,0.2366,1184.419
144,0.238183,1184.866
145,0.23985,1184.642
146,0.241517,1184.642
147,0.243183,1186.654
148,0.24485,1186.803
149,0.246517,1186.132
150,0.248183,1186.132
151,0.24985,1184.94
152,0.2515,1189.262
153,0.253267,1192.018
154,0.254833,1192.018
155,0.2565,1196.191
156,0.258167,1203.343
157,0.259833,1207.441
158,0.2615,1207.441
159,0.263167,1214.668
160,0.264833,1222.938
161,0.2665,1222.938
162,0.268167,1225.173
163,0.269833,1229.346
164,0.2715,1233.369
165,0.273167,1233.369
166,0.274833,1234.71
167,0.2765,1242.384
168,0.278167,1247.972
169,0.279833,1247.972
170,0.2815,1245.588
171,0.283167,1249.611
172,0.284833,1252.964
173,0.2865,1252.964
174,0.288167,1254.529
175,0.289817,1258.18
176,0.291483,1259.372
177,0.29315,1259.372
178,0.294817,1260.862
179,0.296483,1264.736
180,0.29815,1264.736
181,0.299817,1267.12
182,0.301483,1266.822
183,0.30315,1267.791
184,0.304817,1267.791
185,0.306533,1262.873
186,0.30825,1261.681
187,0.309817,1265.109
188,0.311483,1265.109
189,0.31315,1265.481
190,0.314817,1268.834
191,0.316483,1270.846
192,0.31815,1270.846
193,0.319817,1268.61
194,0.321483,1269.728
195,0.32315,1269.728
196,0.324817,1272.41
197,0.326483,1275.316
198,0.32815,1278.818
199,0.329817,1278.818
200,0.331483,1277.775
201,0.33315,1278.669
202,0.334817,1283.363
203,0.336483,1283.363
204,0.33815,1284.927
205,0.339817,1290.441
206,0.341483,1293.123
207,0.34315,1293.123
208,0.344817,1292.154
209,0.346483,1291.26
210,0.348133,1291.26
211,0.3498,1292.154
212,0.351467,1290.143
213,0.353133,1287.609
214,0.354867,1287.609
215,0.356467,1285.374
216,0.358133,1277.178
217,0.3598,1273.677
218,0.361467,1273.677
219,0.363133,1268.387
220,0.3648,1267.195
221,0.366467,1263.991
222,0.368133,1263.991
223,0.3698,1258.776
224,0.371533,1261.234
225,0.373133,1255.795
226,0.3748,1255.795
227,0.376467,1254.156
228,0.378133,1252.07
229,0.379833,1252.07
230,0.381467,1245.737
231,0.383133,1245.663
232,0.3848,1242.831
233,0.386483,1242.831
234,0.388233,1239.777
235,0.3898,1234.263
236,0.391467,1223.46
237,0.393133,1223.46
238,0.3948,1217.872
239,0.396467,1212.507
240,0.398133,1206.323
241,0.3998,1206.323
242,0.401467,1206.547
243,0.403133,1205.802
244,0.4048,1205.802
245,0.406467,1202.3
246,0.408117,1204.014
247,0.409783,1197.681
248,0.41145,1197.681
249,0.413117,1193.881
250,0.414783,1193.881
251,0.41645,1187.772
252,0.418117,1187.772
253,0.419783,1190.007
254,0.42145,1186.579
255,0.423117,1181.364
256,0.424783,1181.364
257,0.42645,1182.929
258,0.428117,1180.693
259,0.429783,1181.066
260,0.43145,1181.066
261,0.433117,1185.536
262,0.434783,1182.705
263,0.43645,1182.705
264,0.438117,1182.407
265,0.439783,1185.089
266,0.44145,1181.439
267,0.443117,1181.439
268,0.444783,1182.78
269,0.44645,1184.195
270,0.448117,1182.184
271,0.449783,1182.184
272,0.4515,1180.097
273,0.453117,1180.545
274,0.4548,1180.843
275,0.45645,1180.843
276,0.458117,1179.725
277,0.459783,1182.78
278,0.46145,1182.78
279,0.463117,1182.035
280,0.464783,1180.023
281,0.46645,1181.96
282,0.4681,1181.96
283,0.469767,1181.811
284,0.471433,1183.003
285,0.473117,1184.195
286,0.474767,1184.195
287,0.476433,1184.344
288,0.4781,1183.897
289,0.479767,1183.376
290,0.481433,1183.376
291,0.4831,1179.874
292,0.484767,1178.533
293,0.486433,1178.98
294,0.4881,1178.98
295,0.489767,1181.886
296,0.491433,1182.854
297,0.4931,1182.854
298,0.494767,1183.823
299,0.496433,1184.121
300,0.4981,1179.799
301,0.499767,1179.799
302,0.501433,1183.45
303,0.5031,1184.866
304,0.504767,1186.058
305,0.506533,1186.058
306,0.5081,1186.132
307,0.509767,1186.43
308,0.511433,1185.909
309,0.5131,1185.909
310,0.514767,1187.846
311,0.516433,1189.634
312,0.5181,1189.634
313,0.519767,1186.505
314,0.521433,1187.548
315,0.5231,1183.152
316,0.524767,1183.152
317,0.526433,1183.227
318,0.528083,1184.344
319,0.529783,1181.066
320,0.531467,1181.066
321,0.533083,1185.015
322,0.5347499999999999,1184.568
323,0.536417,1186.058
324,0.538083,1186.058
325,0.53975,1186.132
326,0.541417,1185.983
327,0.543067,1185.983
328,0.544733,1188.219
329,0.5464,1186.877
330,0.548083,1189.262
331,0.549733,1189.262
332,0.5514,1185.611
333,0.553067,1182.184
334,0.554733,1179.65
335,0.5564,1179.65
336,0.558067,1176.968
337,0.559733,1177.266
338,0.5614,1175.925
339,0.563067,1175.925
340,0.564733,1178.309
341,0.5664,1179.874
342,0.568067,1184.419
343,0.569733,1184.419
344,0.5714,1186.207
345,0.573067,1184.866
346,0.574733,1184.866
347,0.5764,1183.823
348,0.578067,1181.141
349,0.5797330000000001,1188.144
350,0.5814,1188.144
351,0.583067,1190.975
352,0.5847329999999999,1192.838
353,0.5864,1196.34
354,0.58805,1196.34
355,0.589717,1189.932
356,0.59145,1192.763
357,0.593083,1191.869
358,0.5947170000000001,1191.869
359,0.596383,1187.324
360,0.59805,1188.293
361,0.5997169999999999,1188.293
362,0.601383,1184.121
363,0.60305,1186.803
364,0.6047169999999999,1187.026
365,0.606383,1187.026
366,0.60805,1189.411
367,0.609717,1190.752
368,0.611383,1189.113
369,0.61305,1189.113
370,0.614717,1188.591
371,0.616383,1189.709
372,0.61805,1191.571
373,0.619717,1191.571
374,0.621383,1192.912
375,0.62305,1196.265
376,0.624833,1195.669
377,0.626383,1195.669
378,0.62805,1195.371
379,0.629717,1194.403
380,0.631383,1194.403
381,0.63305,1194.477
382,0.634717,1194.552
383,0.636383,1191.571
384,0.638083,1191.571
385,0.639717,1190.975
386,0.641383,1190.454
387,0.64305,1189.858
388,0.644717,1189.858
389,0.646383,1192.316
390,0.64805,1195.073
391,0.6497000000000001,1194.924
392,0.651367,1194.924
393,0.653033,1193.509
394,0.6546999999999999,1194.254
395,0.656367,1194.254
396,0.658033,1190.826
397,0.6597,1191.72
398,0.661367,1193.434
399,0.663033,1193.434
400,0.6647,1194.626
401,0.6663829999999999,1197.83
402,0.668033,1199.916
403,0.6697,1199.916
404,0.671367,1198.798
405,0.673033,1197.83
406,0.6747,1196.116
407,0.6763670000000001,1196.116
408,0.678033,1193.136
409,0.6797,1194.552
410,0.6813669999999999,1193.285
411,0.683033,1193.285
412,0.6847,1193.881
413,0.6863669999999999,1193.434
414,0.688033,1193.434
415,0.6897,1191.72
416,0.691367,1192.54
417,0.693033,1195.744
418,0.6947,1195.744
419,0.696367,1196.489
420,0.698033,1197.532
421,0.6997,1197.457
422,0.701367,1197.457
423,0.703033,1192.838
424,0.7047,1189.336
425,0.706367,1187.921
426,0.708017,1187.921
427,0.709767,1186.952
428,0.71135,1189.56
429,0.713017,1189.56
430,0.714683,1192.614
431,0.71635,1193.583
432,0.718017,1191.422
433,0.719683,1191.422
434,0.72135,1188.815
435,0.723017,1189.932
436,0.7247169999999999,1186.803
437,0.7263500000000001,1186.803
438,0.728017,1188.07
439,0.729683,1189.187
440,0.7313499999999999,1188.144
441,0.733017,1188.144
442,0.734683,1191.124
443,0.7363499999999999,1192.54
444,0.738017,1190.305
445,0.739683,1190.305
446,0.74135,1186.579
447,0.743083,1185.089
448,0.7447,1185.089
449,0.74635,1188.368
450,0.748017,1188.517
451,0.749683,1191.795
452,0.75135,1191.795
453,0.753017,1192.242
454,0.754683,1186.207
455,0.75635,1186.579
456,0.7580170000000001,1186.579
457,0.759683,1185.76
458,0.76135,1186.43
459,0.7630169999999999,1189.038
460,0.764683,1189.038
461,0.766333,1191.273
462,0.7680169999999999,1190.23
463,0.769667,1190.23
464,0.771333,1190.23
465,0.773,1188.368
466,0.774667,1187.324
467,0.7763330000000001,1187.324
468,0.778,1188.144
469,0.779667,1187.474
470,0.7813330000000001,1189.709
471,0.783,1189.709
472,0.784667,1187.995
473,0.7863329999999999,1187.772
474,0.788,1187.548
475,0.789667,1187.548
476,0.791333,1185.76
477,0.793,1189.634
478,0.794667,1189.634
479,0.796333,1190.826
480,0.798,1194.03
481,0.799667,1193.509
482,0.801333,1193.509
483,0.803,1190.752
484,0.804667,1188.964
485,0.806333,1185.536
486,0.80805,1185.536
487,0.809667,1185.536
488,0.811333,1187.474
489,0.8129999999999999,1191.199
490,0.814667,1191.199
491,0.816367,1193.732
492,0.8179999999999999,1194.254
493,0.819667,1192.242
494,0.821333,1192.242
495,0.823,1190.752
496,0.824667,1190.454
497,0.826317,1190.454
498,0.828033,1192.614
499,0.82965,1192.689
500,0.831317,1191.124
501,0.832983,1191.124
502,0.834633,1190.454
503,0.8363,1191.422
504,0.837967,1191.72
505,0.839633,1191.72
506,0.8413,1191.348
507,0.842967,1190.603
508,0.844633,1187.25
509,0.8463000000000001,1187.25
510,0.847967,1186.803
511,0.849633,1185.834
512,0.8512999999999999,1185.834
513,0.852967,1185.089
514,0.854633,1185.983
515,0.8563,1185.313
516,0.857967,1185.313
517,0.859633,1187.697
518,0.8614000000000001,1188.219
519,0.862967,1187.548
520,0.864633,1187.548
521,0.8663,1187.25
522,0.867967,1186.505
523,0.869633,1190.677
524,0.8713,1190.677
525,0.872967,1191.199
526,0.874633,1194.85
527,0.8763,1193.136
528,0.8779670000000001,1193.136
529,0.879633,1188.144
530,0.8813,1186.207
531,0.8829669999999999,1186.207
532,0.884617,1183.674
533,0.8863,1183.525
534,0.88795,1186.803
535,0.889617,1186.803
536,0.891283,1190.305
537,0.892967,1189.634
538,0.894667,1189.187
539,0.896333,1189.187
540,0.89795,1185.313
541,0.899617,1181.29
542,0.9012829999999999,1183.078
543,0.90295,1183.078
544,0.904617,1183.972
545,0.9062829999999999,1186.43
546,0.90795,1186.43
547,0.909617,1188.815
548,0.911283,1187.101
549,0.91295,1186.952
550,0.914617,1186.952
551,0.916283,1183.376
552,0.91795,1184.568
553,0.919633,1186.579
554,0.921283,1186.579
555,0.92295,1186.729
556,0.924617,1187.176
557,0.926283,1184.717
558,0.9279500000000001,1184.717
559,0.929617,1179.129
560,0.931283,1180.246
561,0.9329499999999999,1180.396
562,0.934617,1180.396
563,0.936283,1179.054
564,0.93795,1181.737
565,0.939617,1181.737
566,0.941283,1179.352
567,0.94295,1179.725
568,0.944617,1182.929
569,0.94635,1182.929
570,0.94795,1182.854
571,0.9496,1183.748
572,0.951267,1185.313
573,0.952933,1185.313
574,0.9546,1184.195
575,0.956267,1182.333
576,0.957933,1183.227
577,0.9596,1183.227
578,0.961267,1183.525
579,0.963,1182.184
580,0.9646169999999999,1182.184
581,0.966283,1184.642
582,0.967933,1183.078
583,0.9696,1181.886
584,0.971267,1181.886
585,0.972933,1182.705
586,0.9746,1182.333
587,0.976267,1186.356
588,0.9779330000000001,1186.356
589,0.9797169999999999,1183.972
590,0.981267,1184.791
591,0.9829329999999999,1182.184
592,0.9846,1182.184
593,0.986267,1178.831
594,0.987933,1181.364
595,0.9896,1181.364
596,0.991267,1178.16
597,0.992933,1183.674
598,0.9946,1183.599
599,0.996367,1183.599
600,0.997933,1183.897
601,0.9996,1186.579
602,1.001267,1183.674
603,1.002933,1183.674
604,1.0046,1182.631
605,1.006267,1179.501
606,1.007917,1176
607,1.009583,1176
608,1.01125,1175.404
609,1.012917,1174.51
610,1.014583,1175.925
611,1.01625,1175.925
612,1.017917,1179.427
613,1.019583,1177.713
614,1.02125,1177.713
615,1.022917,1177.862
616,1.024583,1174.063
617,1.02625,1174.659
618,1.027917,1174.659
619,1.029583,1177.862
620,1.03125,1179.501
621,1.032917,1183.376
622,1.034583,1183.376
623,1.036267,1180.023
624,1.037917,1178.235
625,1.039617,1178.831
626,1.04125,1178.831
627,1.042917,1177.639
628,1.044583,1178.756
629,1.04625,1178.756
630,1.047917,1178.16
631,1.049583,1178.533
632,1.05125,1178.235
633,1.052917,1178.235
634,1.054583,1177.937
635,1.05625,1176.894
636,1.057917,1175.478
637,1.059583,1175.478
638,1.06125,1175.553
639,1.062917,1177.49
640,1.064567,1178.458
641,1.06625,1178.458
642,1.0679,1177.713
643,1.069567,1180.396
644,1.071233,1179.352
645,1.0729,1179.352
646,1.074567,1181.886
647,1.076233,1181.886
648,1.0779,1181.886
649,1.079567,1179.129
650,1.081317,1180.843
651,1.0829,1180.545
652,1.084567,1180.545
653,1.086233,1179.278
654,1.0879,1180.619
655,1.089567,1178.756
656,1.091233,1178.756
657,1.0929,1178.384
658,1.094567,1181.439
659,1.096233,1184.121
660,1.097967,1184.121
661,1.099567,1184.717
662,1.101233,1184.344
663,1.1029,1184.344
664,1.104567,1186.281
665,1.106233,1183.599
666,1.1079,1183.525
667,1.109567,1183.525
668,1.111233,1183.078
669,1.1129,1181.513
670,1.114683,1179.501
671,1.116233,1179.501
672,1.117933,1179.874
673,1.119633,1180.246
674,1.121233,1177.117
675,1.1229,1177.117
676,1.124567,1176.298
677,1.126217,1176.149
678,1.127883,1176.149
679,1.129533,1174.957
680,1.1312,1179.576
681,1.132867,1185.313
682,1.134533,1185.313
683,1.1362,1183.972
684,1.137867,1184.717
685,1.139533,1181.364
686,1.1412,1181.364
687,1.142867,1178.458
688,1.144533,1175.627
689,1.1462,1178.607
690,1.147867,1178.607
691,1.149533,1178.533
692,1.1512,1178.682
693,1.152867,1182.705
694,1.154533,1182.705
695,1.1562,1177.788
696,1.157867,1177.937
697,1.159533,1177.937
698,1.1612,1175.925
699,1.162867,1174.807
700,1.164533,1179.576
701,1.1662,1179.576
702,1.167867,1180.47
703,1.169533,1182.482
704,1.1712,1183.078
705,1.172867,1183.078
706,1.174533,1179.725
707,1.1762,1179.948
708,1.177867,1177.862
709,1.179533,1177.862
710,1.1812,1176.447
711,1.182917,1177.639
712,1.184533,1177.639
713,1.1862,1174.584
714,1.18785,1174.36
715,1.189517,1175.776
716,1.191183,1175.776
717,1.19285,1174.137
718,1.194517,1175.776
719,1.196183,1178.607
720,1.19785,1178.607
721,1.199583,1178.682
722,1.201183,1176.745
723,1.20285,1175.776
724,1.204517,1175.776
725,1.206183,1171.902
726,1.20785,1171.082
727,1.209517,1173.466
728,1.211183,1173.466
729,1.21285,1173.243
730,1.214517,1175.478
731,1.216233,1175.478
732,1.21785,1172.87
733,1.219517,1175.106
734,1.221183,1179.799
735,1.22285,1179.799
736,1.224517,1180.097
737,1.226183,1183.748
738,1.22785,1178.384
739,1.229517,1178.384
740,1.231183,1172.125
741,1.232967,1171.008
742,1.234517,1168.996
743,1.236183,1168.996
744,1.23785,1171.976
745,1.239517,1173.615
746,1.241183,1173.615
747,1.24285,1173.243
748,1.244517,1173.765
749,1.246167,1174.957
750,1.247833,1174.957
751,1.2495,1175.851
752,1.251167,1177.564
753,1.252833,1182.854
754,1.2545,1182.854
755,1.256167,1186.654
756,1.257833,1187.772
757,1.2595,1188.591
758,1.261233,1188.591
759,1.262833,1182.556
760,1.2645,1177.49
761,1.266167,1176.894
762,1.267833,1176.894
763,1.2695,1176.819
764,1.271167,1179.501
765,1.272833,1179.501
766,1.2745,1180.172
767,1.276167,1177.117
768,1.277833,1174.584
769,1.2795,1174.584
770,1.281167,1172.721
771,1.282833,1173.019
772,1.2845,1174.957
773,1.286167,1174.957
774,1.287833,1173.317
775,1.2895,1172.349
776,1.291167,1171.231
777,1.292833,1171.231
778,1.2945,1172.051
779,1.296167,1174.212
780,1.297833,1174.212
781,1.2995,1175.478
782,1.301167,1180.246
783,1.302833,1182.556
784,1.3045,1182.556
785,1.306167,1182.631
786,1.307817,1180.917
787,1.309483,1173.988
788,1.31115,1173.988
789,1.312817,1168.773
790,1.314483,1168.177
791,1.31615,1168.773
792,1.31785,1168.773
793,1.319483,1171.455
794,1.32115,1174.882
795,1.322833,1176.894
796,1.324483,1176.894
797,1.32615,1176.819
798,1.327817,1179.65
799,1.329483,1179.65
800,1.33115,1179.874
801,1.332817,1180.097
802,1.334567,1181.215
803,1.33615,1181.215
804,1.337817,1181.737
805,1.339483,1181.737
806,1.34115,1180.172
807,1.342817,1180.172
808,1.344483,1180.917
809,1.34615,1176.894
810,1.347817,1175.627
811,1.349483,1175.627
812,1.35125,1175.478
813,1.352817,1175.404
814,1.354483,1175.404
815,1.35615,1175.329
816,1.357817,1175.18
817,1.359483,1177.266
818,1.36115,1177.266
819,1.362817,1174.882
820,1.364483,1177.043
821,1.36615,1178.384
822,1.367817,1178.384
823,1.369467,1180.023
824,1.371133,1183.301
825,1.3728,1183.301
826,1.374467,1183.301
827,1.376133,1183.227
828,1.3778,1180.097
829,1.379467,1180.097
830,1.381133,1175.776
831,1.3828,1174.137
832,1.384467,1172.423
833,1.386133,1172.423
834,1.3878,1173.765
835,1.389467,1176.968
836,1.391133,1177.788
837,1.3928,1177.788
838,1.394467,1180.619
839,1.396133,1178.309
840,1.3978,1175.404
841,1.399467,1175.404
842,1.401133,1175.627
843,1.402817,1172.2
844,1.404467,1172.423
845,1.406183,1172.423
846,1.4078,1175.702
847,1.409467,1173.765
848,1.411133,1173.765
849,1.4128,1174.063
850,1.414467,1174.957
851,1.416133,1174.957
852,1.417783,1174.957
853,1.41945,1173.839
854,1.421117,1172.87
855,1.422783,1173.392
856,1.42445,1173.392
857,1.426117,1173.69
858,1.427783,1176.67
859,1.429433,1180.321
860,1.4311,1180.321
861,1.432767,1179.948
862,1.434433,1178.458
863,1.436167,1178.98
864,1.437767,1178.98
865,1.439433,1178.309
866,1.4411,1179.278
867,1.442767,1179.278
868,1.444433,1180.992
869,1.4461,1179.65
870,1.447767,1178.458
871,1.449433,1178.458
872,1.4511,1177.937
873,1.452767,1176.67
874,1.454433,1175.776
875,1.4561,1175.776
876,1.457767,1176.223
877,1.459433,1174.435
878,1.4611,1172.87
879,1.462767,1172.87
880,1.464433,1174.584
881,1.4661,1176.894
882,1.467767,1176.894
883,1.46955,1178.756
884,1.4711,1178.384
885,1.472767,1175.031
886,1.474433,1175.031
887,1.4761,1178.16
888,1.477767,1176.596
889,1.479433,1180.843
890,1.481133,1180.843
891,1.482833,1184.344
892,1.484433,1180.545
893,1.4861,1180.693
894,1.48775,1180.693
895,1.489417,1176.298
896,1.491083,1174.286
897,1.49275,1174.286
898,1.494417,1174.063
899,1.496083,1172.945
900,1.497767,1175.478
901,1.499417,1175.478
902,1.501083,1176.745
903,1.50275,1176.223
904,1.504417,1177.788
905,1.506083,1177.788
906,1.50775,1177.043
907,1.509417,1175.851
908,1.511083,1177.043
909,1.51275,1177.043
910,1.514417,1179.352
911,1.516083,1178.16
912,1.51775,1178.607
913,1.519417,1178.607
914,1.521083,1177.937
915,1.52275,1180.246
916,1.524417,1180.246
917,1.526083,1185.313
918,1.52775,1188.07
