"ID","sea_time","fid_signal"
1,0,1169.443
2,0.001683,1169.965
3,0.003367,1166.984
4,0.004983,1164.6
5,0.00665,1164.6
6,0.008317,1163.855
7,0.009983000000000001,1164.675
8,0.01165,1164.675
9,0.013317,1162.663
10,0.014983,1165.569
11,0.01665,1165.494
12,0.018317,1165.494
13,0.020083,1168.624
14,0.02165,1169.965
15,0.023317,1167.357
16,0.024983,1167.357
17,0.02665,1164.824
18,0.028317,1160.204
19,0.029983,1161.247
20,0.03165,1161.247
21,0.033317,1162.067
22,0.034983,1164.004
23,0.036767,1165.494
24,0.038317,1165.494
25,0.039983,1164.973
26,0.04165,1167.506
27,0.043317,1167.506
28,0.044983,1169.518
29,0.04665,1172.125
30,0.0483,1173.839
31,0.049967,1173.839
32,0.051633,1170.039
33,0.0533,1168.4
34,0.054967,1164.6
35,0.056633,1164.6
36,0.058317,1164.079
37,0.059967,1165.867
38,0.061633,1166.165
39,0.0633,1166.165
40,0.064967,1168.475
41,0.066633,1168.549
42,0.0683,1168.549
43,0.069967,1169.145
44,0.071633,1168.102
45,0.0733,1165.941
46,0.07498299999999999,1165.941
47,0.07663300000000001,1166.165
48,0.07829999999999999,1166.612
49,0.079967,1168.996
50,0.081633,1168.996
51,0.0833,1170.784
52,0.084967,1170.188
53,0.086633,1169.592
54,0.0883,1169.592
55,0.08996700000000001,1168.475
56,0.09163300000000001,1166.165
57,0.09329999999999999,1166.165
58,0.094967,1165.345
59,0.09665,1164.153
60,0.0983,1164.6
61,0.099967,1164.6
62,0.101633,1165.122
63,0.1033,1164.675
64,0.10495,1167.879
65,0.106633,1167.879
66,0.108283,1166.91
67,0.10995,1167.953
68,0.111617,1169.816
69,0.113283,1169.816
70,0.11495,1166.835
71,0.116617,1165.42
72,0.118283,1165.42
73,0.11995,1166.388
74,0.121683,1168.475
75,0.123283,1170.039
76,0.12495,1170.039
77,0.126617,1174.137
78,0.128283,1173.69
79,0.12995,1169.294
80,0.131617,1169.294
81,0.133283,1169.667
82,0.13495,1166.612
83,0.136617,1166.686
84,0.13835,1166.686
85,0.13995,1169.369
86,0.141617,1166.91
87,0.143283,1167.133
88,0.14495,1167.133
89,0.146617,1164.824
90,0.148283,1163.855
91,0.14995,1163.855
92,0.151617,1164.302
93,0.153317,1164.526
94,0.155067,1166.09
95,0.156617,1166.09
96,0.158283,1168.027
97,0.15995,1168.698
98,0.161617,1170.561
99,0.163283,1170.561
100,0.16495,1170.859
101,0.166617,1171.157
102,0.168267,1171.678
103,0.169933,1171.678
104,0.1716,1171.976
105,0.173267,1170.784
106,0.174933,1170.784
107,0.1766,1168.698
108,0.178267,1166.91
109,0.179933,1163.11
110,0.1816,1163.11
111,0.183267,1165.42
112,0.184933,1166.761
113,0.1866,1170.933
114,0.188283,1170.933
115,0.189933,1171.902
116,0.1916,1172.274
117,0.193267,1172.87
118,0.194933,1172.87
119,0.1966,1167.208
120,0.198267,1167.58
121,0.199933,1163.781
122,0.2016,1163.781
123,0.203267,1162.589
124,0.204933,1167.208
125,0.2066,1167.208
126,0.208267,1167.655
127,0.209933,1168.773
128,0.2116,1166.984
129,0.213267,1166.984
130,0.214933,1163.11
131,0.2166,1163.11
132,0.218267,1162.216
133,0.219933,1162.216
134,0.221617,1164.675
135,0.223267,1167.879
136,0.224933,1166.835
137,0.2266,1166.835
138,0.22825,1169.816
139,0.229917,1171.455
140,0.231583,1171.455
141,0.23325,1171.529
142,0.234917,1173.317
143,0.236583,1171.38
144,0.23825,1171.38
145,0.239967,1167.953
146,0.241583,1166.761
147,0.24325,1166.835
148,0.244917,1166.835
149,0.246583,1166.09
150,0.24825,1167.059
151,0.249917,1167.282
152,0.251583,1167.282
153,0.25325,1164.824
154,0.254917,1169.741
155,0.256583,1168.475
156,0.25825,1168.475
157,0.259917,1168.027
158,0.261583,1170.859
159,0.26325,1170.859
160,0.264917,1165.122
161,0.266583,1165.867
162,0.26825,1165.122
163,0.269917,1165.122
164,0.271583,1164.451
165,0.27325,1166.463
166,0.27495,1166.388
167,0.276583,1166.388
168,0.27825,1166.165
169,0.279917,1165.569
170,0.281583,1168.4
171,0.28325,1168.4
172,0.284917,1168.773
173,0.286583,1169.816
174,0.288233,1169.816
175,0.2899,1168.847
176,0.291567,1167.729
177,0.293233,1166.835
178,0.2949,1166.835
179,0.29655,1164.898
180,0.298217,1163.781
181,0.299917,1161.769
182,0.30155,1161.769
183,0.303217,1161.844
184,0.304883,1163.557
185,0.30655,1166.686
186,0.308217,1166.686
187,0.309883,1166.314
188,0.31155,1167.804
189,0.313217,1167.804
190,0.314883,1166.388
191,0.31655,1164.377
192,0.318217,1165.271
193,0.319883,1165.271
194,0.32155,1164.004
195,0.323217,1166.09
196,0.324883,1168.698
197,0.32655,1168.698
198,0.328217,1170.412
199,0.329883,1170.188
200,0.33155,1169.592
201,0.333217,1169.592
202,0.334883,1168.475
203,0.33655,1167.953
204,0.338217,1169.741
205,0.339883,1169.741
206,0.34155,1169.369
207,0.343217,1170.486
208,0.344883,1170.486
209,0.346533,1170.635
210,0.3482,1172.572
211,0.349917,1176.521
212,0.351533,1176.521
213,0.3532,1177.341
214,0.354867,1178.98
215,0.356533,1178.16
216,0.358283,1178.16
217,0.359867,1174.957
218,0.361533,1173.69
219,0.3632,1174.807
220,0.364867,1174.807
221,0.366533,1175.329
222,0.368233,1177.415
223,0.369867,1177.415
224,0.371533,1178.309
225,0.3732,1179.501
226,0.374867,1176.521
227,0.376533,1176.521
228,0.3782,1176.596
229,0.379867,1176.223
230,0.381533,1175.478
231,0.3832,1175.478
232,0.384867,1177.564
233,0.386533,1177.937
234,0.3882,1179.65
235,0.389867,1179.65
236,0.39165,1175.329
237,0.3932,1174.733
238,0.394867,1171.753
239,0.396533,1171.753
240,0.3982,1171.827
241,0.399867,1174.733
242,0.401533,1174.733
243,0.4032,1177.192
244,0.404867,1177.564
245,0.406517,1175.702
246,0.408183,1175.702
247,0.40985,1175.702
248,0.411517,1176.074
249,0.413183,1177.788
250,0.41485,1177.788
251,0.416517,1181.141
252,0.418183,1179.576
253,0.41985,1178.309
254,0.421517,1178.309
255,0.423183,1176.968
256,0.42485,1172.2
257,0.426517,1172.2
258,0.428183,1169.965
259,0.42985,1169.741
260,0.431517,1170.933
261,0.433183,1170.933
262,0.43485,1174.807
263,0.436517,1180.843
264,0.438183,1178.905
265,0.43985,1178.905
266,0.44155,1177.49
267,0.443183,1175.404
268,0.444883,1170.114
269,0.446517,1170.114
270,0.448183,1169.518
271,0.44985,1169.22
272,0.451517,1168.624
273,0.453183,1168.624
274,0.45485,1172.721
275,0.456517,1172.945
276,0.458183,1172.945
277,0.45985,1174.286
278,0.461517,1174.882
279,0.463183,1174.36
280,0.46485,1174.36
281,0.466517,1174.36
282,0.468167,1175.404
283,0.469833,1174.882
284,0.4715,1174.882
285,0.473167,1173.019
286,0.474833,1175.553
287,0.476583,1175.031
288,0.478167,1175.031
289,0.479833,1175.329
290,0.4815,1176.521
291,0.483167,1176.521
292,0.484833,1173.019
293,0.4865,1174.36
294,0.488167,1170.933
295,0.489833,1170.933
296,0.4915,1171.082
297,0.493233,1174.137
298,0.494833,1172.423
299,0.4965,1172.423
300,0.498167,1173.913
301,0.499833,1170.859
302,0.5014999999999999,1171.753
303,0.503167,1171.753
304,0.504833,1172.349
305,0.5065,1172.796
306,0.508167,1171.753
307,0.509933,1171.753
308,0.5115,1169.741
309,0.513167,1169.592
310,0.51485,1169.592
311,0.5165,1169.071
312,0.518167,1173.019
313,0.519833,1174.882
314,0.5215,1174.882
315,0.523167,1174.51
316,0.52485,1176.298
317,0.5265,1175.627
318,0.52815,1175.627
319,0.529817,1171.678
320,0.531483,1173.913
321,0.53315,1174.51
322,0.534817,1174.51
323,0.536483,1175.478
324,0.53815,1180.172
325,0.539817,1180.172
326,0.541483,1176.447
327,0.54315,1175.851
328,0.544817,1176.074
329,0.5464830000000001,1176.074
330,0.54815,1176
331,0.549817,1178.756
332,0.5514829999999999,1180.47
333,0.55315,1180.47
334,0.554817,1178.756
335,0.5564829999999999,1180.023
336,0.55815,1185.536
337,0.559817,1185.536
338,0.561483,1188.144
339,0.56315,1193.807
340,0.564817,1193.807
341,0.566483,1197.308
342,0.56815,1198.277
343,0.569817,1201.481
344,0.571483,1201.481
345,0.57315,1205.131
346,0.574817,1207.963
347,0.576483,1214.296
348,0.5781500000000001,1214.296
349,0.579817,1222.789
350,0.581483,1230.389
351,0.5831499999999999,1242.235
352,0.584817,1242.235
353,0.586483,1253.337
354,0.588117,1269.579
355,0.5897829999999999,1288.056
356,0.591467,1288.056
357,0.593183,1306.608
358,0.594867,1325.458
359,0.59645,1325.458
360,0.598117,1343.265
361,0.599783,1364.127
362,0.60145,1388.043
363,0.603117,1388.043
364,0.604783,1414.269
365,0.60645,1443.475
366,0.608117,1475.96
367,0.609783,1475.96
368,0.611567,1511.127
369,0.613117,1551.956
370,0.614783,1598.448
371,0.6164500000000001,1598.448
372,0.618117,1637.563
373,0.619783,1678.914
374,0.6214499999999999,1678.914
375,0.623117,1723.021
376,0.624783,1763.254
377,0.62645,1815.185
378,0.628217,1815.185
379,0.629783,1868.755
380,0.63145,1918.375
381,0.633117,1974.627
382,0.634783,1974.627
383,0.63645,2031.326
384,0.638117,2088.919
385,0.639783,2152.696
386,0.64145,2152.696
387,0.643117,2213.418
388,0.644783,2280.548
389,0.646433,2344.251
390,0.6481,2344.251
391,0.649767,2402.738
392,0.651433,2464.28
393,0.6531,2464.28
394,0.654767,2523.959
395,0.656433,2592.579
396,0.6581,2663.955
397,0.659767,2663.955
398,0.661433,2733.171
399,0.6631,2802.014
400,0.664767,2864.823
401,0.66645,2864.823
402,0.668117,2932.176
403,0.6698,2999.678
404,0.6714329999999999,3064.498
405,0.6731,3064.498
406,0.674767,3132.299
407,0.676433,3197.342
408,0.6781,3197.342
409,0.679767,3258.884
410,0.681433,3321.543
411,0.6831,3377.274
412,0.684767,3377.274
413,0.686433,3434.42
414,0.6881,3492.385
415,0.689783,3547.147
416,0.691433,3547.147
417,0.6931,3603.92
418,0.694767,3657.564
419,0.696433,3710.464
420,0.6981000000000001,3710.464
421,0.699767,3757.477
422,0.701433,3806.651
423,0.7030999999999999,3806.651
424,0.704767,3851.429
425,0.706417,3891.215
426,0.708083,3930.405
427,0.70975,3930.405
428,0.711417,3966.838
429,0.713083,3996.044
430,0.71475,4031.062
431,0.716417,4031.062
432,0.718083,4063.398
433,0.71975,4092.38
434,0.721417,4123.077
435,0.723083,4123.077
436,0.72475,4147.142
437,0.726417,4173.219
438,0.728083,4193.038
439,0.72975,4193.038
440,0.731417,4208.088
441,0.733083,4220.307
442,0.73475,4220.307
443,0.736417,4234.09
444,0.738083,4244.745
445,0.739767,4254.803
446,0.741417,4254.803
447,0.743117,4265.085
448,0.74475,4265.83
449,0.7465000000000001,4268.438
450,0.7480830000000001,4268.438
451,0.74975,4269.853
452,0.751417,4267.395
453,0.7530829999999999,4265.904
454,0.75475,4265.904
455,0.756417,4262.477
456,0.758083,4257.038
457,0.75975,4257.038
458,0.761417,4251.45
459,0.7632,4243.255
460,0.76475,4232.079
461,0.7664,4232.079
462,0.7680670000000001,4223.063
463,0.769733,4210.546
464,0.7714,4197.881
465,0.7730669999999999,4197.881
466,0.774733,4183.352
467,0.7764,4165.322
468,0.778067,4150.42
469,0.779733,4150.42
470,0.7814,4132.464
471,0.783067,4113.913
472,0.784733,4097.298
473,0.7864,4097.298
474,0.788067,4078.969
475,0.789733,4061.312
476,0.7914,4061.312
477,0.793067,4044.324
478,0.794733,4024.357
479,0.7964,4001.93
480,0.798067,4001.93
481,0.799733,3981.888
482,0.8014,3962.591
483,0.803067,3947.541
484,0.804733,3947.541
485,0.8064,3926.679
486,0.808067,3905.967
487,0.809733,3884.211
488,0.8114170000000001,3884.211
489,0.813067,3856.719
490,0.814733,3834.665
491,0.8164169999999999,3834.665
492,0.818067,3809.556
493,0.819733,3787.801
494,0.8214,3765.449
495,0.823067,3765.449
496,0.824733,3742.799
497,0.8264,3723.8
498,0.82805,3700.256
499,0.829717,3700.256
500,0.831383,3679.097
501,0.83305,3658.757
502,0.834717,3638.64
503,0.836383,3638.64
504,0.83805,3621.206
505,0.839717,3604.367
506,0.841383,3585.294
507,0.84305,3585.294
508,0.8447170000000001,3562.942
509,0.846383,3538.504
510,0.848083,3538.504
511,0.8497169999999999,3513.992
512,0.851383,3494.397
513,0.85305,3476.441
514,0.8547169999999999,3476.441
515,0.856383,3461.391
516,0.85805,3443.882
517,0.859717,3427.64
518,0.861383,3427.64
519,0.86305,3408.194
520,0.864767,3388.077
521,0.866383,3371.388
522,0.86805,3371.388
523,0.869717,3352.389
524,0.871383,3337.488
525,0.87305,3337.488
526,0.874717,3321.469
527,0.876383,3303.438
528,0.878033,3287.047
529,0.8797,3287.047
530,0.881483,3268.346
531,0.883033,3250.39
532,0.8847,3236.458
533,0.886367,3236.458
534,0.8880169999999999,3217.459
535,0.889683,3199.95
536,0.891383,3183.41
537,0.8930169999999999,3183.41
538,0.894683,3167.689
539,0.89635,3153.533
540,0.898017,3153.533
541,0.899683,3139.079
542,0.90135,3121.57
543,0.903017,3100.187
544,0.904683,3100.187
545,0.90635,3085.36
546,0.908033,3070.384
547,0.909683,3056.303
548,0.91135,3056.303
549,0.913017,3042.668
550,0.914683,3024.638
551,0.91635,3006.905
552,0.918017,3006.905
553,0.919683,2993.122
554,0.92135,2978.295
555,0.923017,2963.766
556,0.924683,2963.766
557,0.92635,2951.548
558,0.928017,2936.199
559,0.929683,2936.199
560,0.93135,2927.408
561,0.933017,2918.169
562,0.934683,2905.503
563,0.93635,2905.503
564,0.938017,2893.805
565,0.939683,2881.065
566,0.94135,2866.909
567,0.943017,2866.909
568,0.9446830000000001,2851.412
569,0.946333,2839.193
570,0.948,2823.621
571,0.949667,2823.621
572,0.951333,2809.688
573,0.953,2800.822
574,0.954667,2800.822
575,0.956333,2789.87
576,0.958017,2778.47
577,0.959667,2764.091
578,0.961333,2764.091
579,0.963,2748.743
580,0.9646670000000001,2733.99
581,0.96635,2722.219
582,0.968,2722.219
583,0.9696669999999999,2712.607
584,0.971333,2700.687
585,0.973,2688.393
586,0.974667,2688.393
587,0.976333,2675.28
588,0.978,2664.03
589,0.979667,2655.387
590,0.981333,2655.387
591,0.983067,2645.403
592,0.984667,2634.6
593,0.986333,2634.6
594,0.988,2622.53
595,0.989667,2613.291
596,0.991333,2601.296
597,0.9930330000000001,2601.296
598,0.994667,2593.026
599,0.996333,2584.606
600,0.998,2574.027
601,0.999783,2574.027
602,1.001333,2569.482
603,1.003,2558.902
604,1.004667,2551.451
605,1.006333,2551.451
606,1.007983,2539.232
607,1.00965,2527.609
608,1.011317,2527.609
609,1.012983,2516.285
610,1.01465,2506.748
611,1.016317,2499.223
612,1.017983,2499.223
613,1.01965,2490.282
614,1.021317,2483.204
615,1.022983,2472.177
616,1.02465,2472.177
617,1.026317,2462.64
618,1.027983,2451.539
619,1.02965,2440.587
620,1.031317,2440.587
621,1.033,2431.646
622,1.034683,2423.301
623,1.036317,2414.212
624,1.037983,2414.212
625,1.03965,2406.761
626,1.041317,2397.299
627,1.042983,2397.299
628,1.04465,2388.582
629,1.046317,2382.77
630,1.047983,2371.743
631,1.04965,2371.743
632,1.051317,2363.995
633,1.052983,2356.768
634,1.05465,2346.411
635,1.056317,2346.411
636,1.057983,2340.674
637,1.05965,2331.808
638,1.061317,2321.526
639,1.062983,2321.526
640,1.06465,2315.268
641,1.066317,2312.288
642,1.067983,2312.288
643,1.069633,2307.892
644,1.0713,2305.508
645,1.072967,2299.324
646,1.074633,2299.324
647,1.0763,2288.744
648,1.077967,2279.803
649,1.079633,2268.702
650,1.081333,2268.702
651,1.082967,2261.028
652,1.084667,2254.62
653,1.0863,2248.064
654,1.087967,2248.064
655,1.089633,2240.911
656,1.0913,2231.002
657,1.092983,2222.806
658,1.094633,2222.806
659,1.0963,2215.505
660,1.097967,2207.607
661,1.099633,2207.607
662,1.101333,2201.87
663,1.102967,2195.239
664,1.104633,2191.216
665,1.10635,2191.216
666,1.107967,2186.522
667,1.109633,2180.189
668,1.1113,2178.252
669,1.112967,2178.252
670,1.114633,2171.025
671,1.1163,2165.586
672,1.117983,2164.692
673,1.119633,2164.692
674,1.1213,2157.763
675,1.122967,2149.567
676,1.124633,2149.567
677,1.1263,2143.458
678,1.12795,2134.964
679,1.129617,2126.396
680,1.131283,2126.396
681,1.13295,2123.639
682,1.134617,2120.733
683,1.136283,2113.506
684,1.13795,2113.506
685,1.139617,2107.844
686,1.141283,2101.66
687,1.14295,2092.198
688,1.144617,2092.198
689,1.146283,2086.535
690,1.14795,2081.841
691,1.149617,2081.841
692,1.151283,2077.967
693,1.15295,2075.434
694,1.154617,2072.006
695,1.156283,2072.006
696,1.15795,2065.375
697,1.159617,2056.137
698,1.161283,2047.792
699,1.16295,2047.792
700,1.164617,2040.342
701,1.166333,2035.722
702,1.16795,2032.071
703,1.1696,2032.071
704,1.171267,2031.997
705,1.172933,2027.526
706,1.1746,2021.492
707,1.176267,2021.492
708,1.177933,2016.947
709,1.179617,2011.582
710,1.181267,2011.582
711,1.182933,2008.677
712,1.1846,2005.92
713,1.18625,2001.896
714,1.187917,2001.896
715,1.189583,1995.563
716,1.19125,1990.348
717,1.192917,1985.356
718,1.194583,1985.356
719,1.19625,1982.376
720,1.197917,1976.266
721,1.199583,1972.541
722,1.20125,1972.541
723,1.202967,1971.573
724,1.204583,1965.91
725,1.20625,1965.91
726,1.207917,1962.408
727,1.209583,1955.554
728,1.21125,1947.284
729,1.212917,1947.284
730,1.214583,1941.249
731,1.21625,1937.151
732,1.217917,1935.363
733,1.219583,1935.363
734,1.22125,1934.618
735,1.222917,1932.308
736,1.224583,1928.359
737,1.22625,1928.359
738,1.227917,1927.242
739,1.229583,1923.144
740,1.23125,1918.599
741,1.232917,1918.599
742,1.234583,1915.917
743,1.236367,1911.819
744,1.237917,1911.819
745,1.239583,1907.349
746,1.24125,1905.635
747,1.242917,1900.047
748,1.244583,1900.047
749,1.24625,1892.075
750,1.2479,1886.264
751,1.249567,1881.197
752,1.251233,1881.197
753,1.2529,1877.472
754,1.254567,1875.907
755,1.256267,1876.801
756,1.2579,1876.801
757,1.2596,1872.107
758,1.261233,1869.053
759,1.2629,1869.053
760,1.264567,1867.115
761,1.266233,1861.677
762,1.267917,1858.696
763,1.269567,1858.696
764,1.271233,1855.046
765,1.2729,1849.83
766,1.274567,1844.168
767,1.276233,1844.168
768,1.2779,1842.156
769,1.279567,1841.932
770,1.281233,1841.337
771,1.2829,1841.337
772,1.284567,1839.921
773,1.286233,1838.505
774,1.2879,1834.035
775,1.289567,1834.035
776,1.291233,1826.659
777,1.2929,1822.188
778,1.294567,1822.188
779,1.296233,1818.091
780,1.2979,1813.471
781,1.299567,1811.087
782,1.301233,1811.087
783,1.3029,1810.119
784,1.304567,1807.511
785,1.306233,1805.35
786,1.307883,1805.35
787,1.30955,1801.923
788,1.311217,1797.974
789,1.312883,1791.939
790,1.31455,1791.939
791,1.316217,1790.002
792,1.317883,1787.543
793,1.31955,1787.543
794,1.321283,1783.892
795,1.322917,1784.191
796,1.32455,1781.508
797,1.326217,1781.508
798,1.327883,1779.273
799,1.32955,1776.367
800,1.331217,1772.791
801,1.332883,1772.791
802,1.334567,1770.481
803,1.33625,1771.823
804,1.337883,1769.96
805,1.33955,1769.96
806,1.341217,1764.372
807,1.342883,1757.741
808,1.34455,1757.741
809,1.346217,1748.875
810,1.347883,1747.906
811,1.34955,1745.15
812,1.351217,1745.15
813,1.352883,1746.193
814,1.354667,1745.075
815,1.356217,1739.711
816,1.357883,1739.711
817,1.35955,1741.424
818,1.361217,1740.456
819,1.362883,1738.742
820,1.36455,1738.742
821,1.366217,1739.934
822,1.367867,1735.762
823,1.369533,1731.142
824,1.3712,1731.142
825,1.372867,1729.801
826,1.374533,1726.3
827,1.3762,1726.3
828,1.377867,1725.033
829,1.379533,1723.766
830,1.3812,1719.743
831,1.382867,1719.743
832,1.384533,1716.316
833,1.3862,1714.081
834,1.387867,1709.014
835,1.389533,1709.014
836,1.3912,1706.63
837,1.392867,1703.128
838,1.394533,1700.073
839,1.3962,1700.073
840,1.397867,1699.552
841,1.399567,1699.254
842,1.4012,1699.254
843,1.402867,1697.093
844,1.404533,1693.144
845,1.4062,1690.611
846,1.407867,1690.611
847,1.409533,1690.015
848,1.4112,1690.76
849,1.412867,1691.58
850,1.414533,1691.58
851,1.416233,1691.878
852,1.417867,1688.451
853,1.419533,1685.321
854,1.4212,1685.321
855,1.422867,1682.714
856,1.424533,1678.094
857,1.426183,1676.604
858,1.42785,1676.604
859,1.429517,1671.165
860,1.431183,1665.801
861,1.43285,1665.801
862,1.434517,1662.672
863,1.436183,1655.519
864,1.43785,1654.401
865,1.43955,1654.401
866,1.441183,1652.911
867,1.44285,1650.155
868,1.444517,1651.794
869,1.446183,1651.794
870,1.44785,1652.166
871,1.449517,1652.39
872,1.451183,1653.507
873,1.45285,1653.507
874,1.454517,1650.9
875,1.456183,1646.504
876,1.45785,1646.504
877,1.459517,1642.406
878,1.461167,1639.649
879,1.462833,1640.32
880,1.4645,1640.32
881,1.466167,1641.735
882,1.467833,1638.979
883,1.4695,1635.626
884,1.471167,1635.626
885,1.4729,1632.72
886,1.4745,1630.411
887,1.476167,1632.273
888,1.477833,1632.273
889,1.4795,1630.634
890,1.481167,1627.803
891,1.482833,1627.803
892,1.4845,1624.152
893,1.48615,1623.63
894,1.487817,1623.258
895,1.489483,1623.258
896,1.49115,1622.215
897,1.492817,1621.321
898,1.494483,1617.223
899,1.49615,1617.223
900,1.497817,1617.521
901,1.499483,1616.478
902,1.50115,1615.062
903,1.502817,1615.062
904,1.504483,1616.18
905,1.506167,1611.486
906,1.507817,1608.133
907,1.509483,1608.133
908,1.51115,1605.973
909,1.512817,1602.918
910,1.514483,1602.918
911,1.51615,1604.706
912,1.517817,1604.855
913,1.519483,1606.271
914,1.52115,1606.271
915,1.522817,1601.651
916,1.524483,1595.169
917,1.52615,1592.636
918,1.527817,1592.636
919,1.529483,1589.432
920,1.53115,1591.22
921,1.532817,1592.338
