"ID","sea_time","fid_signal"
1,0,1164.526
2,0.001667,1165.122
3,0.003333,1166.09
4,0.004983,1167.655
5,0.00665,1167.655
6,0.008317,1165.345
7,0.009983000000000001,1164.824
8,0.01165,1166.016
9,0.013317,1166.016
10,0.014983,1168.4
11,0.016667,1171.753
12,0.018383,1173.913
13,0.019983,1173.913
14,0.02165,1175.851
15,0.023317,1173.019
16,0.024983,1173.019
17,0.02665,1169.667
18,0.028317,1167.357
19,0.029983,1165.122
20,0.03165,1165.122
21,0.033317,1165.047
22,0.034983,1164.302
23,0.03665,1164.749
24,0.038317,1164.749
25,0.039983,1163.483
26,0.04165,1166.91
27,0.043317,1168.549
28,0.044983,1168.549
29,0.04665,1168.326
30,0.048317,1170.337
31,0.049983,1170.188
32,0.05165,1170.188
33,0.053317,1169.145
34,0.055,1169.741
35,0.05665,1169.741
36,0.058317,1167.282
37,0.059983,1165.643
38,0.06165,1168.102
39,0.063317,1168.102
40,0.064967,1169.22
41,0.0667,1172.572
42,0.0683,1174.212
43,0.069967,1174.212
44,0.071633,1172.423
45,0.0733,1169.667
46,0.07496700000000001,1166.835
47,0.07663300000000001,1166.835
48,0.07829999999999999,1166.09
49,0.079967,1166.612
50,0.081633,1166.612
51,0.08341700000000001,1167.729
52,0.084967,1167.729
53,0.086683,1164.228
54,0.0883,1164.228
55,0.08996700000000001,1162.812
56,0.09163300000000001,1161.62
57,0.09329999999999999,1162.142
58,0.094967,1162.142
59,0.096633,1164.675
60,0.0983,1165.42
61,0.100083,1166.388
62,0.101633,1166.388
63,0.1033,1165.643
64,0.104967,1165.345
65,0.106633,1167.953
66,0.1083,1167.953
67,0.109967,1167.655
68,0.111633,1168.326
69,0.1133,1168.326
70,0.114967,1170.784
71,0.116633,1170.71
72,0.1183,1171.604
73,0.119967,1171.604
74,0.121633,1171.529
75,0.1233,1167.879
76,0.124967,1164.228
77,0.126617,1164.228
78,0.128283,1163.781
79,0.12995,1163.632
80,0.1316,1164.749
81,0.133267,1164.749
82,0.134933,1165.718
83,0.1366,1164.898
84,0.138267,1164.898
85,0.139933,1164.302
86,0.1416,1162.812
87,0.143267,1164.451
88,0.144933,1164.451
89,0.146617,1164.824
90,0.148267,1164.153
91,0.149933,1165.494
92,0.1516,1165.494
93,0.153267,1165.941
94,0.15495,1167.729
95,0.1566,1168.475
96,0.158267,1168.475
97,0.159933,1168.102
98,0.1616,1165.867
99,0.163267,1165.867
100,0.164933,1165.196
101,0.1666,1166.463
102,0.168267,1166.388
103,0.169933,1166.388
104,0.1716,1166.537
105,0.173267,1167.804
106,0.174933,1170.039
107,0.1766,1170.039
108,0.178267,1172.274
109,0.179933,1173.69
110,0.1816,1173.69
111,0.183267,1173.69
112,0.184967,1170.71
113,0.186583,1167.804
114,0.18825,1166.388
115,0.189917,1166.388
116,0.191583,1163.11
117,0.19325,1163.036
118,0.194917,1163.036
119,0.196583,1164.675
120,0.19825,1165.718
121,0.199917,1170.337
122,0.201583,1170.337
123,0.20325,1171.157
124,0.204917,1169.965
125,0.206583,1168.847
126,0.20825,1168.847
127,0.209917,1164.973
128,0.211583,1164.973
129,0.21325,1167.953
130,0.214917,1167.953
131,0.216583,1170.933
132,0.21835,1171.455
133,0.219917,1171.455
134,0.221583,1170.039
135,0.22325,1166.09
136,0.224917,1163.706
137,0.226583,1163.706
138,0.22825,1163.855
139,0.229917,1163.706
140,0.231617,1163.93
141,0.23325,1163.93
142,0.235017,1165.569
143,0.236583,1167.804
144,0.23825,1167.506
145,0.239917,1167.506
146,0.241583,1167.953
147,0.24325,1168.251
148,0.2449,1166.91
149,0.246567,1166.91
150,0.248233,1170.635
151,0.2499,1173.839
152,0.251567,1173.839
153,0.253233,1174.659
154,0.2549,1176.074
155,0.256567,1175.106
156,0.258233,1175.106
157,0.2599,1175.478
158,0.261583,1173.392
159,0.263233,1173.839
160,0.2649,1173.839
161,0.266567,1174.286
162,0.268233,1170.263
163,0.2699,1170.039
164,0.271567,1170.039
165,0.273233,1169.071
166,0.2749,1167.729
167,0.276567,1167.729
168,0.278233,1168.475
169,0.2799,1167.357
170,0.281567,1166.239
171,0.283233,1166.239
172,0.2849,1166.835
173,0.286567,1166.165
174,0.288233,1166.388
175,0.2899,1166.388
176,0.291567,1167.506
177,0.293233,1167.879
178,0.294917,1172.349
179,0.296583,1172.349
180,0.298233,1172.945
181,0.2999,1171.306
182,0.301567,1171.306
183,0.303217,1170.635
184,0.3049,1171.157
185,0.30655,1177.415
186,0.308217,1177.415
187,0.309883,1181.737
188,0.31155,1186.356
189,0.313217,1187.772
190,0.314883,1187.772
191,0.31655,1188.889
192,0.318217,1193.583
193,0.31995,1201.183
194,0.32155,1201.183
195,0.323217,1209.825
196,0.324883,1219.511
197,0.32655,1228.228
198,0.328217,1228.228
199,0.329883,1236.722
200,0.33155,1249.313
201,0.333217,1249.313
202,0.334883,1260.564
203,0.336617,1275.018
204,0.338217,1292.601
205,0.339883,1292.601
206,0.34155,1310.408
207,0.343217,1331.27
208,0.344883,1356.9
209,0.34655,1356.9
210,0.348217,1382.828
211,0.349883,1412.258
212,0.35155,1449.659
213,0.353317,1449.659
214,0.354883,1495.63
215,0.35655,1554.042
216,0.358217,1554.042
217,0.359883,1632.869
218,0.36155,1741.275
219,0.363217,1887.605
220,0.364867,1887.605
221,0.366533,2087.653
222,0.3682,2359.003
223,0.369867,2712.458
224,0.371533,2712.458
225,0.3732,3166.944
226,0.374883,3722.906
227,0.3766,4378.11
228,0.3782,4378.11
229,0.379867,5126.074
230,0.381533,5942.062
231,0.3832,6805.807
232,0.384867,6805.807
233,0.386533,7685.944
234,0.3882,8552.521000000001
235,0.389867,8552.521000000001
236,0.391533,9380.206
237,0.3932,10144.859
238,0.394867,10823.235
239,0.396533,10823.235
240,0.3982,11399.761
241,0.399867,11866.241
242,0.401533,12224.242
243,0.4032,12224.242
244,0.404867,12476.146
245,0.406533,12627.244
246,0.4082,12687.444
247,0.409867,12687.444
248,0.411533,12663.603
249,0.4132,12566.969
250,0.414867,12566.969
251,0.416533,12413.562
252,0.4182,12207.181
253,0.419867,11959.821
254,0.421517,11959.821
255,0.423183,11684.969
256,0.42485,11384.413
257,0.4265,11071.041
258,0.428167,11071.041
259,0.429833,10745.973
260,0.4315,10414.794
261,0.433167,10082.871
262,0.434833,10082.871
263,0.436517,9755.566000000001
264,0.438217,9434.446
265,0.439833,9122.862999999999
266,0.4415,9122.862999999999
267,0.4432,8814.558999999999
268,0.444833,8517.057000000001
269,0.4465,8517.057000000001
270,0.448167,8232.296
271,0.449867,7954.687
272,0.4515,7690.042
273,0.453167,7690.042
274,0.454867,7432.55
275,0.4565,7184.372
276,0.458167,6948.858
277,0.459833,6948.858
278,0.4615,6727.204
279,0.463167,6517.768
280,0.464833,6315.335
281,0.4665,6315.335
282,0.468167,6125.048
283,0.469833,5945.489
284,0.4715,5945.489
285,0.473167,5770.102
286,0.474833,5610.958
287,0.4765,5454.421
288,0.478167,5454.421
289,0.479833,5304.366
290,0.4815,5165.786
291,0.483167,5027.354
292,0.484817,5027.354
293,0.486483,4898.682
294,0.48815,4775.673
295,0.489817,4657.134
296,0.491483,4657.134
297,0.49315,4544.184
298,0.494817,4435.479
299,0.496483,4435.479
300,0.49815,4331.246
301,0.499817,4232.451
302,0.501483,4141.703
303,0.50315,4141.703
304,0.504817,4052.669
305,0.506483,3969.893
306,0.50815,3886.595
307,0.509817,3886.595
308,0.511483,3805.608
309,0.51315,3730.506
310,0.514833,3655.404
311,0.516483,3655.404
312,0.51815,3586.784
313,0.519817,3520.846
314,0.521483,3456.473
315,0.52315,3456.473
316,0.524817,3395.379
317,0.526483,3335.401
318,0.52815,3335.401
319,0.52985,3278.777
320,0.531483,3225.133
321,0.53315,3172.606
322,0.534817,3172.606
323,0.536483,3123.134
324,0.53815,3073.066
325,0.539817,3024.265
326,0.541483,3024.265
327,0.54315,2981.201
328,0.544817,2937.242
329,0.546467,2898.499
330,0.548133,2898.499
331,0.5498,2859.384
332,0.551467,2820.343
333,0.553133,2820.343
334,0.5548,2784.655
335,0.5564829999999999,2746.731
336,0.558133,2708.808
337,0.5598,2708.808
338,0.561467,2673.79
339,0.563133,2640.411
340,0.5648,2606.437
341,0.5664670000000001,2606.437
342,0.568133,2575.74
343,0.5698,2545.714
344,0.5714669999999999,2515.763
345,0.57315,2515.763
346,0.5748,2488.271
347,0.576467,2464.28
348,0.578133,2438.575
349,0.5798,2438.575
350,0.581467,2410.784
351,0.583133,2386.272
352,0.5848,2386.272
353,0.586467,2360.195
354,0.588133,2335.533
355,0.589883,2312.213
356,0.591467,2312.213
357,0.593133,2287.85
358,0.5948,2269.074
359,0.596467,2244.86
360,0.598133,2244.86
361,0.5998,2223.477
362,0.601467,2203.36
363,0.603117,2180.487
364,0.604783,2180.487
365,0.60645,2165.586
366,0.608117,2152.249
367,0.609783,2152.249
368,0.61145,2139.509
369,0.613117,2125.427
370,0.614783,2105.459
371,0.6164500000000001,2105.459
372,0.618117,2084.523
373,0.619783,2063.513
374,0.6214499999999999,2043.471
375,0.62315,2043.471
376,0.624783,2028.644
377,0.62645,2016.127
378,0.628117,2001.822
379,0.629783,2001.822
380,0.63145,1987.442
381,0.633117,1975.372
382,0.634783,1961.142
383,0.63645,1961.142
384,0.638117,1949.519
385,0.639783,1937.449
386,0.64145,1937.449
387,0.643117,1922.473
388,0.644783,1909.137
389,0.64645,1895.502
390,0.6481170000000001,1895.502
391,0.649783,1882.985
392,0.65145,1870.245
393,0.6531169999999999,1859.963
394,0.654783,1859.963
395,0.656483,1851.171
396,0.658117,1840.74
397,0.659783,1833.737
398,0.66145,1833.737
399,0.663117,1823.381
400,0.664783,1812.95
401,0.6664330000000001,1812.95
402,0.6681,1801.997
403,0.669767,1792.908
404,0.6714329999999999,1783.297
405,0.6731,1783.297
406,0.6748499999999999,1773.462
407,0.676433,1764.595
408,0.6781,1752.004
409,0.679767,1752.004
410,0.681433,1742.84
411,0.6831,1733.75
412,0.684767,1726.523
413,0.686433,1726.523
414,0.6881,1719.147
415,0.689767,1710.951
416,0.691433,1702.309
417,0.6931,1702.309
418,0.694767,1696.423
419,0.696433,1689.643
420,0.6981000000000001,1689.643
421,0.699767,1681.969
422,0.701433,1673.922
423,0.7030999999999999,1664.236
424,0.704767,1664.236
425,0.706433,1656.935
426,0.708183,1649.335
427,0.7097830000000001,1645.088
428,0.711433,1645.088
429,0.7131,1639.053
430,0.71475,1634.136
431,0.716417,1630.932
432,0.718083,1630.932
433,0.71975,1624.823
434,0.721417,1618.043
435,0.723083,1618.043
436,0.72475,1609.4
437,0.7264,1600.534
438,0.728067,1592.487
439,0.729733,1592.487
440,0.7314000000000001,1590.475
441,0.733083,1586.154
442,0.7348,1583.472
443,0.7364000000000001,1583.472
444,0.738067,1579.97
445,0.739733,1572.296
446,0.7413999999999999,1567.081
447,0.743067,1567.081
448,0.744733,1559.109
449,0.7464,1552.701
450,0.748067,1552.701
451,0.749733,1547.411
452,0.7514,1545.325
453,0.753067,1540.408
454,0.754733,1540.408
455,0.7564,1535.118
456,0.758067,1533.031
457,0.759733,1526.773
458,0.7614,1526.773
459,0.7630670000000001,1522.824
460,0.764733,1521.781
461,0.7664,1514.256
462,0.7680670000000001,1514.256
463,0.769733,1507.103
464,0.7714,1502.484
465,0.7730669999999999,1496.673
466,0.774733,1496.673
467,0.7764,1494.438
468,0.778067,1492.202
469,0.779733,1492.202
470,0.7814,1489.222
471,0.783067,1484.901
472,0.784733,1481.399
473,0.786433,1481.399
474,0.78805,1478.344
475,0.789717,1476.78
476,0.7913829999999999,1472.086
477,0.793133,1472.086
478,0.794717,1465.455
479,0.796383,1460.314
480,0.79805,1454.651
481,0.799717,1454.651
482,0.801383,1452.416
483,0.80305,1450.106
484,0.804717,1450.106
485,0.806383,1446.828
486,0.80805,1444.295
487,0.809717,1442.134
488,0.811383,1442.134
489,0.8130500000000001,1438.707
490,0.814717,1437.739
491,0.816383,1438.186
492,0.8180500000000001,1438.186
493,0.819717,1435.578
494,0.821383,1432.225
495,0.8230499999999999,1429.617
496,0.824717,1429.617
497,0.826483,1425.818
498,0.82805,1423.657
499,0.829717,1421.794
500,0.831383,1421.794
501,0.83305,1417.175
502,0.834717,1411.736
503,0.836383,1411.736
504,0.83805,1405.85
505,0.839717,1401.678
506,0.841383,1398.698
507,0.84305,1398.698
508,0.8447,1396.611
509,0.846367,1395.121
510,0.848033,1393.035
511,0.8497,1393.035
512,0.851367,1393.482
513,0.853033,1390.278
514,0.8547,1386.479
515,0.856367,1386.479
516,0.858033,1386.33
517,0.8597,1383.871
518,0.861367,1383.871
519,0.8630330000000001,1380.146
520,0.8647,1379.102
521,0.866383,1375.154
522,0.868083,1375.154
523,0.8697,1368.97
524,0.871367,1367.331
525,0.8730329999999999,1365.691
526,0.8747,1365.691
527,0.876367,1365.17
528,0.878033,1363.382
529,0.8797,1362.786
530,0.881367,1362.786
531,0.883033,1363.382
532,0.8847,1361.37
533,0.886367,1361.817
534,0.888033,1361.817
535,0.8897,1361.743
536,0.891367,1357.57
537,0.89305,1357.57
538,0.8947000000000001,1356.229
539,0.896367,1352.28
540,0.898033,1346.32
541,0.8997000000000001,1346.32
542,0.901367,1343.936
543,0.903017,1342.595
544,0.904683,1343.34
545,0.90635,1343.34
546,0.908017,1344.383
547,0.909683,1342.818
548,0.911417,1340.955
549,0.913017,1340.955
550,0.914683,1340.657
551,0.91635,1338.497
552,0.918017,1338.497
553,0.919683,1336.56
554,0.92135,1331.344
555,0.923017,1327.843
556,0.924683,1327.843
557,0.92635,1327.619
558,0.928017,1326.725
559,0.929683,1327.917
560,0.93135,1327.917
561,0.933017,1326.948
562,0.934683,1323.819
563,0.93635,1321.957
564,0.9380500000000001,1321.957
565,0.9397,1319.498
566,0.94135,1319.423
567,0.943017,1319.423
568,0.9448,1318.157
569,0.94635,1314.878
570,0.948017,1314.431
571,0.9496830000000001,1314.431
572,0.95135,1309.663
573,0.953017,1307.875
574,0.9546829999999999,1308.844
575,0.95635,1308.844
576,0.958017,1308.993
577,0.959683,1307.055
578,0.96135,1305.193
579,0.963017,1305.193
580,0.9646670000000001,1303.107
581,0.966333,1299.754
582,0.968,1298.934
583,0.9696669999999999,1298.934
584,0.971333,1299.083
585,0.973,1298.711
586,0.974667,1298.711
587,0.976333,1298.562
588,0.978,1298.86
589,0.979667,1295.954
590,0.981333,1295.954
591,0.983,1293.942
592,0.984667,1292.676
593,0.986333,1290.888
594,0.988,1290.888
595,0.989667,1288.354
596,0.991333,1289.77
597,0.993,1288.727
598,0.994667,1288.727
599,0.996333,1289.397
600,0.998,1289.472
601,0.999667,1289.472
602,1.001333,1286.641
603,1.003,1286.119
604,1.00465,1283.288
605,1.006317,1283.288
606,1.007983,1282.617
607,1.00965,1280.755
608,1.011317,1278.073
609,1.013,1278.073
610,1.01465,1279.116
611,1.016367,1279.712
612,1.017983,1281.127
613,1.01965,1281.127
614,1.021317,1280.829
615,1.022983,1279.637
616,1.024633,1280.904
617,1.0263,1280.904
618,1.027967,1278.147
619,1.029717,1278.594
620,1.0313,1278.594
621,1.032967,1280.159
622,1.034633,1278.222
623,1.0363,1279.637
624,1.037967,1279.637
625,1.039633,1276.135
626,1.0413,1270.398
627,1.042967,1266.599
628,1.044633,1266.599
629,1.0464,1262.426
630,1.047967,1261.83
631,1.049633,1263.618
632,1.0513,1263.618
633,1.052967,1264.289
634,1.054633,1263.618
635,1.0563,1263.618
636,1.057967,1263.767
637,1.059633,1260.862
638,1.0613,1259.968
639,1.063083,1259.968
640,1.064633,1260.713
641,1.0663,1259.819
642,1.067983,1261.681
643,1.069633,1261.681
644,1.0713,1262.799
645,1.072967,1262.575
646,1.074633,1263.32
647,1.0763,1263.32
648,1.077967,1262.054
649,1.0797,1259.297
650,1.0813,1259.297
651,1.082967,1255.125
652,1.084633,1254.454
653,1.086283,1251.996
654,1.08795,1251.996
655,1.089617,1250.654
656,1.091283,1252.294
657,1.09295,1250.58
658,1.09465,1250.58
659,1.096283,1249.388
660,1.09795,1248.196
661,1.099617,1247.674
662,1.101283,1247.674
663,1.10295,1247.972
664,1.104617,1249.388
665,1.106283,1249.984
666,1.10795,1249.984
667,1.109617,1247.972
668,1.111283,1246.482
669,1.11295,1246.482
670,1.114617,1244.47
671,1.116283,1242.161
672,1.11795,1243.651
673,1.119617,1243.651
674,1.121283,1244.843
675,1.12295,1246.333
676,1.124617,1247.227
677,1.126283,1247.227
678,1.12795,1246.408
679,1.129617,1245.216
680,1.131283,1243.576
681,1.13295,1243.576
682,1.134617,1246.557
683,1.136283,1245.216
684,1.13795,1245.216
685,1.139617,1244.172
686,1.141283,1243.055
687,1.14295,1240.149
688,1.1446,1240.149
689,1.146267,1239.702
690,1.14795,1237.616
691,1.1496,1238.659
692,1.151267,1238.659
693,1.152933,1237.094
694,1.1546,1238.808
695,1.156267,1235.977
696,1.157933,1235.977
697,1.1596,1233.146
698,1.161267,1233.518
699,1.163017,1232.401
700,1.164633,1232.401
701,1.166267,1234.04
702,1.167933,1233.146
703,1.1696,1233.146
704,1.171267,1231.432
705,1.172933,1230.612
706,1.1746,1229.495
707,1.176267,1229.495
708,1.177933,1229.644
709,1.1796,1228.154
710,1.18135,1226.366
711,1.182933,1226.366
712,1.1846,1227.334
713,1.186267,1225.471
714,1.187933,1224.95
715,1.1896,1224.95
716,1.191267,1222.864
717,1.192933,1223.385
718,1.1946,1223.385
719,1.196267,1222.789
720,1.19805,1223.236
721,1.1996,1223.46
722,1.201267,1223.46
723,1.202933,1220.927
724,1.204583,1224.13
725,1.20625,1224.577
726,1.207917,1224.577
727,1.209583,1224.056
728,1.21125,1227.334
729,1.212917,1224.875
730,1.214583,1224.875
731,1.21625,1225.844
732,1.217917,1229.346
733,1.219583,1227.856
734,1.22125,1227.856
735,1.222917,1228.75
736,1.224583,1228.154
737,1.22625,1228.154
738,1.227917,1225.248
739,1.229583,1222.566
740,1.23125,1220.778
741,1.232917,1220.778
742,1.2346,1218.319
743,1.2363,1219.437
744,1.237917,1219.734
745,1.239583,1219.734
746,1.24125,1222.119
747,1.242917,1221.523
748,1.244583,1220.331
749,1.24625,1220.331
750,1.247917,1219.511
751,1.249583,1216.68
752,1.25125,1216.68
753,1.252917,1216.68
754,1.254583,1215.413
755,1.25625,1213.327
756,1.257917,1213.327
757,1.259583,1211.166
758,1.26125,1211.539
759,1.262917,1210.868
760,1.264567,1210.868
761,1.266233,1213.476
762,1.2679,1214.445
763,1.269567,1213.774
764,1.271233,1213.774
765,1.2729,1212.433
766,1.274567,1211.092
767,1.276233,1213.476
768,1.2779,1213.476
769,1.279567,1213.998
770,1.281233,1213.402
771,1.282933,1213.402
772,1.284567,1214.668
773,1.286233,1211.464
774,1.2879,1209.9
775,1.289567,1209.9
776,1.291233,1212.135
777,1.2929,1212.582
778,1.294567,1216.531
779,1.296217,1216.531
780,1.297883,1215.264
781,1.299617,1213.029
782,1.301217,1211.315
783,1.302883,1211.315
784,1.30455,1206.622
785,1.306267,1206.547
786,1.30795,1206.547
787,1.30955,1206.026
788,1.311217,1203.641
789,1.312883,1204.61
790,1.31455,1204.61
791,1.316317,1207.888
792,1.317883,1208.41
793,1.31955,1208.857
794,1.321217,1208.857
795,1.322883,1207.739
796,1.32455,1205.206
797,1.3262,1204.61
798,1.327867,1204.61
799,1.329533,1206.473
800,1.3312,1207.814
801,1.332867,1207.814
802,1.334533,1205.28
803,1.3362,1208.112
804,1.337867,1205.504
805,1.339533,1205.504
806,1.3412,1203.641
807,1.342867,1204.237
808,1.344533,1201.63
809,1.3462,1201.63
810,1.347867,1202.002
811,1.349533,1203.492
812,1.3512,1205.206
813,1.352867,1205.206
814,1.354533,1206.696
815,1.3562,1205.951
816,1.357867,1203.865
817,1.359533,1203.865
818,1.3612,1202.151
819,1.362867,1200.065
820,1.364533,1200.065
821,1.3662,1200.363
822,1.367867,1200.289
823,1.369533,1199.543
824,1.3712,1199.543
825,1.372867,1201.257
826,1.374533,1201.704
827,1.376233,1204.61
828,1.377883,1204.61
829,1.379533,1208.41
830,1.3812,1206.473
831,1.382867,1207.963
832,1.384517,1207.963
833,1.386183,1208.931
834,1.38785,1208.782
835,1.389517,1208.782
836,1.391183,1208.559
837,1.39285,1205.504
838,1.394517,1202.002
839,1.396183,1202.002
840,1.39785,1201.406
841,1.399517,1201.257
842,1.4012,1202.822
843,1.40285,1202.822
844,1.404517,1202.449
845,1.406183,1199.171
846,1.40785,1199.32
847,1.409517,1199.32
848,1.411183,1198.5
849,1.41285,1195.52
850,1.414517,1194.701
851,1.416183,1194.701
852,1.417883,1195.222
853,1.419517,1194.85
854,1.421183,1194.85
855,1.42285,1199.022
856,1.424517,1201.108
857,1.426183,1200.14
858,1.42785,1200.14
859,1.429517,1199.469
860,1.431183,1198.351
861,1.43285,1195.967
862,1.434617,1195.967
863,1.436183,1195.148
864,1.43785,1195.222
865,1.439517,1196.861
866,1.441183,1196.861
867,1.442833,1199.096
868,1.4445,1200.14
869,1.446167,1200.14
870,1.447833,1197.979
871,1.4495,1192.912
872,1.451167,1192.54
873,1.452833,1192.54
874,1.4545,1190.23
875,1.4562,1192.167
876,1.457917,1196.265
877,1.4595,1196.265
878,1.461167,1195.744
879,1.462833,1196.414
880,1.4645,1196.265
881,1.466167,1196.265
882,1.467833,1193.583
883,1.4695,1193.062
884,1.471183,1192.763
885,1.472833,1192.763
886,1.4745,1193.657
887,1.476167,1194.552
888,1.477833,1194.552
889,1.4795,1195.595
890,1.481167,1193.807
891,1.482833,1194.403
892,1.4845,1194.403
893,1.486167,1192.912
894,1.487833,1189.858
895,1.4895,1190.677
896,1.491167,1190.677
897,1.492833,1186.803
898,1.4945,1185.313
899,1.496167,1184.94
900,1.497833,1184.94
901,1.4995,1184.866
902,1.501167,1188.591
903,1.502833,1188.591
904,1.504483,1191.571
905,1.50615,1190.528
906,1.507817,1192.763
907,1.509483,1192.763
908,1.51115,1191.646
909,1.512817,1191.422
910,1.514483,1191.869
911,1.51615,1191.869
912,1.517817,1189.411
913,1.519567,1185.462
914,1.52115,1185.462
915,1.522817,1185.462
916,1.524483,1188.368
