"ID","sea_time","fid_signal"
1,0,140.913
2,0.00175,141.047
3,0.003367,141.047
4,0.005,141.092
5,0.006667,140.861
6,0.008333,140.809
7,0.01,140.809
8,0.011667,140.131
9,0.013333,139.892
10,0.015017,139.892
11,0.016667,139.713
12,0.01845,139.49
13,0.02,139.944
14,0.021667,139.944
15,0.023333,140.041
16,0.025,140.309
17,0.026667,140.28
18,0.028333,140.28
19,0.03,140.063
20,0.031667,140.063
21,0.033333,140.093
22,0.035,140.093
23,0.036667,140.369
24,0.038333,140.451
25,0.04,140.607
26,0.041667,140.607
27,0.043333,140.436
28,0.045,140.354
29,0.046667,140.354
30,0.048333,140.525
31,0.05,140.369
32,0.051667,140.25
33,0.053333,140.25
34,0.054983,140.399
35,0.05665,140.399
36,0.058317,140.607
37,0.059983,140.607
38,0.06165,140.607
39,0.063317,140.339
40,0.064983,140.175
41,0.06665,140.175
42,0.068317,140.198
43,0.069983,140.302
44,0.07165000000000001,140.302
45,0.07331699999999999,140.183
46,0.07498299999999999,140.056
47,0.07665,139.646
48,0.078317,139.646
49,0.079983,139.46
50,0.08168300000000001,139.81
51,0.083317,140.16
52,0.084983,140.16
53,0.08665,140.451
54,0.08831700000000001,140.965
55,0.08998299999999999,140.585
56,0.09165,140.585
57,0.093317,140.28
58,0.094983,140.049
59,0.09665,139.654
60,0.098317,139.654
61,0.099983,139.81
62,0.10165,140.22
63,0.103383,140.22
64,0.104983,140.302
65,0.10665,140.265
66,0.108317,140.369
67,0.109983,140.369
68,0.11165,139.907
69,0.1133,140.071
70,0.114967,140.056
71,0.11665,140.056
72,0.1183,140.049
73,0.119983,140.063
74,0.121633,139.795
75,0.1233,139.795
76,0.124967,140.049
77,0.126633,139.9
78,0.1283,139.9
79,0.129967,139.795
80,0.131633,139.862
81,0.1333,139.743
82,0.134967,139.743
83,0.136733,139.937
84,0.1383,140.19
85,0.139967,140.339
86,0.141633,140.339
87,0.1433,140.451
88,0.144967,140.518
89,0.146633,140.719
90,0.1483,140.719
91,0.149967,140.771
92,0.151633,140.689
93,0.1533,140.719
94,0.154967,140.719
95,0.156633,140.578
96,0.1583,140.578
97,0.159983,140.578
98,0.1617,140.451
99,0.1633,140.212
100,0.164967,140.019
101,0.166633,140.019
102,0.1683,139.788
103,0.169967,140.019
104,0.171633,139.9
105,0.1733,139.9
106,0.17495,139.952
107,0.176617,139.967
108,0.178283,139.594
109,0.17995,139.594
110,0.181617,139.616
111,0.183283,139.922
112,0.18495,139.922
113,0.186617,140.108
114,0.188283,140.212
115,0.18995,140.257
116,0.191617,140.257
117,0.193283,140.063
118,0.19495,140.026
119,0.196617,140.026
120,0.198283,140.026
121,0.19995,140.235
122,0.201617,140.503
123,0.203283,140.637
124,0.20495,140.637
125,0.206617,140.63
126,0.208283,140.347
127,0.20995,140.347
128,0.2116,140.026
129,0.213267,140.131
130,0.214933,140.518
131,0.2166,140.518
132,0.218267,141.047
133,0.219933,140.98
134,0.2216,140.682
135,0.223267,140.682
136,0.224933,140.496
137,0.2266,140.25
138,0.228267,140.168
139,0.229933,140.168
140,0.231633,140.198
141,0.233283,140.123
142,0.234967,140.034
143,0.236583,140.034
144,0.23825,140.242
145,0.239917,140.265
146,0.241583,140.265
147,0.24325,140.332
148,0.244917,140.451
149,0.246583,140.585
150,0.24825,140.585
151,0.249917,140.361
152,0.251583,140.026
153,0.25325,139.862
154,0.255033,139.862
155,0.256583,139.937
156,0.25825,140.108
157,0.259917,140.473
158,0.261583,140.473
159,0.26325,140.592
160,0.264917,140.525
161,0.266583,140.525
162,0.26825,140.488
163,0.269917,140.399
164,0.271583,140.257
165,0.27325,140.257
166,0.274917,139.885
167,0.276583,140.123
168,0.27825,140.056
169,0.279917,140.056
170,0.281583,139.907
171,0.28325,139.929
172,0.284917,139.676
173,0.286583,139.676
174,0.28825,139.929
175,0.289917,140.287
176,0.291583,140.421
177,0.29325,140.421
178,0.2949,140.369
179,0.296567,140.25
180,0.298233,140.25
181,0.2999,140.25
182,0.301567,140.25
183,0.303233,140.451
184,0.304917,140.451
185,0.306617,140.451
186,0.308233,140.451
187,0.3099,140.488
188,0.311567,140.488
189,0.313233,140.272
190,0.3149,140.376
191,0.316567,140.347
192,0.318233,140.347
193,0.319917,140.51
194,0.321567,141.017
195,0.323233,141.017
196,0.3249,141.107
197,0.326567,141.352
198,0.328233,141.352
199,0.3299,141.352
200,0.331567,141.017
201,0.333233,140.682
202,0.3349,140.265
203,0.336567,140.265
204,0.338233,140.361
205,0.339967,140.309
206,0.341567,140.488
207,0.343233,140.488
208,0.344917,140.794
209,0.346567,140.667
210,0.348233,140.667
211,0.3499,140.823
212,0.351567,140.928
213,0.353233,140.816
214,0.354883,140.816
215,0.35655,140.905
216,0.358217,140.764
217,0.359883,140.727
218,0.36155,140.727
219,0.363217,140.615
220,0.364883,140.637
221,0.36655,140.697
222,0.368217,140.697
223,0.369883,140.712
224,0.37155,140.689
225,0.373317,140.63
226,0.374883,140.63
227,0.37655,140.935
228,0.378217,140.876
229,0.3799,140.876
230,0.381583,141.01
231,0.383217,141.032
232,0.384883,140.995
233,0.38655,140.995
234,0.388217,141.062
235,0.389883,141.047
236,0.39155,140.831
237,0.393217,140.831
238,0.394883,140.585
239,0.39655,140.57
240,0.398217,140.555
241,0.399883,140.555
242,0.40155,140.451
243,0.403217,140.473
244,0.404883,140.473
245,0.40655,140.421
246,0.408233,140.488
247,0.409883,140.563
248,0.41155,140.563
249,0.413217,140.488
250,0.414867,140.555
251,0.416533,140.503
252,0.4182,140.503
253,0.419867,140.488
254,0.421533,140.339
255,0.4232,140.049
256,0.424867,140.049
257,0.426533,140.034
258,0.4282,140.131
259,0.429867,140.548
260,0.431533,140.548
261,0.4332,140.846
262,0.434867,140.928
263,0.436533,140.928
264,0.4382,141.166
265,0.439867,141.092
266,0.441533,141.144
267,0.4432,141.144
268,0.444867,140.794
269,0.446533,140.689
270,0.448233,140.555
271,0.449867,140.555
272,0.451533,140.399
273,0.4532,140.719
274,0.454867,140.674
275,0.456533,140.674
276,0.458267,140.801
277,0.459867,140.898
278,0.461533,140.898
279,0.4632,140.563
280,0.464867,140.592
281,0.466533,140.585
282,0.4682,140.585
283,0.469867,140.585
284,0.471533,140.838
285,0.4732,140.928
286,0.474917,140.928
287,0.476517,140.876
288,0.478183,140.771
289,0.47985,140.719
290,0.481517,140.719
291,0.483183,140.555
292,0.48485,140.473
293,0.486517,140.51
294,0.488183,140.51
295,0.48985,140.645
296,0.491583,140.645
297,0.493183,140.645
298,0.494883,140.771
299,0.496517,140.98
300,0.498183,140.965
301,0.49985,140.965
302,0.501517,141.278
303,0.503167,141.278
304,0.504833,140.831
305,0.5065,140.831
306,0.508167,140.741
307,0.509833,140.414
308,0.5115,140.481
309,0.513167,140.481
310,0.514833,140.756
311,0.5165,140.622
312,0.518167,140.622
313,0.51985,140.741
314,0.5215,140.734
315,0.523167,140.764
316,0.52485,140.764
317,0.5265,140.935
318,0.5281670000000001,140.786
319,0.529833,140.704
320,0.5315,140.704
321,0.5331669999999999,140.689
322,0.534817,140.838
323,0.536483,140.995
324,0.53815,140.995
325,0.539817,140.935
326,0.541483,140.63
327,0.54315,140.63
328,0.544817,140.265
329,0.5464830000000001,140.019
330,0.54815,139.944
331,0.549817,139.944
332,0.5514829999999999,140.384
333,0.55315,140.943
334,0.554817,141.256
335,0.5564829999999999,141.256
336,0.55815,141.189
337,0.559817,140.943
338,0.561483,140.622
339,0.56315,140.622
340,0.564817,140.429
341,0.566483,140.689
342,0.56815,140.734
343,0.569817,140.734
344,0.5715,140.615
345,0.57315,140.727
346,0.574817,140.727
347,0.576533,140.734
348,0.5781500000000001,140.488
349,0.579817,140.66
350,0.581483,140.66
351,0.5831499999999999,140.369
352,0.584817,140.227
353,0.586483,140.399
354,0.58815,140.399
355,0.589817,140.376
356,0.591483,140.607
357,0.593133,140.421
358,0.5948,140.421
359,0.5965,140.414
360,0.598133,140.451
361,0.5998,140.451
362,0.601467,140.332
363,0.603133,140.525
364,0.6048,140.615
365,0.606467,140.615
366,0.608133,140.704
367,0.609917,141.01
368,0.611467,141.144
369,0.613133,141.144
370,0.6148,141.203
371,0.616467,141.241
372,0.618133,141.181
373,0.6198,141.181
374,0.621467,140.838
375,0.623133,140.764
376,0.6248,140.533
377,0.626467,140.533
378,0.6281330000000001,140.458
379,0.6298,140.421
380,0.631467,140.421
381,0.6331329999999999,140.361
382,0.6348,140.354
383,0.636467,140.242
384,0.638133,140.242
385,0.6398,140.421
386,0.641467,140.384
387,0.643133,140.451
388,0.6448,140.451
389,0.646467,140.257
390,0.648133,140.443
391,0.6498,140.592
392,0.651467,140.592
393,0.6531169999999999,140.458
394,0.654783,140.704
395,0.65645,140.704
396,0.658117,140.883
397,0.659783,140.883
398,0.661467,141.256
399,0.66315,141.256
400,0.664783,141.591
401,0.66645,141.568
402,0.668117,141.487
403,0.669817,141.487
404,0.67145,141.263
405,0.673117,141.189
406,0.674783,141.017
407,0.67645,141.017
408,0.678117,141.308
409,0.679783,141.472
410,0.68145,141.293
411,0.683117,141.293
412,0.684783,141.546
413,0.68645,141.405
414,0.688117,141.405
415,0.689783,141.419
416,0.69145,141.583
417,0.693117,141.39
418,0.694783,141.39
419,0.69645,141.703
420,0.698117,141.673
421,0.699783,141.755
422,0.70145,141.755
423,0.703117,141.755
424,0.704783,141.881
425,0.70645,142.261
426,0.708117,142.261
427,0.7097830000000001,142.418
428,0.7115,142.634
429,0.713117,142.634
430,0.714767,142.403
431,0.716433,142.328
432,0.7181,142.463
433,0.719767,142.463
434,0.721433,142.865
435,0.7231,143.081
436,0.7247670000000001,143.349
437,0.726433,143.349
438,0.728183,143.342
439,0.7297670000000001,143.237
440,0.731433,143.401
441,0.7331,143.401
442,0.7347669999999999,143.543
443,0.736433,143.841
444,0.7381,144.184
445,0.739767,144.184
446,0.741433,144.526
447,0.743117,144.653
448,0.744883,144.653
449,0.746467,144.914
450,0.748117,144.966
451,0.749767,145.197
452,0.751433,145.197
453,0.7531,145.592
454,0.754767,145.823
455,0.756433,146.195
456,0.7581,146.195
457,0.759767,146.151
458,0.761433,146.151
459,0.7631,146.277
460,0.764767,146.277
461,0.766433,146.195
462,0.7681,146.478
463,0.769767,146.478
464,0.771433,146.665
465,0.7731,146.65
466,0.77475,146.769
467,0.776417,146.769
468,0.778083,146.836
469,0.7797500000000001,147.186
470,0.781417,147.536
471,0.783083,147.536
472,0.7847499999999999,148.088
473,0.786417,148.453
474,0.788083,148.706
475,0.78975,148.706
476,0.791417,149.123
477,0.793067,149.31
478,0.794733,149.31
479,0.7964,149.444
480,0.798067,149.272
481,0.799733,149.131
482,0.8014,149.131
483,0.803067,149.377
484,0.804733,149.652
485,0.8064,149.988
486,0.808067,149.988
487,0.809733,150.219
488,0.8114,150.278
489,0.813133,150.479
490,0.814733,150.479
491,0.8164,150.822
492,0.818067,151.344
493,0.819733,151.53
494,0.8214,151.53
495,0.823067,151.955
496,0.824733,152.26
497,0.8264,152.26
498,0.828067,152.394
499,0.8298,152.975
500,0.8314,153.154
501,0.833067,153.154
502,0.834717,153.519
503,0.836383,153.705
504,0.83805,153.504
505,0.839717,153.504
506,0.841383,153.825
507,0.84305,153.735
508,0.8447170000000001,154.011
509,0.846383,154.011
510,0.84805,154.391
511,0.8497169999999999,154.503
512,0.851383,154.503
513,0.85305,154.771
514,0.8547169999999999,154.793
515,0.856383,154.823
516,0.85805,154.823
517,0.859717,155.054
518,0.861383,155.412
519,0.863167,155.918
520,0.864717,155.918
521,0.866383,156.425
522,0.86805,156.492
523,0.869717,156.693
524,0.871383,156.693
525,0.87305,156.805
526,0.874717,156.961
527,0.876383,157.371
528,0.87805,157.371
529,0.879717,157.505
530,0.881383,157.848
531,0.88305,157.848
532,0.884717,158.206
533,0.886383,158.392
534,0.88805,158.519
535,0.889733,158.519
536,0.891383,158.615
537,0.893083,158.869
538,0.8947000000000001,159.249
539,0.896367,159.249
540,0.898033,159.442
541,0.8997000000000001,159.8
542,0.901367,159.994
543,0.903033,159.994
544,0.9046999999999999,159.957
545,0.906367,160.284
546,0.908033,160.284
547,0.9097,160.255
548,0.911367,160.299
549,0.913033,160.359
550,0.9147,160.359
551,0.916367,160.351
552,0.918033,160.724
553,0.9197,161.059
554,0.921367,161.059
555,0.92305,161.67
556,0.9247,162.08
557,0.9263670000000001,162.14
558,0.928033,162.14
559,0.9297,162.385
560,0.9313669999999999,162.236
561,0.933033,162.326
562,0.9347,162.326
563,0.9363669999999999,162.698
564,0.938033,162.989
565,0.9397,162.989
566,0.941367,163.205
567,0.943033,163.428
568,0.9447,163.466
569,0.946367,163.466
570,0.9481000000000001,163.428
571,0.9497,163.734
572,0.951367,163.92
573,0.953033,163.92
574,0.9546829999999999,164.323
575,0.95635,164.442
576,0.958017,164.367
577,0.959683,164.367
578,0.96135,164.598
579,0.963017,164.807
580,0.9647,164.807
581,0.96635,165.209
582,0.968017,165.582
583,0.969683,165.693
584,0.97135,165.693
585,0.973017,165.582
586,0.974683,165.187
587,0.9763500000000001,165.224
588,0.978017,165.224
589,0.979683,165.679
590,0.981467,165.686
591,0.983017,166.342
592,0.984683,166.342
593,0.9863499999999999,166.684
594,0.988017,166.699
595,0.989683,166.699
596,0.99135,167.064
597,0.993017,167.154
598,0.994683,167.4
599,0.99635,167.4
600,0.998017,167.288
601,0.999683,167.347
602,1.00135,167.251
603,1.003017,167.251
604,1.004683,167.064
605,1.00635,167.593
606,1.008017,167.593
607,1.009683,167.593
608,1.01135,167.973
609,1.013017,168.13
610,1.014667,167.862
611,1.016333,167.862
612,1.018,168.256
613,1.019667,168.152
614,1.021333,168.152
615,1.023,168.577
616,1.024667,168.756
617,1.026333,168.629
618,1.028,168.629
619,1.029667,168.741
620,1.03135,168.495
621,1.033,168.569
622,1.034667,168.569
623,1.036333,168.987
624,1.038,169.203
625,1.039667,169.665
626,1.04135,169.665
627,1.043033,169.948
628,1.044667,169.747
629,1.046333,169.747
630,1.048,169.836
631,1.049667,169.478
632,1.051333,169.702
633,1.053,169.702
634,1.054667,169.836
635,1.056333,170.127
636,1.058,170.715
637,1.059667,170.715
638,1.061333,170.551
639,1.063,170.596
640,1.064667,170.38
641,1.06635,170.38
642,1.068,170.209
643,1.069667,170.365
644,1.071333,170.79
645,1.073,170.79
646,1.07465,171.073
647,1.076317,170.961
648,1.077983,170.961
649,1.07965,171.334
650,1.081317,171.535
651,1.082983,171.803
652,1.084633,171.803
653,1.0863,172.205
654,1.087967,171.974
655,1.089633,171.743
656,1.0913,171.743
657,1.092967,171.475
658,1.094633,171.527
659,1.0963,171.691
660,1.097983,171.691
661,1.099733,172.071
662,1.1013,172.339
663,1.102967,172.339
664,1.104633,172.332
665,1.1063,172.339
666,1.107967,172.19
667,1.10965,172.19
668,1.1113,172.459
669,1.112967,172.578
670,1.114633,172.63
671,1.1163,172.63
672,1.117967,172.615
673,1.119633,172.518
674,1.1213,172.541
675,1.122967,172.541
676,1.124633,172.6
677,1.1263,172.503
678,1.127967,172.265
679,1.129667,172.265
680,1.1313,172.548
681,1.132967,172.622
682,1.134633,172.622
683,1.136283,173.032
684,1.13795,173.323
685,1.139617,173.494
686,1.141283,173.494
687,1.14295,173.941
688,1.144617,173.919
689,1.146283,174.001
690,1.14795,174.001
691,1.149617,173.785
692,1.151283,173.613
693,1.15295,173.807
694,1.154617,173.807
695,1.156283,173.725
696,1.15795,173.755
697,1.159617,173.755
698,1.161283,173.643
699,1.16295,173.323
700,1.164617,173.71
701,1.166283,173.71
702,1.16795,173.77
703,1.169617,174.157
704,1.171283,174.329
705,1.17295,174.329
706,1.174617,174.321
707,1.176283,174.47
708,1.17795,174.373
709,1.179617,174.373
710,1.181317,174.724
711,1.18295,174.642
712,1.184683,174.642
713,1.186283,174.642
714,1.18795,174.843
715,1.189617,174.776
716,1.191283,174.776
717,1.19295,174.761
718,1.1946,174.82
719,1.196267,174.671
720,1.197933,174.671
721,1.1996,174.5
722,1.201267,174.5
723,1.202933,174.619
724,1.2046,174.619
725,1.206267,174.47
726,1.207933,174.694
727,1.2096,174.887
728,1.211267,174.887
729,1.212933,174.917
730,1.214633,174.925
731,1.216267,174.925
732,1.21805,174.828
733,1.2196,174.664
734,1.221267,174.522
735,1.222933,174.522
736,1.2246,174.791
737,1.226267,174.873
738,1.227933,175.178
739,1.2296,175.178
740,1.231267,175.394
741,1.232933,175.29
742,1.2346,175.29
743,1.236267,175.29
744,1.237933,175.126
745,1.2396,175.193
746,1.241267,175.193
747,1.242933,175.029
748,1.2446,175.2
749,1.246267,175.133
750,1.247933,175.133
751,1.2496,175.156
752,1.251267,175.461
753,1.252933,175.409
754,1.2546,175.409
755,1.25625,175.67
756,1.257917,175.595
757,1.259583,175.662
758,1.2613,175.662
759,1.262917,175.782
760,1.264583,176.013
761,1.26625,175.968
762,1.267917,175.968
763,1.269583,175.841
764,1.27125,175.893
765,1.272917,175.893
766,1.274583,175.536
767,1.27625,175.416
768,1.277917,175.536
769,1.279583,175.536
770,1.28125,175.327
771,1.282917,175.402
772,1.284583,175.558
773,1.28625,175.558
774,1.287917,175.513
775,1.289583,175.789
776,1.29125,175.826
777,1.292917,175.826
778,1.294633,176.035
779,1.29625,176.355
780,1.297917,176.355
781,1.299583,176.221
782,1.30125,176.184
783,1.302967,175.953
784,1.304583,175.953
785,1.30625,175.543
786,1.307917,175.536
787,1.309583,175.558
788,1.31125,175.558
789,1.312917,175.536
790,1.314567,175.7
791,1.316233,175.662
792,1.3179,175.662
793,1.319567,175.662
794,1.321233,176.065
795,1.3229,176.311
796,1.324567,176.311
797,1.32625,176.683
798,1.3279,176.959
799,1.329567,176.959
800,1.331233,176.921
801,1.3329,177.1
802,1.334567,177.003
803,1.336367,177.003
804,1.3379,177.026
805,1.339567,176.84
806,1.341233,176.676
807,1.3429,176.676
808,1.344567,176.713
809,1.346233,176.542
810,1.3479,176.936
811,1.349567,176.936
812,1.351233,176.825
813,1.3529,176.683
814,1.354567,176.683
815,1.356233,176.668
816,1.3579,176.452
817,1.359567,176.84
818,1.361233,176.84
819,1.3629,176.944
820,1.364567,177.145
821,1.366233,177.16
822,1.3679,177.16
823,1.369567,176.787
824,1.371233,176.616
825,1.3729,176.288
826,1.37455,176.288
827,1.3762,176.117
828,1.377867,176.065
829,1.379533,176.065
830,1.3812,176.02
831,1.382883,176.08
832,1.384567,176.333
833,1.3862,176.333
834,1.387867,176.243
835,1.389533,176.355
836,1.3912,176.698
837,1.392867,176.698
838,1.394533,176.653
839,1.3962,176.914
840,1.397867,176.765
841,1.399533,176.765
842,1.4012,176.407
843,1.402867,176.05
844,1.40455,175.647
845,1.4062,175.647
846,1.407867,175.595
847,1.409533,175.953
848,1.4112,175.953
849,1.412867,176.393
850,1.414533,177.1
851,1.4162,177.473
852,1.417867,177.473
853,1.419533,177.361
854,1.421283,177.22
855,1.422867,176.72
856,1.424533,176.72
857,1.4262,176.534
858,1.427867,176.452
859,1.429533,176.311
860,1.4312,176.311
861,1.43285,176.288
862,1.434517,176.303
863,1.436183,176.303
864,1.43785,176.176
865,1.439517,176.467
866,1.441183,176.802
867,1.44285,176.802
868,1.444517,176.907
869,1.446183,176.877
870,1.44785,176.817
871,1.449517,176.817
872,1.451183,176.4
873,1.45285,176.601
874,1.454633,176.772
875,1.456183,176.772
876,1.45785,176.631
877,1.459517,176.847
878,1.461183,176.497
879,1.46285,176.497
880,1.464517,176.571
881,1.466183,176.482
882,1.46785,176.482
883,1.469517,176.407
884,1.471183,176.393
885,1.472867,176.147
886,1.474517,176.147
887,1.476183,176.139
888,1.47785,175.96
889,1.479517,176.05
890,1.481183,176.05
891,1.48285,176.243
892,1.48455,176.288
893,1.486183,176.571
894,1.48785,176.571
895,1.489517,176.355
896,1.491183,176.162
897,1.49285,176.162
898,1.4945,176.378
899,1.496167,176.482
900,1.497833,176.929
901,1.4995,176.929
902,1.501183,177.078
903,1.502833,176.929
904,1.5045,176.772
905,1.506167,176.772
906,1.507833,176.638
907,1.5095,176.854
908,1.511167,176.907
909,1.512833,176.907
910,1.5145,177.018
911,1.516167,176.914
912,1.517833,176.713
913,1.5195,176.713
914,1.521167,176.668
915,1.522833,176.43
916,1.5245,176.43
917,1.526167,176.579
918,1.527833,176.728
919,1.5295,176.869
920,1.531167,176.869
921,1.532833,176.951
922,1.5345,176.944
923,1.536167,176.571
924,1.537833,176.571
925,1.539533,176.318
926,1.541167,176.415
927,1.542833,176.407
928,1.5445,176.407
929,1.5462,176.534
930,1.547833,176.534
931,1.5495,176.534
932,1.551167,176.549
933,1.552833,176.363
934,1.554483,176.504
935,1.556217,176.504
936,1.557817,176.772
937,1.559483,176.787
938,1.56115,176.936
939,1.562817,176.936
940,1.564483,177.145
941,1.56615,176.921
942,1.567817,176.698
943,1.569483,176.698
944,1.57115,176.586
945,1.572917,176.147
946,1.574483,176.147
947,1.57615,176.191
948,1.577817,176.482
949,1.579483,176.728
950,1.58115,176.728
951,1.582817,177.003
952,1.584483,177.048
953,1.58615,177.145
954,1.587817,177.145
955,1.5896,177.011
956,1.59115,176.966
957,1.592817,176.75
958,1.594483,176.75
959,1.59615,176.504
960,1.597817,176.37
961,1.599483,176.333
962,1.60115,176.333
963,1.602817,176.325
964,1.604483,176.169
965,1.60615,176.169
966,1.607817,176.154
967,1.609483,175.901
968,1.61115,176.102
969,1.612817,176.102
