"ID","sea_time","fid_signal"
1,0,141.159
2,0.001667,141.159
3,0.003333,141.263
4,0.005,141.293
5,0.006667,141.263
6,0.008333,141.263
7,0.01,141.367
8,0.011667,141.069
9,0.013333,140.913
10,0.015017,140.913
11,0.016667,141.047
12,0.018333,140.972
13,0.02,141.405
14,0.021767,141.405
15,0.023333,141.539
16,0.025,141.554
17,0.02665,141.554
18,0.028317,141.442
19,0.029983,141.114
20,0.03165,141.181
21,0.033317,141.181
22,0.034983,141.3
23,0.03665,141.412
24,0.038317,141.792
25,0.039983,141.792
26,0.04165,141.77
27,0.043317,141.494
28,0.044983,141.77
29,0.04665,141.77
30,0.048317,141.554
31,0.049983,141.479
32,0.051683,141.628
33,0.053317,141.628
34,0.054983,141.591
35,0.05665,141.755
36,0.058317,141.755
37,0.059983,141.591
38,0.06165,141.568
39,0.063317,141.516
40,0.064983,141.516
41,0.06665,141.397
42,0.068317,141.568
43,0.069983,141.516
44,0.07165000000000001,141.516
45,0.07331699999999999,141.278
46,0.07498299999999999,141.315
47,0.07665,141.472
48,0.078317,141.472
49,0.079983,141.628
50,0.08165,141.665
51,0.083317,141.665
52,0.084967,141.591
53,0.086633,141.516
54,0.0883,141.554
55,0.08996700000000001,141.554
56,0.09163300000000001,141.621
57,0.09329999999999999,141.65
58,0.094967,141.524
59,0.096633,141.524
60,0.0983,141.345
61,0.099967,141.293
62,0.101667,141.27
63,0.1033,141.27
64,0.104967,141.278
65,0.106667,141.546
66,0.1083,141.546
67,0.109967,141.397
68,0.111633,141.427
69,0.1133,141.382
70,0.114967,141.382
71,0.116633,141.36
72,0.1183,141.539
73,0.119967,141.77
74,0.121667,141.77
75,0.1234,142.105
76,0.124967,142.112
77,0.126633,142.127
78,0.1283,142.127
79,0.129967,141.77
80,0.131633,141.762
81,0.1333,141.636
82,0.134967,141.636
83,0.136633,141.762
84,0.1383,141.717
85,0.139983,141.717
86,0.141633,141.375
87,0.1433,141.278
88,0.144967,141.032
89,0.146617,141.032
90,0.148283,141.233
91,0.14995,141.278
92,0.151617,141.308
93,0.153283,141.308
94,0.15495,141.598
95,0.156733,141.658
96,0.158283,141.956
97,0.15995,141.956
98,0.161617,141.919
99,0.163283,141.621
100,0.16495,141.621
101,0.166617,141.628
102,0.168283,141.516
103,0.16995,141.442
104,0.171617,141.442
105,0.173283,141.732
106,0.17495,141.658
107,0.176617,141.494
108,0.178283,141.494
109,0.17995,141.799
110,0.181617,141.919
111,0.183283,141.956
112,0.184933,141.956
113,0.186617,141.911
114,0.188267,141.844
115,0.189933,141.583
116,0.1916,141.583
117,0.193283,141.338
118,0.194933,141.338
119,0.1966,141.338
120,0.198267,141.427
121,0.199933,141.546
122,0.2016,141.658
123,0.203267,141.658
124,0.204933,141.65
125,0.206583,141.487
126,0.20825,141.293
127,0.209917,141.293
128,0.211583,141.3
129,0.21325,141.688
130,0.214917,141.807
131,0.216583,141.807
132,0.21825,141.814
133,0.219917,141.732
134,0.221583,141.732
135,0.22325,141.695
136,0.224917,141.516
137,0.226583,141.516
138,0.22825,141.516
139,0.229917,141.598
140,0.231583,141.382
141,0.23325,141.285
142,0.234917,141.285
143,0.236583,141.27
144,0.23825,141.405
145,0.239917,141.226
146,0.241667,141.226
147,0.24325,141.151
148,0.244917,141.375
149,0.246583,141.375
150,0.24825,141.3
151,0.249917,141.636
152,0.251583,142.06
153,0.25325,142.06
154,0.254917,141.904
155,0.256583,141.717
156,0.258267,141.479
157,0.259917,141.479
158,0.261583,141.189
159,0.26325,141.166
160,0.264917,141.546
161,0.2666,141.546
162,0.268233,141.755
163,0.2699,141.725
164,0.271567,141.665
165,0.27325,141.665
166,0.275017,141.568
167,0.276567,141.762
168,0.278233,141.762
169,0.2799,141.65
170,0.281567,141.717
171,0.283233,141.598
172,0.2849,141.598
173,0.286567,141.36
174,0.288233,141.464
175,0.2899,141.375
176,0.291567,141.375
177,0.293233,141.509
178,0.2949,141.732
179,0.296567,141.896
180,0.298233,141.896
181,0.2999,142.284
182,0.301567,142.492
183,0.303233,142.492
184,0.3049,142.165
185,0.306567,142.395
186,0.308233,142.545
187,0.3099,142.545
188,0.311567,142.224
189,0.313233,142.314
190,0.3149,142.15
191,0.316567,142.15
192,0.318233,142.135
193,0.3199,142.708
194,0.321567,142.969
195,0.323233,142.969
196,0.324883,142.999
197,0.32655,143.2
198,0.328217,143.386
199,0.329883,143.386
200,0.33155,143.982
201,0.333217,145.033
202,0.334883,145.033
203,0.336567,146.031
204,0.338217,146.627
205,0.339883,147.32
206,0.34155,147.32
207,0.343217,148.021
208,0.344917,148.296
209,0.34655,149.131
210,0.348217,149.131
211,0.349883,149.727
212,0.35155,149.965
213,0.353217,150.062
214,0.354883,150.062
215,0.35655,149.682
216,0.358217,149.578
217,0.3599,149.578
218,0.36155,149.362
219,0.363217,149.213
220,0.364883,149.079
221,0.36655,149.079
222,0.368217,148.49
223,0.369883,148.036
224,0.37155,147.514
225,0.373217,147.514
226,0.374883,147.052
227,0.376583,146.501
228,0.378217,145.771
229,0.379883,145.771
230,0.38155,145.264
231,0.383217,144.973
232,0.384883,144.906
233,0.386533,144.906
234,0.3882,144.742
235,0.389867,144.303
236,0.391533,144.303
237,0.393317,143.684
238,0.394867,143.439
239,0.396533,143.319
240,0.3982,143.319
241,0.399867,143.491
242,0.401533,143.61
243,0.4032,143.275
244,0.404867,143.275
245,0.406533,143.051
246,0.4082,143.141
247,0.409867,143.059
248,0.41155,143.059
249,0.4132,143.17
250,0.414867,143.319
251,0.416533,143.319
252,0.4182,143.014
253,0.419867,143.006
254,0.421533,142.783
255,0.4232,142.783
256,0.424867,142.425
257,0.426533,142.373
258,0.4282,142.395
259,0.429867,142.395
260,0.43155,142.641
261,0.4332,142.962
262,0.434867,142.992
263,0.436533,142.992
264,0.4382,143.036
265,0.439867,142.962
266,0.441533,142.962
267,0.4432,142.872
268,0.44485,143.014
269,0.446517,143.088
270,0.448183,143.088
271,0.44985,143.379
272,0.451517,143.64
273,0.453183,143.908
274,0.45485,143.908
275,0.456517,143.67
276,0.458183,143.349
277,0.45985,142.91
278,0.461517,142.91
279,0.463183,142.507
280,0.46485,142.299
281,0.466517,142.261
282,0.468183,142.261
283,0.46985,142.619
284,0.471517,142.775
285,0.473183,142.775
286,0.47485,143.051
287,0.4765,143.357
288,0.478167,143.342
289,0.479867,143.342
290,0.4815,143.453
291,0.483167,143.483
292,0.484833,143.088
293,0.4865,143.088
294,0.488167,142.992
295,0.489833,142.738
296,0.4915,142.872
297,0.493167,142.872
298,0.49485,143.096
299,0.4965,143.26
300,0.498167,143.26
301,0.499833,143.521
302,0.5014999999999999,143.342
303,0.503167,143.416
304,0.504833,143.416
305,0.506483,143.342
306,0.50815,143.26
307,0.509817,143.357
308,0.511583,143.357
309,0.51315,143.111
310,0.514817,142.962
311,0.516483,143.118
312,0.51815,143.118
313,0.519817,143.357
314,0.521483,143.796
315,0.523167,143.833
316,0.524817,143.833
317,0.526483,143.528
318,0.52815,143.126
319,0.529817,143.126
320,0.531483,142.999
321,0.53315,143.26
322,0.534817,143.342
323,0.536483,143.342
324,0.53815,143.453
325,0.539817,143.208
326,0.541483,143.223
327,0.54315,143.223
328,0.544817,143.275
329,0.5464830000000001,143.506
330,0.54815,143.528
331,0.549817,143.528
332,0.5514829999999999,143.647
333,0.553183,143.789
334,0.554817,143.789
335,0.5564829999999999,143.565
336,0.55815,143.64
337,0.559817,143.506
338,0.561483,143.506
339,0.56315,143.379
340,0.564817,143.655
341,0.5664670000000001,143.692
342,0.568133,143.692
343,0.5698,143.833
344,0.5714669999999999,143.789
345,0.573133,143.528
346,0.5748,143.528
347,0.576467,143.364
348,0.578133,143.155
349,0.5798,142.969
350,0.581467,142.969
351,0.583133,143.074
352,0.5848,143.23
353,0.586467,143.23
354,0.588133,142.954
355,0.5898,143.088
356,0.591467,143.044
357,0.593133,143.044
358,0.5948,142.835
359,0.596517,143.066
360,0.59815,143.208
361,0.5998,143.208
362,0.601467,143.096
363,0.603133,143.193
364,0.6048,143.2
365,0.606467,143.2
366,0.608133,142.768
367,0.6098,142.865
368,0.611467,142.865
369,0.61315,143.044
370,0.6148,143.126
371,0.616467,143.491
372,0.618133,143.491
373,0.6198,143.394
374,0.621467,143.178
375,0.623133,143.252
376,0.6248,143.252
377,0.62645,143.535
378,0.628117,143.416
379,0.629867,143.416
380,0.63145,143.416
381,0.633117,143.126
382,0.634783,142.694
383,0.63645,142.694
384,0.638117,142.708
385,0.639783,142.656
386,0.64145,142.813
387,0.643117,142.813
388,0.644783,143.014
389,0.64645,143.319
390,0.6481170000000001,143.401
391,0.649783,143.401
392,0.65145,143.126
393,0.6531169999999999,143.118
394,0.654783,142.992
395,0.65645,142.992
396,0.658117,142.947
397,0.659783,143.148
398,0.66145,142.895
399,0.663117,142.895
400,0.664783,142.85
401,0.66645,142.872
402,0.668117,142.872
403,0.669783,142.887
404,0.67145,143.044
405,0.673117,143.327
406,0.674783,143.327
407,0.67645,143.282
408,0.678117,143.208
409,0.679783,143.118
410,0.68145,143.118
411,0.683117,143.096
412,0.684783,143.133
413,0.686483,142.872
414,0.6881,142.872
415,0.689767,143.066
416,0.691433,142.865
417,0.6931,142.865
418,0.694767,142.992
419,0.696433,143.081
420,0.698133,142.887
421,0.699767,142.887
422,0.701433,143.036
423,0.7030999999999999,142.977
424,0.704767,143.163
425,0.706433,143.163
426,0.7081,143.267
427,0.709767,143.081
428,0.711433,142.91
429,0.7131,142.91
430,0.7148330000000001,142.701
431,0.716433,142.924
432,0.7181,143.178
433,0.719767,143.178
434,0.721433,143.275
435,0.7231,143.468
436,0.7247670000000001,143.468
437,0.726433,143.074
438,0.7281,142.761
439,0.7297670000000001,142.872
440,0.731433,142.872
441,0.7331,142.768
442,0.7347669999999999,142.731
443,0.736433,142.895
444,0.7381,142.895
445,0.739767,143.155
446,0.741433,143.237
447,0.7431,143.021
448,0.744767,143.021
449,0.746417,142.79
450,0.7482,142.53
451,0.74975,142.53
452,0.751417,142.649
453,0.7530829999999999,142.962
454,0.75475,142.604
455,0.756417,142.604
456,0.758083,142.612
457,0.75975,142.507
458,0.761417,142.559
459,0.763083,142.559
460,0.76475,142.999
461,0.766417,142.805
462,0.7680670000000001,142.984
463,0.769733,142.984
464,0.771417,142.895
465,0.773083,143.044
466,0.774767,143.096
467,0.7764,143.096
468,0.778067,142.671
469,0.779733,142.798
470,0.7814,142.798
471,0.783067,142.507
472,0.784733,142.559
473,0.7864,142.843
474,0.788083,142.843
475,0.789733,142.604
476,0.7914,142.395
477,0.793067,142.358
478,0.794733,142.358
479,0.7964,142.448
480,0.798067,142.671
481,0.799733,143.036
482,0.8014,143.036
483,0.803067,143.036
484,0.804733,142.902
485,0.8064,142.902
486,0.80805,142.671
487,0.809717,142.597
488,0.811383,142.805
489,0.8130500000000001,142.805
490,0.814717,143.059
491,0.816383,143.364
492,0.8180500000000001,143.535
493,0.819717,143.535
494,0.821383,143.066
495,0.8230499999999999,142.656
496,0.824717,142.619
497,0.826383,142.619
498,0.82805,142.388
499,0.829717,142.597
500,0.831383,142.597
501,0.8331,142.41
502,0.834717,142.351
503,0.836383,142.463
504,0.83805,142.463
505,0.839717,142.567
506,0.841383,142.671
507,0.84305,142.589
508,0.844733,142.589
509,0.846383,142.545
510,0.848083,142.5
511,0.8497670000000001,142.612
512,0.851383,142.612
513,0.85305,142.604
514,0.8547169999999999,142.53
515,0.856383,142.366
516,0.85805,142.366
517,0.859717,142.649
518,0.861383,142.641
519,0.86305,142.641
520,0.8647,142.88
521,0.8663999999999999,143.334
522,0.8680330000000001,143.074
523,0.8697,143.074
524,0.871367,142.917
525,0.8730329999999999,142.895
526,0.8747,142.463
527,0.876367,142.463
528,0.878033,142.254
529,0.8797,142.515
530,0.881367,142.328
531,0.883033,142.328
532,0.8847,142.41
533,0.886367,142.708
534,0.888033,142.708
535,0.8897,142.634
536,0.891367,142.708
537,0.893033,142.775
538,0.8947000000000001,142.775
539,0.896367,142.805
540,0.898033,142.932
541,0.8997000000000001,142.746
542,0.901367,142.746
543,0.903033,142.783
544,0.9046999999999999,142.768
545,0.906367,142.477
546,0.908033,142.477
547,0.9097,142.403
548,0.911367,142.209
549,0.913033,142.202
550,0.9147,142.202
551,0.916367,142.366
552,0.918033,142.306
553,0.9197,142.306
554,0.9214,142.381
555,0.92305,142.336
556,0.9247,142.299
557,0.92635,142.299
558,0.928017,142.522
559,0.929683,142.284
560,0.93135,142.053
561,0.933017,142.053
562,0.934683,141.807
563,0.93635,141.762
564,0.938017,141.986
565,0.939683,141.986
566,0.94135,141.941
567,0.943017,142.299
568,0.9446830000000001,142.299
569,0.94635,142.224
570,0.948017,142.448
571,0.9496830000000001,142.634
572,0.95135,142.634
573,0.953017,142.187
574,0.9546829999999999,142.12
575,0.95635,142.045
576,0.958017,142.045
577,0.959683,142.403
578,0.96135,142.656
579,0.963017,142.559
580,0.964683,142.559
581,0.96635,142.492
582,0.968083,142.336
583,0.969683,142.664
584,0.97135,142.664
585,0.973017,142.947
586,0.974683,142.761
587,0.9763500000000001,142.761
588,0.978017,142.731
589,0.979683,142.44
590,0.9813499999999999,142.537
591,0.983017,142.537
592,0.9847669999999999,142.656
593,0.986333,142.783
594,0.988,142.708
595,0.989667,142.708
596,0.991333,142.626
597,0.993,142.656
598,0.994667,142.604
599,0.996333,142.604
600,0.998,142.463
601,0.999733,142.418
602,1.001417,142.418
603,1.003,142.418
604,1.004667,142.232
605,1.006333,142.388
606,1.008,142.388
607,1.009667,142.291
608,1.011333,142.254
609,1.013,142.328
610,1.014667,142.328
611,1.01635,142.157
612,1.018,142.06
613,1.019667,142.418
614,1.021333,142.418
615,1.023,142.381
616,1.024667,142.738
617,1.026333,143.014
618,1.028,143.014
619,1.029667,142.492
620,1.031333,142.254
621,1.033,142.254
622,1.034667,142.202
623,1.036333,141.993
624,1.038,142.284
625,1.039667,142.284
626,1.041333,142.284
627,1.043,142.232
628,1.044667,142.142
629,1.046317,142.142
630,1.047983,142.127
631,1.04965,142.343
632,1.051317,142.284
633,1.052983,142.284
634,1.05465,142.336
635,1.056317,142.388
636,1.057983,142.388
637,1.059633,142.232
638,1.0613,141.986
639,1.063033,142.291
640,1.064633,142.291
641,1.0663,141.978
642,1.067967,142.053
643,1.06965,142.552
644,1.0713,142.552
645,1.072967,142.5
646,1.074633,142.567
647,1.0763,142.455
648,1.077967,142.455
649,1.079633,142.328
650,1.0813,142.254
651,1.082967,142.254
652,1.084633,142.455
653,1.086367,142.41
654,1.087967,142.463
655,1.089633,142.463
656,1.0913,142.507
657,1.092967,142.477
658,1.094633,142.597
659,1.0963,142.597
660,1.097967,142.522
661,1.099633,142.403
662,1.1013,142.276
663,1.103033,142.276
664,1.104617,142.463
665,1.106283,142.187
666,1.10795,142.336
667,1.109617,142.336
668,1.111283,142.284
669,1.11295,142.261
670,1.114617,142.261
671,1.116283,142.664
672,1.11795,142.701
673,1.119717,142.589
674,1.121283,142.589
675,1.12295,142.694
676,1.124617,142.485
677,1.126283,142.321
678,1.12795,142.321
679,1.129617,142.321
680,1.131283,141.971
681,1.13295,142.15
682,1.134617,142.15
683,1.136283,142.135
684,1.13795,142.112
685,1.139617,142.112
686,1.141333,142.336
687,1.142967,142.075
688,1.144617,142.239
689,1.146283,142.239
690,1.14795,142.328
691,1.149617,142.418
692,1.151283,142.552
693,1.15295,142.552
694,1.154617,142.269
695,1.156283,142.425
696,1.15795,142.187
697,1.159617,142.187
698,1.161283,142.135
699,1.16295,142.336
700,1.164617,142.381
701,1.166267,142.381
702,1.167933,142.559
703,1.1696,142.522
704,1.171267,142.522
705,1.172933,142.463
706,1.1746,142.522
707,1.176267,142.477
708,1.177933,142.477
709,1.1796,142.664
710,1.181267,143.059
711,1.182933,142.977
712,1.1846,142.977
713,1.186267,142.843
714,1.187933,142.708
715,1.1896,142.477
716,1.191283,142.477
717,1.192933,142.589
718,1.1946,142.932
719,1.196267,142.932
720,1.197933,142.999
721,1.1996,143.155
722,1.201267,143.029
723,1.202933,143.029
724,1.20465,142.85
725,1.206267,142.917
726,1.207933,142.783
727,1.2096,142.783
728,1.2113,142.88
729,1.213033,142.91
730,1.2146,143.096
731,1.216267,143.096
732,1.217933,143.051
733,1.2196,142.865
734,1.221317,142.954
735,1.222933,142.954
736,1.2246,142.708
737,1.22625,142.775
738,1.227917,142.775
739,1.229583,142.992
740,1.23125,142.999
741,1.232917,143.319
742,1.234583,143.319
743,1.23625,143.267
744,1.237917,143.185
745,1.239583,142.835
746,1.24125,142.835
747,1.242917,142.455
748,1.244583,142.53
749,1.24625,142.708
750,1.247917,142.708
751,1.249583,143.237
752,1.25125,143.468
753,1.252917,143.468
754,1.254583,143.625
755,1.25625,143.67
756,1.257917,143.468
757,1.259583,143.468
758,1.26125,143.446
759,1.262917,143.632
760,1.264583,143.729
761,1.26625,143.729
762,1.267917,143.878
763,1.269583,143.766
764,1.27125,143.677
765,1.272917,143.677
766,1.274583,143.543
767,1.27625,143.483
768,1.277917,143.483
769,1.279583,143.662
770,1.281283,143.394
771,1.282917,143.327
772,1.284617,143.327
773,1.286233,143.17
774,1.2879,143.349
775,1.289567,143.513
776,1.291233,143.513
777,1.2929,143.878
778,1.294567,144.459
779,1.296233,144.467
780,1.2979,144.467
781,1.299567,144.69
782,1.301233,144.817
783,1.3029,144.288
784,1.304567,144.288
785,1.306233,144.005
786,1.3079,143.789
787,1.309567,143.789
788,1.311233,143.684
789,1.3129,144.176
790,1.314567,144.4
791,1.316233,144.4
792,1.3179,144.742
793,1.319567,144.593
794,1.321233,144.549
795,1.3229,144.549
796,1.324567,144.75
797,1.326233,144.541
798,1.3279,144.482
799,1.329567,144.482
800,1.331233,144.787
801,1.3329,144.72
802,1.334567,144.72
803,1.336233,145.026
804,1.3379,145.301
805,1.339567,144.951
806,1.341233,144.951
807,1.3429,145.182
808,1.344567,145.346
809,1.346217,145.569
810,1.347883,145.569
811,1.34955,145.748
812,1.3512,145.607
813,1.352867,145.674
814,1.354533,145.674
815,1.3563,145.674
816,1.357867,145.815
817,1.35955,146.329
818,1.361283,146.329
819,1.362867,146.27
820,1.364533,146.352
821,1.366217,146.352
822,1.367867,146.478
823,1.369533,146.464
824,1.3712,146.635
825,1.372867,146.635
826,1.374533,146.545
827,1.3762,146.538
828,1.377867,146.501
829,1.379533,146.501
830,1.3812,146.426
831,1.382867,146.732
832,1.384533,146.657
833,1.3862,146.657
834,1.387867,146.59
835,1.389533,146.709
836,1.3912,146.709
837,1.392867,146.724
838,1.394533,146.866
839,1.3962,147.007
840,1.397867,147.007
841,1.399533,147.209
842,1.4012,147.387
843,1.402867,147.82
844,1.404533,147.82
845,1.406183,147.991
846,1.40785,147.782
847,1.409517,147.551
848,1.411183,147.551
849,1.41285,147.313
850,1.414517,147.291
851,1.416183,147.291
852,1.41785,147.671
853,1.419517,147.983
854,1.421183,148.289
855,1.42285,148.289
856,1.424533,148.498
857,1.426183,148.192
858,1.427883,147.998
859,1.42955,147.998
860,1.431183,147.73
861,1.43285,147.931
862,1.434517,148.408
863,1.436183,148.408
864,1.43785,148.55
865,1.439517,148.632
866,1.44125,148.43
867,1.44285,148.43
868,1.444517,148.326
869,1.446183,148.475
870,1.44785,148.475
871,1.449517,148.721
872,1.451183,148.699
873,1.45285,148.684
874,1.454517,148.684
875,1.456183,148.9
876,1.45785,148.959
877,1.459517,149.228
878,1.461183,149.228
879,1.46285,149.645
880,1.464517,149.637
881,1.466167,149.697
882,1.467833,149.697
883,1.4695,150.077
884,1.471167,149.891
885,1.472833,149.891
886,1.474633,149.861
887,1.476167,150.032
888,1.477833,149.891
889,1.4795,149.891
890,1.481167,150.047
891,1.482833,150.226
892,1.4845,150.33
893,1.486167,150.33
894,1.487833,150.405
895,1.4895,150.546
896,1.491167,150.755
897,1.492833,150.755
898,1.4945,150.859
899,1.496167,151.098
900,1.497833,151.202
901,1.4995,151.202
902,1.501167,151.448
903,1.502833,151.455
904,1.504517,151.455
905,1.506217,151.09
906,1.507833,151.381
907,1.5095,151.478
908,1.511167,151.478
909,1.512833,151.962
910,1.5145,152.476
911,1.516167,152.521
912,1.517833,152.521
913,1.5195,152.692
914,1.521167,152.417
915,1.522833,152.394
916,1.5245,152.394
917,1.52615,152.349
918,1.527817,152.282
919,1.529483,152.282
920,1.53115,152.826
921,1.532817,153.221
922,1.534483,153.236
923,1.53615,153.236
924,1.537817,153.05
925,1.539483,152.707
926,1.54115,152.491
927,1.542817,152.491
928,1.544483,152.767
929,1.54615,153.117
930,1.547817,153.258
931,1.549483,153.258
932,1.55115,153.236
933,1.552817,153.206
934,1.554483,153.132
935,1.55615,153.132
936,1.557817,153.281
937,1.559533,153.407
938,1.56115,153.407
939,1.562817,153.296
940,1.564483,153.46
941,1.56615,153.579
942,1.567817,153.579
943,1.569483,153.959
944,1.57115,154.309
945,1.572817,154.838
946,1.574483,154.838
947,1.57615,154.972
948,1.57785,154.831
949,1.579567,154.868
950,1.58115,154.868
951,1.582817,154.652
952,1.584483,154.972
953,1.586133,154.972
954,1.5878,155.084
955,1.589467,155.24
956,1.591133,155.285
957,1.592917,155.285
958,1.594483,154.942
959,1.596133,155.233
960,1.5978,155.337
961,1.599467,155.337
962,1.601133,155.747
963,1.6028,156.119
964,1.604467,156.328
965,1.606133,156.328
