"ID","sea_time","fid_signal"
1,0,140.235
2,0.00165,140.235
3,0.003317,140.458
4,0.004983,140.339
5,0.00665,139.914
6,0.008317,139.914
7,0.009983000000000001,139.467
8,0.01165,139.385
9,0.013433,139.281
10,0.014983,139.281
11,0.01665,139.609
12,0.018317,139.944
13,0.019983,139.855
14,0.02165,139.855
15,0.023317,139.81
16,0.024983,139.736
17,0.02665,139.736
18,0.028317,139.87
19,0.029983,139.922
20,0.03165,139.982
21,0.033317,139.982
22,0.034983,139.669
23,0.03665,139.326
24,0.038317,139.467
25,0.04,139.467
26,0.04165,139.587
27,0.043317,139.527
28,0.044983,139.639
29,0.04665,139.639
30,0.0483,139.728
31,0.049967,139.706
32,0.051633,139.773
33,0.0533,139.773
34,0.054967,139.743
35,0.056633,139.244
36,0.0583,139.244
37,0.059967,138.909
38,0.061633,139.065
39,0.0633,139.028
40,0.064967,139.028
41,0.066633,139.333
42,0.0683,139.661
43,0.069967,139.892
44,0.071633,139.892
45,0.0733,140.131
46,0.07496700000000001,140.063
47,0.07663300000000001,139.847
48,0.07829999999999999,139.847
49,0.079967,139.736
50,0.08165,139.795
51,0.0833,139.795
52,0.084967,140.026
53,0.086633,140.131
54,0.0883,140.078
55,0.08996700000000001,140.078
56,0.09163300000000001,140.026
57,0.09329999999999999,139.803
58,0.094967,140.004
59,0.096633,140.004
60,0.09835000000000001,139.9
61,0.099967,139.683
62,0.101633,139.646
63,0.1033,139.646
64,0.104967,139.385
65,0.10665,139.318
66,0.108283,139.296
67,0.10995,139.296
68,0.111617,139.318
69,0.113283,139.169
70,0.115033,139.169
71,0.116617,139.304
72,0.118283,139.393
73,0.11995,139.393
74,0.121617,139.393
75,0.123283,139.579
76,0.12495,139.534
77,0.126617,139.482
78,0.1283,139.482
79,0.12995,139.78
80,0.13165,139.959
81,0.133283,139.922
82,0.13495,139.922
83,0.136617,139.996
84,0.138283,139.713
85,0.13995,139.713
86,0.141617,139.527
87,0.143283,139.52
88,0.14495,139.654
89,0.146617,139.654
90,0.1484,139.616
91,0.14995,139.691
92,0.151617,139.952
93,0.153283,139.952
94,0.15495,139.698
95,0.156617,139.624
96,0.158283,139.542
97,0.15995,139.542
98,0.161617,139.229
99,0.163283,139.318
100,0.164933,139.318
101,0.1666,139.46
102,0.168283,139.683
103,0.169933,140.071
104,0.1716,140.071
105,0.173267,140.108
106,0.174933,140.145
107,0.1766,139.937
108,0.178267,139.937
109,0.179933,139.669
110,0.181667,139.654
111,0.183267,139.795
112,0.184933,139.795
113,0.1866,140.011
114,0.188267,140.011
115,0.189933,140.242
116,0.1916,140.242
117,0.193267,140.034
118,0.194933,139.706
119,0.1966,139.706
120,0.198267,139.631
121,0.199933,139.341
122,0.2016,139.549
123,0.203267,139.549
124,0.204933,139.564
125,0.2066,139.579
126,0.208267,139.52
127,0.209933,139.52
128,0.2116,139.512
129,0.213267,139.698
130,0.214933,140.004
131,0.2166,140.004
132,0.218267,139.974
133,0.219933,139.989
134,0.2216,139.989
135,0.223267,139.773
136,0.224933,139.333
137,0.226583,139.467
138,0.22825,139.467
139,0.229917,139.199
140,0.231583,139.534
141,0.233283,139.691
142,0.234917,139.691
143,0.236583,139.914
144,0.23825,140.131
145,0.239917,139.818
146,0.241583,139.818
147,0.24325,140.063
148,0.244917,140.093
149,0.246583,140.063
150,0.24825,140.063
151,0.249933,140.257
152,0.2516,140.011
153,0.25325,140.011
154,0.254917,139.877
155,0.256583,139.788
156,0.25825,139.564
157,0.259917,139.564
158,0.261583,139.4
159,0.26325,139.438
160,0.264917,139.244
161,0.26665,139.244
162,0.26825,139.445
163,0.269917,139.616
164,0.271567,139.505
165,0.273233,139.505
166,0.2749,139.691
167,0.276567,139.572
168,0.278233,139.572
169,0.2799,139.497
170,0.281567,139.378
171,0.283233,139.274
172,0.2849,139.274
173,0.286567,139.154
174,0.288217,139.117
175,0.289883,139.527
176,0.29155,139.527
177,0.293217,139.698
178,0.294883,139.944
179,0.29655,140.004
180,0.298217,140.004
181,0.299883,139.646
182,0.30155,139.587
183,0.303233,139.646
184,0.304883,139.646
185,0.30655,139.959
186,0.308217,140.004
187,0.309883,140.004
188,0.31155,140.034
189,0.313217,140.078
190,0.314883,139.728
191,0.31655,139.728
192,0.318217,139.624
193,0.3199,139.587
194,0.32155,139.661
195,0.32325,139.661
196,0.324883,139.989
197,0.32655,140.198
198,0.328217,140.414
199,0.329883,140.414
200,0.33155,140.198
201,0.333217,139.825
202,0.334883,139.825
203,0.33655,139.736
204,0.338217,139.4
205,0.339883,139.333
206,0.34155,139.333
207,0.343217,139.602
208,0.344883,139.691
209,0.34655,139.818
210,0.3482,139.818
211,0.349867,140.078
212,0.351533,140.101
213,0.3532,139.989
214,0.354867,139.989
215,0.356533,139.803
216,0.3582,139.542
217,0.359867,139.542
218,0.361533,139.43
219,0.3632,139.49
220,0.364867,139.929
221,0.366533,139.929
222,0.368217,140.205
223,0.369867,140.429
224,0.371533,140.421
225,0.3732,140.421
226,0.374867,140.376
227,0.376533,139.967
228,0.3782,139.46
229,0.379867,139.46
230,0.381533,139.609
231,0.3832,139.52
232,0.384983,139.877
233,0.386533,139.877
234,0.3882,140.421
235,0.389867,140.198
236,0.391533,140.198
237,0.3932,140.384
238,0.394867,140.287
239,0.396533,140.175
240,0.3982,140.175
241,0.399867,140.429
242,0.401567,140.175
243,0.403267,140.108
244,0.404867,140.108
245,0.406517,140.004
246,0.408183,140.019
247,0.40985,140.354
248,0.411517,140.354
249,0.413183,140.57
250,0.41485,140.443
251,0.416517,140.443
252,0.418183,140.28
253,0.41985,140.123
254,0.421517,140.421
255,0.423183,140.421
256,0.42485,140.943
257,0.426517,141.285
258,0.428183,141.613
259,0.42985,141.613
260,0.431517,141.896
261,0.433183,142.016
262,0.43485,142.157
263,0.436517,142.157
264,0.438183,142.299
265,0.43985,142.597
266,0.441517,143.386
267,0.443183,143.386
268,0.44485,144.31
269,0.446517,145.316
270,0.448183,145.316
271,0.44985,146.158
272,0.451517,147.194
273,0.453183,148.334
274,0.45485,148.334
275,0.456517,149.712
276,0.458183,151.373
277,0.45985,153.288
278,0.461517,153.288
279,0.463183,155.59
280,0.46485,158.258
281,0.4665,160.947
282,0.468167,160.947
283,0.4699,163.794
284,0.471567,166.692
285,0.473167,166.692
286,0.474833,169.627
287,0.4765,172.861
288,0.478167,176.363
289,0.479833,176.363
290,0.4815,180.2
291,0.483167,184.387
292,0.484833,188.544
293,0.4865,188.544
294,0.488167,192.53
295,0.489833,196.718
296,0.4915,200.711
297,0.493167,200.711
298,0.494833,204.98
299,0.4965,209.339
300,0.498167,213.891
301,0.499833,213.891
302,0.5014999999999999,218.578
303,0.503267,223.1
304,0.504833,223.1
305,0.5065,227.436
306,0.508167,231.482
307,0.509833,235.632
308,0.5115,235.632
309,0.513167,239.64
310,0.514833,243.91
311,0.5165,247.903
312,0.518167,247.903
313,0.519833,251.502
314,0.5215,255.525
315,0.523167,259.303
316,0.524833,259.303
317,0.5265,263.222
318,0.52815,267.267
319,0.529817,267.267
320,0.5315,270.724
321,0.53315,274.129
322,0.534817,277.512
323,0.536483,277.512
324,0.53815,280.373
325,0.539817,283.562
326,0.541483,286.281
327,0.54315,286.281
328,0.544817,288.695
329,0.546533,291.303
330,0.548183,293.642
331,0.549817,293.642
332,0.5514829999999999,296.481
333,0.55315,299.171
334,0.554817,301.935
335,0.5564829999999999,301.935
336,0.55815,304.49
337,0.559817,306.45
338,0.561483,306.45
339,0.563133,308.335
340,0.5648,310.212
341,0.5664670000000001,311.77
342,0.568133,311.77
343,0.5698,313.647
344,0.5714669999999999,315.323
345,0.573133,316.568
346,0.5748,316.568
347,0.576467,318.244
348,0.578133,319.555
349,0.5798,321.172
350,0.581467,321.172
351,0.583133,322.625
352,0.5848,323.378
353,0.586467,323.378
354,0.5881999999999999,324.212
355,0.5897829999999999,324.771
356,0.59145,325.345
357,0.593117,325.345
358,0.594783,326.142
359,0.59645,327.237
360,0.598117,328.258
361,0.599783,328.258
362,0.60145,329.033
363,0.603117,330.068
364,0.604783,330.351
365,0.60645,330.351
366,0.608117,330.783
367,0.609783,331.551
368,0.61145,331.551
369,0.613117,332.013
370,0.614783,332.959
371,0.6164500000000001,333.719
372,0.618117,333.719
373,0.619783,334.173
374,0.621533,334.367
375,0.623117,334.524
376,0.624783,334.524
377,0.62645,334.591
378,0.628117,334.896
379,0.629783,335.127
380,0.63145,335.127
381,0.633117,335.142
382,0.634783,335.202
383,0.63645,335.06
384,0.638117,335.06
385,0.639783,335.224
386,0.64145,335.515
387,0.643117,335.515
388,0.644783,335.552
389,0.646433,335.649
390,0.6481,335.477
391,0.649767,335.477
392,0.651433,335.239
393,0.6531,335.261
394,0.654767,335.008
395,0.656433,335.008
396,0.6581,335.097
397,0.659767,335.239
398,0.661433,335.12
399,0.6631,335.12
400,0.664767,335.269
401,0.6664330000000001,335.47
402,0.6681,335.47
403,0.669767,335.06
404,0.6714329999999999,335.075
405,0.6731,334.933
406,0.674767,334.933
407,0.676433,334.553
408,0.6781,334.576
409,0.679767,334.367
410,0.681433,334.367
411,0.6831,334.255
412,0.684767,334.278
413,0.686433,333.995
414,0.6881,333.995
415,0.689767,333.764
416,0.691433,333.413
417,0.6931,333.101
418,0.6948,333.101
419,0.696433,332.996
420,0.6981000000000001,332.564
421,0.699767,332.564
422,0.701467,332.11
423,0.7030999999999999,331.409
424,0.704767,330.94
425,0.7065,330.94
426,0.708083,330.694
427,0.70975,330.664
428,0.711417,330.754
429,0.713083,330.754
430,0.71475,330.441
431,0.716417,330.076
432,0.718083,329.353
433,0.71975,329.353
434,0.721417,328.675
435,0.723083,328.407
436,0.72475,328.407
437,0.726417,327.96
438,0.728083,327.982
439,0.72975,327.632
440,0.731417,327.632
441,0.733083,327.006
442,0.73475,326.551
443,0.736417,325.933
444,0.738083,325.933
445,0.73985,325.441
446,0.741417,324.897
447,0.743083,324.853
448,0.74475,324.853
449,0.746417,324.681
450,0.7480830000000001,324.465
451,0.74975,324.205
452,0.751417,324.205
453,0.7530829999999999,323.407
454,0.75475,322.774
455,0.756417,322.774
456,0.758083,322.23
457,0.75975,321.649
458,0.761417,321.254
459,0.763083,321.254
460,0.76475,320.703
461,0.7664,320.256
462,0.7680670000000001,320.114
463,0.769733,320.114
464,0.7714,319.98
465,0.7731170000000001,319.622
466,0.774733,319.481
467,0.7764,319.481
468,0.778067,318.944
469,0.779733,318.453
470,0.7814,318.453
471,0.783067,318.408
472,0.784733,317.901
473,0.7864,317.574
474,0.788067,317.574
475,0.789733,317.164
476,0.7914,316.53
477,0.793083,316.061
478,0.794733,316.061
479,0.7964,315.577
480,0.798067,315.018
481,0.799733,314.474
482,0.8014,314.474
483,0.803067,314.049
484,0.804733,313.9
485,0.8064,313.9
486,0.808067,313.751
487,0.809733,313.58
488,0.8114,313.126
489,0.813067,313.126
490,0.814733,312.492
491,0.8164,312.045
492,0.818067,311.799
493,0.819733,311.799
494,0.8214,311.702
495,0.823067,311.546
496,0.824717,311.017
497,0.8264,311.017
498,0.82805,310.048
499,0.829717,309.259
500,0.831383,308.625
501,0.83305,308.625
502,0.834717,308.484
503,0.836383,308.312
504,0.83805,308.312
505,0.83975,307.806
506,0.84145,307.404
507,0.84305,306.755
508,0.8447170000000001,306.755
509,0.846383,306.189
510,0.84805,305.876
511,0.8497169999999999,305.325
512,0.851383,305.325
513,0.85305,304.967
514,0.8547,304.721
515,0.856367,304.49
516,0.858133,304.49
517,0.8597,304.297
518,0.861367,303.499
519,0.8630330000000001,303.499
520,0.8647,302.978
521,0.866367,302.3
522,0.8680330000000001,301.622
523,0.8697,301.622
524,0.871367,301.644
525,0.8730329999999999,301.212
526,0.8747,300.936
527,0.876367,300.936
528,0.878033,300.743
529,0.8797,300.296
530,0.8814,299.998
531,0.883033,299.998
532,0.8847,299.588
533,0.886367,299.275
534,0.8880169999999999,298.664
535,0.889683,298.664
536,0.89135,298.269
537,0.8930169999999999,298.15
538,0.894683,298.15
539,0.89635,298.031
540,0.898017,297.733
541,0.899683,297.435
542,0.90135,297.435
543,0.903017,296.846
544,0.904683,295.848
545,0.90635,295.222
546,0.908017,295.222
547,0.909683,294.849
548,0.9113830000000001,294.32
549,0.913017,294.097
550,0.914683,294.097
551,0.91635,293.903
552,0.918017,293.225
553,0.919683,293.225
554,0.92135,293.009
555,0.923017,292.584
556,0.924683,292.145
557,0.92635,292.145
558,0.928017,291.869
559,0.929683,291.251
560,0.93135,290.848
561,0.933017,290.848
562,0.9347,290.729
563,0.93635,290.267
564,0.938017,290.073
565,0.939683,290.073
566,0.94135,290.014
567,0.9429999999999999,289.433
568,0.9446830000000001,289.433
569,0.946333,289.15
570,0.948,288.695
571,0.949667,288.062
572,0.951333,288.062
573,0.953,288.054
574,0.954667,287.928
575,0.956333,287.727
576,0.958,287.727
577,0.95975,287.63
578,0.961333,287.108
579,0.963,286.601
580,0.9646670000000001,286.601
581,0.966367,286.147
582,0.968,285.7
583,0.9696669999999999,285.149
584,0.971333,285.149
585,0.973,284.903
586,0.974667,284.56
587,0.976417,284.15
588,0.978,284.15
589,0.979667,283.852
590,0.981333,283.368
591,0.983,283.368
592,0.984667,283.174
593,0.986333,282.928
594,0.988,282.623
595,0.989667,282.623
596,0.991367,282.116
597,0.9931,281.677
598,0.994667,281.207
599,0.996333,281.207
600,0.998,280.969
601,0.999667,280.678
602,1.001333,280.678
603,1.003,280.261
604,1.004667,279.903
605,1.006317,279.486
606,1.007983,279.486
607,1.00965,279.389
608,1.011317,278.965
609,1.012983,278.965
610,1.01465,278.965
611,1.016317,278.6
612,1.017983,277.944
613,1.01965,277.72
614,1.021317,277.72
615,1.022983,277.221
616,1.02465,276.96
617,1.026317,276.811
618,1.027983,276.811
619,1.02965,276.461
620,1.031317,275.835
621,1.032983,275.835
622,1.03465,275.321
623,1.036317,274.792
624,1.037983,274.383
625,1.03965,274.383
626,1.041317,273.98
627,1.042983,273.846
628,1.04465,273.697
629,1.046317,273.697
630,1.048,273.325
631,1.04965,273.213
632,1.051317,273.012
633,1.052983,273.012
634,1.05465,272.9
635,1.056333,272.706
636,1.057983,272.706
637,1.05965,272.445
638,1.061317,272.051
639,1.062983,271.738
640,1.06465,271.738
641,1.0663,271.633
642,1.067967,271.41
643,1.069633,270.918
644,1.0713,270.918
645,1.072967,270.322
646,1.074633,270.046
647,1.0763,269.592
648,1.078,269.592
649,1.079633,269.137
650,1.0813,268.854
651,1.082967,268.34
652,1.084633,268.34
653,1.0863,268.094
654,1.087967,268.012
655,1.089633,268.012
656,1.0913,267.781
657,1.092967,267.431
658,1.0947,267.014
659,1.0963,267.014
660,1.097967,266.507
661,1.099633,266.09
662,1.1013,265.665
663,1.102967,265.665
664,1.104633,265.285
665,1.1063,264.95
666,1.107967,264.943
667,1.109633,264.943
668,1.111417,264.712
669,1.112967,264.63
670,1.114633,264.63
671,1.1163,264.615
672,1.117967,264.049
673,1.119633,264.004
674,1.1213,264.004
675,1.122967,263.467
676,1.124633,263.095
677,1.1263,262.849
678,1.12795,262.849
679,1.129617,262.462
680,1.131283,262.409
681,1.13295,261.836
682,1.134667,261.836
683,1.136333,261.314
684,1.138033,260.89
685,1.139617,260.346
686,1.141283,260.346
687,1.14295,260.159
688,1.144617,259.951
689,1.146267,259.951
690,1.147933,259.668
691,1.1496,259.399
692,1.151267,259.221
693,1.152933,259.221
694,1.1546,259.057
695,1.156267,258.572
696,1.157933,258.49
697,1.1596,258.49
698,1.161267,258.341
699,1.162933,258.245
700,1.1646,258.2
701,1.166267,258.2
702,1.167933,257.738
703,1.1696,257.336
704,1.171267,257.336
705,1.172933,256.836
706,1.1746,256.628
707,1.176267,256.635
708,1.177933,256.635
709,1.1796,256.218
710,1.181267,255.942
711,1.182933,255.704
712,1.1846,255.704
713,1.18625,255.22
714,1.187917,255.272
715,1.189583,254.884
716,1.19125,254.884
717,1.192917,254.318
718,1.194583,253.938
719,1.196267,253.938
720,1.197917,253.335
721,1.199583,253.513
722,1.20125,253.528
723,1.202917,253.528
724,1.204633,253.417
725,1.20625,253.193
726,1.207917,252.657
727,1.209583,252.657
728,1.21125,252.232
729,1.212933,251.807
730,1.214583,251.479
731,1.21625,251.479
732,1.217917,251.129
733,1.219583,250.995
734,1.22125,250.973
735,1.222917,250.973
736,1.224583,250.868
737,1.22625,250.794
738,1.227917,250.794
739,1.2297,250.354
740,1.23125,249.982
741,1.232917,249.855
742,1.234583,249.855
743,1.23625,249.498
744,1.237917,249.52
745,1.239583,249.289
746,1.24125,249.289
747,1.242917,249.065
748,1.244583,249.006
749,1.24625,248.298
750,1.2479,248.298
751,1.249567,248.142
752,1.251233,247.747
753,1.2529,247.747
754,1.254567,247.434
755,1.256233,247.546
756,1.2579,247.173
757,1.259567,247.173
758,1.261233,246.853
759,1.2629,246.376
760,1.264567,246.197
761,1.266233,246.197
762,1.2679,246.182
763,1.269567,245.966
764,1.271233,245.661
765,1.2729,245.661
766,1.274583,245.385
767,1.276267,245.035
768,1.2779,244.685
769,1.279567,244.685
770,1.281233,244.491
771,1.2829,243.977
772,1.284567,243.977
773,1.286283,243.448
774,1.2879,243.373
775,1.289567,243.165
776,1.291233,243.165
777,1.2929,243.135
778,1.294567,242.844
779,1.296233,242.732
780,1.2979,242.732
781,1.299567,242.516
782,1.301233,242.159
783,1.3029,242.136
784,1.304567,242.136
785,1.306217,241.727
786,1.307883,241.652
787,1.30955,241.652
788,1.311217,241.384
789,1.312883,240.989
790,1.314617,240.617
791,1.316217,240.617
792,1.317883,240.326
793,1.31955,240.393
794,1.321217,240.415
795,1.322883,240.415
796,1.32455,240.095
797,1.326217,239.804
798,1.327883,239.164
799,1.32955,239.164
800,1.331217,238.732
801,1.332883,238.404
802,1.33455,237.845
803,1.336217,237.845
804,1.3379,237.808
805,1.33955,237.629
806,1.341217,237.629
807,1.342883,237.48
808,1.34455,237.525
809,1.346217,237.443
810,1.347983,237.443
811,1.34955,237.107
812,1.351217,236.928
813,1.352883,236.601
814,1.354567,236.601
815,1.356217,236.176
816,1.357883,235.878
817,1.35955,235.751
818,1.361217,235.751
819,1.362883,235.587
820,1.36455,235.513
821,1.3662,235.513
822,1.367867,235.394
823,1.369533,235.148
824,1.3712,234.872
825,1.372867,234.872
826,1.374533,234.447
827,1.376217,234.179
828,1.3779,234.015
829,1.379533,234.015
830,1.3812,233.971
831,1.382867,233.546
832,1.384533,233.166
833,1.3862,233.166
834,1.387867,232.801
835,1.389533,232.406
836,1.3912,232.406
837,1.392867,232.57
838,1.394533,232.428
839,1.3962,232.317
840,1.397867,232.317
841,1.399533,232.287
842,1.4012,232.026
843,1.402867,231.884
844,1.404533,231.884
845,1.4062,231.363
846,1.407867,230.722
847,1.409533,230.394
848,1.4112,230.394
849,1.412867,230.141
850,1.414533,230.35
851,1.4162,230.357
852,1.417867,230.357
853,1.419533,230.141
854,1.4212,230.052
855,1.422883,230.052
856,1.424533,229.552
857,1.4262,229.299
858,1.42785,229.076
859,1.429517,229.076
860,1.431183,228.725
861,1.432933,228.599
862,1.434517,228.614
863,1.436183,228.614
864,1.437833,228.323
865,1.4395,228.271
866,1.441167,228.263
867,1.442833,228.263
868,1.4445,228.196
869,1.446167,228.226
870,1.447833,228.226
871,1.4495,228.196
872,1.451167,227.667
873,1.45285,227.079
874,1.4545,227.079
875,1.456167,226.721
876,1.457833,226.46
877,1.4595,226.535
878,1.461167,226.535
879,1.462833,226.647
880,1.4645,226.647
881,1.466283,226.274
882,1.467833,226.274
883,1.4695,226.036
884,1.471167,225.767
885,1.472833,225.097
886,1.4745,225.097
887,1.476167,224.896
888,1.477833,224.568
889,1.4795,224.568
890,1.481167,224.046
891,1.482833,223.994
892,1.4845,223.935
893,1.486167,223.935
894,1.487817,223.927
895,1.489483,223.927
896,1.49115,224.017
897,1.492817,224.017
898,1.494483,223.741
899,1.49615,223.689
900,1.497817,223.45
901,1.499483,223.45
902,1.501183,223.368
903,1.502817,222.981
904,1.504483,222.981
905,1.50615,222.459
906,1.507817,222.273
907,1.509483,221.819
908,1.51115,221.819
909,1.512833,221.692
910,1.514483,221.774
911,1.51615,221.692
912,1.517817,221.692
913,1.519483,221.476
914,1.52115,221.26
915,1.522817,220.716
916,1.524483,220.716
917,1.52615,220.329
918,1.527817,220.165
919,1.529483,220.269
920,1.53115,220.269
921,1.532817,220.113
922,1.534483,220.016
923,1.53615,220.016
924,1.537867,219.688
925,1.539483,219.3
926,1.54115,219.442
927,1.542817,219.442
928,1.544483,219.285
929,1.54615,219.129
930,1.5478,219.084
931,1.549467,219.084
932,1.551233,218.704
933,1.5528,218.488
934,1.554467,218.309
935,1.556133,218.309
936,1.5578,217.84
937,1.559467,217.684
938,1.561133,217.684
939,1.5628,217.639
940,1.564467,217.482
941,1.566133,217.505
942,1.5678,217.505
943,1.569467,217.155
944,1.571167,216.894
945,1.5728,216.857
946,1.574467,216.857
947,1.576133,216.767
948,1.5778,216.737
949,1.579467,216.506
950,1.581133,216.506
951,1.5828,216.208
952,1.584583,215.776
953,1.586133,215.776
954,1.5878,215.545
955,1.589467,215.359
956,1.591133,215.337
957,1.5928,215.337
958,1.594467,215.18
959,1.596133,215.016
960,1.5978,214.89
961,1.599467,214.89
962,1.601133,214.525
963,1.6028,214.383
964,1.604467,214.137
965,1.606133,214.137
966,1.607783,213.906
967,1.60945,213.347
968,1.611117,212.848
