"ID","sea_time","fid_signal"
1,0,142.992
2,0.001667,142.992
3,0.003333,143.021
4,0.005017,143.103
5,0.0067,143.267
6,0.008317,143.267
7,0.01005,143.26
8,0.01165,142.85
9,0.013317,142.418
10,0.014983,142.418
11,0.01665,142.187
12,0.018317,142.187
13,0.019983,142.448
14,0.02165,142.448
15,0.023317,142.753
16,0.024983,142.567
17,0.02665,142.567
18,0.028317,142.656
19,0.029983,142.768
20,0.03165,142.865
21,0.033317,142.865
22,0.034983,142.939
23,0.03665,142.91
24,0.038317,142.895
25,0.039983,142.895
26,0.04165,142.999
27,0.043433,143.103
28,0.044983,143.208
29,0.04665,143.208
30,0.048317,143.223
31,0.049983,143.066
32,0.05165,142.79
33,0.053317,142.79
34,0.054983,142.88
35,0.05665,142.813
36,0.058317,142.813
37,0.059983,142.679
38,0.06165,142.992
39,0.063317,142.939
40,0.064967,142.939
41,0.066633,143.044
42,0.0683,143.118
43,0.069967,143.059
44,0.071633,143.059
45,0.0733,143.327
46,0.07496700000000001,143.394
47,0.07663300000000001,143.506
48,0.07836700000000001,143.506
49,0.079967,143.461
50,0.081633,143.066
51,0.0833,143.066
52,0.084967,142.835
53,0.086633,142.694
54,0.0883,142.895
55,0.08996700000000001,142.895
56,0.09163300000000001,142.939
57,0.09329999999999999,143.014
58,0.094967,143.155
59,0.096633,143.155
60,0.0983,143.118
61,0.099967,143.074
62,0.101633,143.304
63,0.1033,143.304
64,0.104967,143.2
65,0.106633,143.357
66,0.1083,143.692
67,0.109967,143.692
68,0.111633,143.528
69,0.1133,143.67
70,0.114967,143.67
71,0.116633,143.684
72,0.1183,143.476
73,0.119967,143.483
74,0.121633,143.483
75,0.1233,143.588
76,0.12495,143.267
77,0.126617,143.051
78,0.128283,143.051
79,0.12995,143.26
80,0.131617,143.215
81,0.133283,143.282
82,0.134967,143.282
83,0.136617,143.483
84,0.138283,143.237
85,0.13995,143.237
86,0.141617,143.074
87,0.143283,143.223
88,0.14495,143.237
89,0.146617,143.237
90,0.148283,143.446
91,0.149967,143.655
92,0.151633,143.632
93,0.153283,143.632
94,0.15495,143.565
95,0.156617,143.349
96,0.158283,143.424
97,0.15995,143.424
98,0.161717,143.431
99,0.163283,143.506
100,0.16495,143.26
101,0.166617,143.26
102,0.168283,143.237
103,0.16995,143.379
104,0.171617,143.379
105,0.173283,143.535
106,0.17495,143.96
107,0.176617,143.826
108,0.178283,143.826
109,0.17995,143.588
110,0.181617,143.491
111,0.183283,143.23
112,0.184933,143.23
113,0.1866,143.126
114,0.188267,143.372
115,0.189933,143.655
116,0.1916,143.655
117,0.19325,143.886
118,0.194917,144.102
119,0.196583,144.102
120,0.19825,143.856
121,0.199917,143.67
122,0.201583,143.67
123,0.20325,143.67
124,0.204917,143.751
125,0.206583,143.699
126,0.20825,143.67
127,0.209917,143.67
128,0.211583,143.558
129,0.21325,143.491
130,0.214917,143.453
131,0.216583,143.453
132,0.21825,143.327
133,0.219917,143.521
134,0.2216,143.521
135,0.22325,143.55
136,0.224917,143.61
137,0.226583,143.535
138,0.228267,143.535
139,0.229917,143.521
140,0.231583,143.342
141,0.23325,143.349
142,0.234917,143.349
143,0.236583,143.491
144,0.23825,143.565
145,0.239917,143.498
146,0.241583,143.498
147,0.24325,143.804
148,0.2449,143.93
149,0.246633,143.826
150,0.248233,143.826
151,0.2499,143.886
152,0.251567,143.819
153,0.253233,143.819
154,0.2549,143.58
155,0.256567,143.424
156,0.258233,143.707
157,0.2599,143.707
158,0.261567,143.863
159,0.263333,144.027
160,0.2649,144.273
161,0.266567,144.273
162,0.268233,144.318
163,0.2699,144.02
164,0.271567,143.968
165,0.273233,143.968
166,0.2749,144.027
167,0.276567,143.908
168,0.278233,143.908
169,0.28,143.99
170,0.281567,144.199
171,0.283233,144.318
172,0.2849,144.318
173,0.286567,144.333
174,0.288233,144.593
175,0.2899,144.832
176,0.291567,144.832
177,0.293233,145.033
178,0.2949,145.659
179,0.296567,146.374
180,0.298233,146.374
181,0.299933,147.142
182,0.301567,148.445
183,0.303217,150.144
184,0.304883,150.144
185,0.30655,152.2
186,0.308217,155.084
187,0.3099,155.084
188,0.31155,158.69
189,0.313217,163.391
190,0.314883,169.314
191,0.31655,169.314
192,0.318217,176.243
193,0.319883,184.275
194,0.32155,192.672
195,0.32325,192.672
196,0.324883,201.888
197,0.32655,212.044
198,0.328217,222.407
199,0.329883,222.407
200,0.33155,232.965
201,0.333217,243.485
202,0.334883,243.485
203,0.33655,253.357
204,0.338217,262.357
205,0.339883,271.253
206,0.34155,271.253
207,0.343217,279.196
208,0.344883,286.028
209,0.34655,291.474
210,0.348217,291.474
211,0.349883,295.065
212,0.35155,296.921
213,0.353217,296.831
214,0.354883,296.831
215,0.35655,295.542
216,0.358217,292.86
217,0.359883,292.86
218,0.36155,288.628
219,0.3632,283.405
220,0.36495,277.042
221,0.366533,277.042
222,0.368217,269.718
223,0.369917,261.955
224,0.371533,253.782
225,0.3732,253.782
226,0.374867,245.236
227,0.376533,236.936
228,0.3782,228.591
229,0.379867,228.591
230,0.3816,220.403
231,0.3832,212.938
232,0.384867,205.457
233,0.386533,205.457
234,0.3882,198.551
235,0.389867,192.478
236,0.391533,192.478
237,0.3932,186.689
238,0.394867,181.72
239,0.396533,177.398
240,0.3983,177.398
241,0.399867,173.39
242,0.401533,169.687
243,0.4032,166.491
244,0.404867,166.491
245,0.406533,163.645
246,0.4082,161.268
247,0.4099,159.219
248,0.411533,159.219
249,0.4132,157.475
250,0.414867,155.985
251,0.416533,155.985
252,0.4182,154.488
253,0.419867,153.445
254,0.421533,152.342
255,0.4232,152.342
256,0.42485,151.105
257,0.426517,150.539
258,0.428183,150.01
259,0.42985,150.01
260,0.431517,149.451
261,0.433183,149.205
262,0.43485,148.743
263,0.436517,148.743
264,0.438183,148.065
265,0.43985,147.79
266,0.441517,147.372
267,0.443183,147.372
268,0.44485,147.015
269,0.44655,147.037
270,0.448183,147.037
271,0.44985,146.635
272,0.451517,146.419
273,0.453183,146.292
274,0.45485,146.292
275,0.456517,146.21
276,0.458183,146.493
277,0.45985,146.672
278,0.461517,146.672
279,0.463183,146.672
280,0.46485,146.657
281,0.466517,146.501
282,0.468183,146.501
283,0.46985,146.225
284,0.471517,146.173
285,0.473183,146.173
286,0.47485,146.091
287,0.476517,146.046
288,0.478183,145.994
289,0.47985,145.994
290,0.481517,145.637
291,0.483167,145.286
292,0.484833,144.981
293,0.486483,144.981
294,0.48815,145.227
295,0.489817,145.629
296,0.491483,145.905
297,0.49315,145.905
298,0.494817,146.024
299,0.496483,145.666
300,0.49815,145.525
301,0.4999,145.525
302,0.501483,145.331
303,0.50315,145.316
304,0.504817,145.316
305,0.506483,145.726
306,0.50815,145.838
307,0.509817,146.002
308,0.511483,146.002
309,0.51315,146.076
310,0.514817,145.726
311,0.51655,145.532
312,0.51815,145.532
313,0.519817,145.309
314,0.521483,145.182
315,0.52315,145.182
316,0.524817,145.182
317,0.526483,145.227
318,0.52815,145.532
319,0.529817,145.532
320,0.531483,145.584
321,0.533233,145.92
322,0.534817,145.771
323,0.536483,145.771
324,0.53815,145.614
325,0.539817,145.651
326,0.541483,145.353
327,0.543133,145.353
328,0.5448,145.189
329,0.546467,145.108
330,0.548133,144.951
331,0.5498,144.951
332,0.551467,144.869
333,0.553133,145.011
334,0.5548,145.011
335,0.556467,145.026
336,0.558133,145.093
337,0.5598,145.033
338,0.561467,145.033
339,0.563133,145.078
340,0.5648,145.063
341,0.5664670000000001,145.07
342,0.568133,145.07
343,0.5698,145.204
344,0.5714669999999999,145.204
345,0.573133,145.391
346,0.574833,145.391
347,0.576467,145.607
348,0.578133,145.815
349,0.5798,145.912
350,0.581467,145.912
351,0.583133,145.8
352,0.5848,145.741
353,0.586467,145.741
354,0.588133,145.629
355,0.5898,145.54
356,0.5915,145.391
357,0.593133,145.391
358,0.5948,145.189
359,0.596467,145.502
360,0.598133,145.778
361,0.5998,145.778
362,0.601467,146.151
363,0.603133,146.411
364,0.604783,146.307
365,0.60645,146.307
366,0.608117,146.165
367,0.609783,146.039
368,0.61145,146.039
369,0.613117,146.151
370,0.614783,146.292
371,0.6164500000000001,146.24
372,0.618183,146.24
373,0.619783,146.091
374,0.6214499999999999,145.778
375,0.623117,145.592
376,0.624783,145.592
377,0.62645,145.8
378,0.628117,146.054
379,0.629783,146.27
380,0.63145,146.27
381,0.633117,146.158
382,0.634817,146.322
383,0.63645,146.255
384,0.638117,146.255
385,0.639783,146.195
386,0.64145,146.419
387,0.643117,146.419
388,0.644783,146.285
389,0.64645,146.404
390,0.6481170000000001,146.516
391,0.649783,146.516
392,0.65155,146.322
393,0.6531169999999999,146.478
394,0.654783,146.694
395,0.65645,146.694
396,0.658117,146.843
397,0.659783,147.305
398,0.66145,147.164
399,0.663133,147.164
400,0.664817,146.806
401,0.6664330000000001,146.68
402,0.6681,146.68
403,0.669817,146.598
404,0.6714329999999999,146.739
405,0.6731,147.171
406,0.674767,147.171
407,0.676433,147.186
408,0.6781,146.963
409,0.679767,146.754
410,0.681433,146.754
411,0.6831,146.314
412,0.684767,146.352
413,0.686433,146.598
414,0.6881,146.598
415,0.689767,146.717
416,0.691433,147.082
417,0.6931,147.402
418,0.694767,147.402
419,0.696433,147.298
420,0.6981000000000001,147.581
421,0.699767,147.581
422,0.701433,147.484
423,0.7030999999999999,147.253
424,0.704767,147.223
425,0.706433,147.223
426,0.7081,146.97
427,0.709767,146.851
428,0.711433,146.613
429,0.7131,146.613
430,0.714767,146.754
431,0.716433,146.62
432,0.7181,146.709
433,0.719767,146.709
434,0.721433,146.963
435,0.7231,146.739
436,0.72475,146.739
437,0.726417,146.873
438,0.728083,146.866
439,0.72975,146.829
440,0.731417,146.829
441,0.733083,146.724
442,0.73475,146.836
443,0.736417,146.896
444,0.738083,146.896
445,0.73975,146.851
446,0.741417,147.313
447,0.743083,147.164
448,0.74475,147.164
449,0.746417,147.186
450,0.7480830000000001,147.223
451,0.74975,146.94
452,0.751417,146.94
453,0.7530829999999999,146.858
454,0.75475,146.747
455,0.756417,146.747
456,0.758083,146.687
457,0.75975,146.598
458,0.761417,146.747
459,0.763083,146.747
460,0.76475,146.791
461,0.766433,146.866
462,0.768083,147.134
463,0.769867,147.134
464,0.771417,147.425
465,0.773083,147.745
466,0.774733,147.82
467,0.7764,147.82
468,0.778067,147.693
469,0.779733,147.052
470,0.7814,147.052
471,0.783067,146.754
472,0.784717,146.531
473,0.7863830000000001,146.635
474,0.78805,146.635
475,0.789717,146.955
476,0.7913829999999999,147.156
477,0.79305,147.194
478,0.794717,147.194
479,0.796383,147.037
480,0.79805,147.246
481,0.799717,146.925
482,0.801383,146.925
483,0.80305,147.283
484,0.804717,147.492
485,0.8064,147.492
486,0.80805,147.268
487,0.809717,147.499
488,0.811383,147.223
489,0.8130500000000001,147.223
490,0.814717,147.045
491,0.816383,146.993
492,0.8180500000000001,146.799
493,0.819717,146.799
494,0.8214,146.732
495,0.8230499999999999,146.575
496,0.824717,146.627
497,0.826383,146.627
498,0.82805,146.59
499,0.829717,146.657
500,0.831383,146.613
501,0.83305,146.613
502,0.834717,146.642
503,0.836383,146.858
504,0.83805,146.858
505,0.839717,146.911
506,0.841383,147.074
507,0.84305,147.194
508,0.8447,147.194
509,0.846367,147.216
510,0.848033,147.082
511,0.8497,146.843
512,0.851367,146.843
513,0.853033,146.843
514,0.8547670000000001,146.732
515,0.856367,146.784
516,0.858033,146.784
517,0.8597,147
518,0.861367,146.918
519,0.8630330000000001,146.918
520,0.8647,146.739
521,0.866367,146.784
522,0.8680330000000001,146.613
523,0.8697,146.613
524,0.871383,146.516
525,0.8730329999999999,146.307
526,0.8747,146.292
527,0.876367,146.292
528,0.878033,146.478
529,0.8797,146.396
530,0.881383,146.657
531,0.883033,146.657
532,0.8847,146.702
533,0.886367,146.978
534,0.888033,146.963
535,0.8897,146.963
536,0.891367,146.732
537,0.893033,146.464
538,0.8947000000000001,146.464
539,0.896367,146.195
540,0.898033,145.994
541,0.8997000000000001,146.203
542,0.901367,146.203
543,0.903033,146.583
544,0.904683,146.911
545,0.90635,147.142
546,0.908017,147.142
547,0.909683,147.209
548,0.91135,146.955
549,0.913017,146.233
550,0.9147,146.233
551,0.9163829999999999,146.18
552,0.918017,146.046
553,0.919683,146.046
554,0.92135,145.867
555,0.923017,146.203
556,0.924683,146.434
557,0.92635,146.434
558,0.928017,146.538
559,0.929683,146.732
560,0.93135,146.583
561,0.933017,146.583
562,0.934683,146.419
563,0.93635,146.441
564,0.938017,146.314
565,0.939683,146.314
566,0.941367,146.449
567,0.943017,146.374
568,0.9446830000000001,146.605
569,0.94635,146.605
570,0.948017,146.806
571,0.9496830000000001,146.829
572,0.951367,146.829
573,0.953017,147.194
574,0.9546829999999999,146.881
575,0.95635,146.702
576,0.958017,146.702
577,0.959683,146.911
578,0.96135,146.709
579,0.963017,146.568
580,0.9646670000000001,146.568
581,0.966333,146.635
582,0.968,146.419
583,0.9696669999999999,146.344
584,0.971333,146.344
585,0.973,146.501
586,0.974667,146.56
587,0.976333,146.56
588,0.978,146.821
589,0.979667,146.821
590,0.981333,146.583
591,0.983,146.583
592,0.984667,146.426
593,0.986333,146.419
594,0.988,146.396
595,0.989667,146.396
596,0.991333,146.881
597,0.993,147.052
598,0.994667,146.702
599,0.996333,146.702
600,0.998,146.732
601,0.9997,146.62
602,1.001333,146.62
603,1.003,146.717
604,1.004667,146.933
605,1.006433,146.903
606,1.008,146.903
607,1.009667,146.911
608,1.011333,146.717
609,1.013,146.329
610,1.014667,146.329
611,1.016333,145.987
612,1.018,145.644
613,1.019667,145.473
614,1.021333,145.473
615,1.023,145.666
616,1.02465,146.18
617,1.026317,146.404
618,1.027983,146.404
619,1.029683,146.359
620,1.031367,146.173
621,1.032983,146.173
622,1.03465,145.756
623,1.036317,145.718
624,1.037983,145.763
625,1.03965,145.763
626,1.041317,146.031
627,1.042983,146.143
628,1.04465,146.136
629,1.046317,146.136
630,1.047983,146.434
631,1.04965,146.3
632,1.051317,146.233
633,1.052983,146.233
634,1.05465,145.949
635,1.056317,145.748
636,1.057983,145.748
637,1.05965,145.778
638,1.061317,145.718
639,1.062983,145.726
640,1.06465,145.726
641,1.0663,145.525
642,1.067967,145.212
643,1.069633,145.204
644,1.0713,145.204
645,1.072983,145.204
646,1.074633,145.473
647,1.0763,145.942
648,1.077967,145.942
649,1.079633,146.188
650,1.0813,146.396
651,1.08295,146.367
652,1.084617,146.367
653,1.086283,146.195
654,1.08795,146.292
655,1.089617,146.292
656,1.09135,146.471
657,1.09295,146.598
658,1.09465,146.717
659,1.096283,146.717
660,1.09795,146.292
661,1.099617,146.002
662,1.101283,145.651
663,1.10295,145.651
664,1.104617,145.368
665,1.106283,145.525
666,1.10795,145.487
667,1.109617,145.487
668,1.111283,145.83
669,1.11295,146.054
670,1.114617,146.054
671,1.1163,145.979
672,1.11795,145.927
673,1.119617,145.614
674,1.121283,145.614
675,1.12295,145.517
676,1.124717,145.502
677,1.126283,145.465
678,1.12795,145.465
679,1.129617,145.637
680,1.131283,145.681
681,1.13295,145.778
682,1.134617,145.778
683,1.136283,145.853
684,1.13795,145.622
685,1.139617,145.622
686,1.141283,145.353
687,1.14295,145.465
688,1.1446,145.502
689,1.146267,145.502
690,1.147933,145.733
691,1.1496,146.292
692,1.151267,146.292
693,1.152933,146.292
694,1.1546,146.247
695,1.156267,146.069
696,1.157933,145.786
697,1.1596,145.786
698,1.161267,145.756
699,1.162933,145.927
700,1.1646,145.83
701,1.1663,145.83
702,1.16795,145.867
703,1.1696,145.867
704,1.171267,145.867
705,1.172933,145.793
706,1.1746,145.927
707,1.176267,145.532
708,1.177933,145.532
709,1.1796,145.368
710,1.181267,145.324
711,1.182933,145.189
712,1.1846,145.189
713,1.186267,145.361
714,1.187933,145.555
715,1.1896,145.748
716,1.191267,145.748
717,1.192933,145.838
718,1.1946,145.711
719,1.196267,145.711
720,1.197933,145.309
721,1.1996,144.929
722,1.201267,144.966
723,1.202933,144.966
724,1.204583,145.1
725,1.20625,145.324
726,1.207917,145.674
727,1.20965,145.674
728,1.21125,145.569
729,1.212917,145.376
730,1.214583,145.644
731,1.21625,145.644
732,1.217917,145.629
733,1.219583,145.83
734,1.22125,145.912
735,1.222917,145.912
736,1.224583,145.562
737,1.22625,145.465
738,1.227917,145.465
739,1.229583,145.413
740,1.23125,145.473
741,1.232917,145.398
742,1.234583,145.398
743,1.23625,145.271
744,1.237917,145.167
745,1.239583,145.279
746,1.241267,145.279
747,1.242967,145.309
748,1.244583,145.294
749,1.24625,145.175
750,1.247917,145.175
751,1.249583,145.264
752,1.25125,145.257
753,1.252917,145.257
754,1.254583,145.346
755,1.25625,145.756
756,1.257917,145.51
757,1.259683,145.51
758,1.26125,145.8
759,1.262917,145.622
760,1.264567,145.227
761,1.266233,145.227
762,1.2679,145.316
763,1.269567,145.122
764,1.271233,145.443
765,1.2729,145.443
766,1.274567,145.547
767,1.276233,145.577
768,1.2779,145.502
769,1.279567,145.502
770,1.281233,145.279
771,1.2829,145.331
772,1.284567,145.331
773,1.286233,145.495
774,1.2879,145.718
775,1.289567,145.756
776,1.291233,145.756
777,1.2929,145.808
778,1.294567,145.607
779,1.296233,145.301
780,1.2979,145.301
781,1.299567,145.204
782,1.301233,145.376
783,1.3029,145.465
784,1.304567,145.465
785,1.306233,145.778
786,1.3079,146.009
787,1.309567,146.009
788,1.311267,145.763
789,1.3129,145.8
790,1.314567,145.637
791,1.316233,145.637
792,1.3179,145.778
793,1.319567,145.853
794,1.321217,145.592
795,1.322917,145.592
796,1.32455,145.674
797,1.326217,145.487
798,1.327883,145.502
799,1.32955,145.502
800,1.331217,145.45
801,1.332883,145.294
802,1.33455,145.346
803,1.336217,145.346
804,1.337883,145.309
805,1.33955,145.257
806,1.341217,145.257
807,1.342883,145.555
808,1.34465,145.391
809,1.346217,145.279
810,1.347883,145.279
811,1.34955,145.368
812,1.351217,144.966
813,1.352883,144.921
814,1.35455,144.921
815,1.356217,144.929
816,1.357867,145.1
817,1.359533,145.458
818,1.361283,145.458
819,1.362867,145.555
820,1.364533,145.443
821,1.3662,145.443
822,1.367867,145.324
823,1.369533,144.996
824,1.3712,145.1
825,1.372867,145.1
826,1.374533,145.175
827,1.3762,145.398
828,1.377967,145.733
829,1.379533,145.733
830,1.3812,145.487
831,1.382867,145.406
832,1.384517,145.338
833,1.386183,145.338
834,1.387867,145.242
835,1.389567,145.458
836,1.391183,145.458
837,1.39285,145.637
838,1.394517,145.413
839,1.396183,145.413
840,1.39785,145.413
841,1.399517,145.145
842,1.401183,145.137
843,1.40285,145.152
844,1.404517,145.152
845,1.406183,144.966
846,1.40785,144.951
847,1.409517,144.795
848,1.4112,144.795
849,1.412883,144.728
850,1.414517,144.668
851,1.416183,144.944
852,1.41785,144.944
853,1.419517,144.981
854,1.421183,145.353
855,1.42285,145.353
856,1.424517,145.406
857,1.426183,145.063
858,1.42785,145.145
859,1.429517,145.145
860,1.431183,144.906
861,1.43285,145.152
862,1.434517,145.271
863,1.436183,145.271
864,1.43785,145.383
865,1.439517,145.338
866,1.441183,145.093
867,1.44285,145.093
868,1.4445,145.085
869,1.446167,144.944
870,1.447833,144.944
871,1.4495,144.981
872,1.451167,144.742
873,1.452833,144.698
874,1.4545,144.698
875,1.456183,144.646
876,1.457833,144.571
877,1.4595,144.482
878,1.461167,144.482
879,1.462883,144.675
880,1.4645,144.66
881,1.466167,144.884
882,1.467833,144.884
883,1.4695,145.42
884,1.471167,145.242
885,1.472833,145.294
886,1.4745,145.294
887,1.476167,145.108
888,1.477833,144.549
889,1.47955,144.549
890,1.481167,144.333
891,1.482833,144.236
892,1.4845,144.199
893,1.486167,144.199
894,1.487833,144.705
895,1.4895,145.167
896,1.491167,145.361
897,1.492833,145.361
898,1.4945,145.271
899,1.496233,144.839
900,1.497833,144.653
901,1.499517,144.653
902,1.501167,144.675
903,1.502833,144.735
904,1.504483,144.735
905,1.50615,145.04
906,1.507817,144.869
907,1.509483,144.854
908,1.51115,144.854
909,1.512817,145.048
910,1.514483,144.891
911,1.51615,144.929
912,1.517817,144.929
913,1.5195,144.78
914,1.52115,144.459
915,1.522817,144.497
916,1.524483,144.497
917,1.52615,144.526
918,1.527817,144.519
919,1.529483,144.69
920,1.531183,144.69
921,1.532817,144.936
922,1.534483,144.951
923,1.53615,144.951
924,1.537817,145.212
925,1.539483,145.152
926,1.54115,144.862
927,1.542817,144.862
928,1.544483,144.817
929,1.54615,144.549
930,1.547817,144.541
931,1.549483,144.541
932,1.55115,144.757
933,1.552817,144.966
934,1.554483,144.996
935,1.55615,144.996
936,1.557817,144.973
937,1.559483,145.048
938,1.56115,145.048
939,1.562817,144.951
940,1.564467,144.579
941,1.566133,144.407
942,1.5678,144.407
943,1.569467,144.169
944,1.57115,144.079
945,1.57285,144.385
946,1.574467,144.385
947,1.576133,144.586
948,1.5778,144.862
949,1.579467,144.951
950,1.581133,144.951
951,1.5828,144.824
952,1.584467,144.72
953,1.586133,144.72
954,1.5878,144.586
955,1.589467,144.385
956,1.591133,144.631
957,1.5928,144.631
958,1.594467,144.72
959,1.596133,144.631
960,1.597867,144.795
961,1.599467,144.795
962,1.601133,144.608
963,1.602833,144.668
964,1.604467,144.623
965,1.606133,144.623
966,1.6078,144.638
