"ID","sea_time","fid_signal"
1,0,1171.827
2,0.00165,1171.827
3,0.003317,1169.667
4,0.004983,1173.466
5,0.00665,1172.051
6,0.008333,1172.051
7,0.009983000000000001,1172.945
8,0.01165,1175.031
9,0.013317,1173.317
10,0.014983,1173.317
11,0.01665,1172.274
12,0.018317,1171.008
13,0.019983,1170.561
14,0.02165,1170.561
15,0.023317,1170.039
16,0.024983,1173.317
17,0.02665,1173.317
18,0.028317,1173.317
19,0.029983,1171.231
20,0.03165,1170.412
21,0.033317,1170.412
22,0.035033,1167.804
23,0.03665,1169.89
24,0.038317,1171.529
25,0.039967,1171.529
26,0.04165,1173.615
27,0.0433,1173.765
28,0.044967,1172.796
29,0.046633,1172.796
30,0.0483,1171.976
31,0.049967,1170.337
32,0.0517,1171.157
33,0.0533,1171.157
34,0.054967,1169.443
35,0.056633,1169.816
36,0.0583,1169.816
37,0.059967,1169.592
38,0.061633,1166.835
39,0.0633,1166.239
40,0.064967,1166.239
41,0.066633,1166.09
42,0.068367,1166.09
43,0.069967,1166.388
44,0.071633,1166.388
45,0.0733,1167.282
46,0.07496700000000001,1167.357
47,0.07663300000000001,1167.804
48,0.07829999999999999,1167.804
49,0.079967,1168.102
50,0.081633,1170.412
51,0.0833,1170.412
52,0.084967,1171.38
53,0.086633,1171.753
54,0.0883,1174.435
55,0.08996700000000001,1174.435
56,0.09163300000000001,1174.212
57,0.09329999999999999,1174.137
58,0.094967,1173.466
59,0.096633,1173.466
60,0.0983,1171.38
61,0.09995,1171.306
62,0.101617,1170.635
63,0.103283,1170.635
64,0.10495,1173.839
65,0.106617,1175.031
66,0.108283,1173.094
67,0.10995,1173.094
68,0.111617,1174.063
69,0.113283,1171.902
70,0.11495,1171.902
71,0.116617,1172.125
72,0.118283,1174.882
73,0.11995,1173.094
74,0.121617,1173.094
75,0.123283,1174.807
76,0.12495,1175.404
77,0.126617,1176.149
78,0.128283,1176.149
79,0.12995,1179.948
80,0.131617,1178.384
81,0.133283,1175.627
82,0.13495,1175.627
83,0.136617,1173.765
84,0.138283,1173.019
85,0.13995,1173.019
86,0.141617,1174.137
87,0.143283,1173.913
88,0.144967,1174.212
89,0.146617,1174.212
90,0.148283,1171.827
91,0.14995,1171.976
92,0.151617,1175.925
93,0.153383,1175.925
94,0.15495,1176.521
95,0.156617,1178.533
96,0.158283,1178.384
97,0.159933,1178.384
98,0.1616,1174.51
99,0.163267,1176
100,0.164933,1176
101,0.1666,1177.788
102,0.168267,1176.298
103,0.169983,1175.404
104,0.1716,1175.404
105,0.173267,1175.031
106,0.174933,1174.807
107,0.1766,1175.776
108,0.178267,1175.776
109,0.179933,1177.639
110,0.1816,1176.298
111,0.183267,1173.839
112,0.184933,1173.839
113,0.1867,1172.796
114,0.188267,1174.212
115,0.189933,1174.36
116,0.1916,1174.36
117,0.193267,1176.223
118,0.194933,1176.223
119,0.1966,1176.223
120,0.198267,1176.447
121,0.199933,1173.988
122,0.2016,1172.051
123,0.203267,1172.051
124,0.204933,1173.019
125,0.2066,1173.615
126,0.208267,1175.925
127,0.209933,1175.925
128,0.2116,1176.819
129,0.213283,1178.011
130,0.214933,1179.129
131,0.2166,1179.129
132,0.218267,1179.799
133,0.219917,1178.98
134,0.221583,1178.98
135,0.22325,1177.117
136,0.224917,1175.18
137,0.2266,1171.902
138,0.22825,1171.902
139,0.229917,1171.38
140,0.231583,1170.859
141,0.23325,1171.38
142,0.234917,1171.38
143,0.236583,1172.423
144,0.23825,1170.933
145,0.239917,1170.188
146,0.241583,1170.188
147,0.24325,1170.933
148,0.244917,1170.71
149,0.246583,1172.945
150,0.24825,1172.945
151,0.249917,1172.647
152,0.251583,1170.859
153,0.25325,1170.859
154,0.254917,1173.392
155,0.256583,1174.137
156,0.25825,1177.043
157,0.259917,1177.043
158,0.261583,1177.564
159,0.26325,1175.106
160,0.264917,1171.902
161,0.266583,1171.902
162,0.26825,1171.157
163,0.269917,1171.678
164,0.271583,1173.541
165,0.27325,1173.541
166,0.274917,1175.925
167,0.276583,1176.596
168,0.27825,1176.596
169,0.2799,1174.882
170,0.281567,1176.074
171,0.283233,1176.298
172,0.2849,1176.298
173,0.286567,1177.043
174,0.2883,1179.427
175,0.2899,1177.266
176,0.291567,1177.266
177,0.293217,1174.212
178,0.294883,1172.051
179,0.29655,1171.455
180,0.298217,1171.455
181,0.2999,1172.423
182,0.301633,1175.478
183,0.303217,1176
184,0.305,1176
185,0.30655,1175.925
186,0.308217,1175.255
187,0.309883,1175.255
188,0.31155,1175.18
189,0.313217,1174.435
190,0.314883,1173.988
191,0.31655,1173.988
192,0.318217,1172.051
193,0.3199,1170.412
194,0.32155,1171.157
195,0.323217,1171.157
196,0.324883,1173.466
197,0.32655,1180.246
198,0.328217,1183.152
199,0.329883,1183.152
200,0.33155,1187.25
201,0.333217,1187.995
202,0.334883,1187.995
203,0.33655,1184.642
204,0.338217,1186.058
205,0.339883,1187.623
206,0.341533,1187.623
207,0.3432,1188.442
208,0.344867,1193.956
209,0.346533,1195.222
210,0.3482,1195.222
211,0.349867,1197.979
212,0.351533,1200.438
213,0.3532,1201.481
214,0.354867,1201.481
215,0.356533,1206.249
216,0.3582,1207.963
217,0.359867,1207.963
218,0.361533,1213.178
219,0.3632,1219.511
220,0.364867,1227.93
221,0.366533,1227.93
222,0.3682,1233.965
223,0.369883,1242.384
224,0.371533,1248.494
225,0.3732,1248.494
226,0.374867,1254.082
227,0.376533,1259.595
228,0.378217,1264.885
229,0.379867,1264.885
230,0.381533,1272.038
231,0.3832,1276.061
232,0.384867,1285.076
233,0.386533,1285.076
234,0.3882,1291.856
235,0.389917,1296.774
236,0.391533,1296.774
237,0.3932,1303.926
238,0.394867,1311.451
239,0.396533,1318.976
240,0.3982,1318.976
241,0.39985,1330.152
242,0.401517,1341.104
243,0.403183,1347.587
244,0.40485,1347.587
245,0.406517,1355.41
246,0.408183,1361.519
247,0.40985,1368.15
248,0.411517,1368.15
249,0.413183,1376.569
250,0.41485,1386.33
251,0.416517,1386.33
252,0.418183,1393.184
253,0.41985,1399.666
254,0.421517,1404.881
255,0.423283,1404.881
256,0.42485,1409.724
257,0.426517,1416.43
258,0.428183,1423.657
259,0.42985,1423.657
260,0.431517,1429.99
261,0.433183,1434.758
262,0.43485,1437.739
263,0.436517,1437.739
264,0.438183,1440.719
265,0.43985,1443.997
266,0.441517,1446.605
267,0.443183,1446.605
268,0.44485,1452.416
269,0.446517,1458.973
270,0.4482,1458.973
271,0.44985,1464.114
272,0.451517,1464.635
273,0.453183,1465.455
274,0.45485,1465.455
275,0.456517,1463.89
276,0.458183,1463.219
277,0.459833,1468.137
278,0.4615,1468.137
279,0.463167,1467.541
280,0.464833,1468.733
281,0.466517,1468.807
282,0.468167,1468.807
283,0.469833,1462.176
284,0.4715,1459.047
285,0.473167,1459.047
286,0.474833,1455.471
287,0.4765,1452.863
288,0.478167,1452.044
289,0.479833,1452.044
290,0.4815,1450.554
291,0.483167,1442.656
292,0.484833,1435.28
293,0.4865,1435.28
294,0.488167,1428.872
295,0.489833,1421.72
296,0.4915,1418.889
297,0.493167,1418.889
298,0.494833,1413.226
299,0.4965,1409.277
300,0.498167,1402.87
301,0.499833,1402.87
302,0.5014999999999999,1395.643
303,0.503167,1391.619
304,0.504833,1391.619
305,0.5065,1384.914
306,0.508217,1382.902
307,0.509833,1376.122
308,0.5115,1376.122
309,0.513167,1368.374
310,0.514833,1362.637
311,0.5165,1352.355
312,0.518167,1352.355
313,0.519817,1349.077
314,0.521483,1346.245
315,0.52315,1339.54
316,0.524817,1339.54
317,0.526483,1336.113
318,0.52815,1327.917
319,0.529817,1327.917
320,0.531483,1320.541
321,0.53315,1316.369
322,0.534817,1309.216
323,0.536483,1309.216
324,0.53815,1305.714
325,0.539817,1301.393
326,0.541483,1297.519
327,0.54315,1297.519
328,0.544817,1294.911
329,0.5464830000000001,1292.08
330,0.548167,1289.025
331,0.549817,1289.025
332,0.5514829999999999,1288.131
333,0.55315,1285.672
334,0.554817,1283.735
335,0.556517,1283.735
336,0.55815,1282.021
337,0.559817,1278.52
338,0.561483,1278.52
339,0.56315,1276.583
340,0.564817,1272.634
341,0.566483,1271.665
342,0.56815,1271.665
343,0.569817,1269.579
344,0.571483,1269.579
345,0.57315,1270.324
346,0.574817,1270.324
347,0.576483,1270.92
348,0.5781500000000001,1273.379
349,0.5798,1276.061
350,0.581467,1276.061
351,0.583133,1281.053
352,0.5847830000000001,1284.257
353,0.58645,1284.257
354,0.588117,1289.77
355,0.5897829999999999,1293.868
356,0.59145,1300.35
357,0.593117,1300.35
358,0.594783,1306.906
359,0.59645,1315.177
360,0.598117,1327.321
361,0.599783,1327.321
362,0.60145,1337.901
363,0.603117,1352.876
364,0.604783,1368.523
365,0.60645,1368.523
366,0.608117,1384.616
367,0.609783,1404.136
368,0.61145,1404.136
369,0.613117,1424.029
370,0.614783,1448.691
371,0.6164500000000001,1476.109
372,0.618117,1476.109
373,0.619783,1508.37
374,0.6214499999999999,1545.846
375,0.623117,1584.44
376,0.624783,1584.44
377,0.626517,1630.411
378,0.628117,1682.416
379,0.6298,1742.095
380,0.63145,1742.095
381,0.633117,1810.044
382,0.634783,1884.997
383,0.63645,1964.718
384,0.638117,1964.718
385,0.639767,2048.537
386,0.641433,2140.999
387,0.6431,2140.999
388,0.644767,2244.934
389,0.646433,2360.418
390,0.6481,2489.09
391,0.649767,2489.09
392,0.651433,2629.086
393,0.6531,2779.216
394,0.654767,2942.458
395,0.656433,2942.458
396,0.6581,3118.664
397,0.659783,3308.654
398,0.661467,3514.513
399,0.6631,3514.513
400,0.664767,3737.435
401,0.6664330000000001,3976.375
402,0.6681,3976.375
403,0.669767,4231.408
404,0.6714329999999999,4505.44
405,0.6731,4796.684
406,0.674767,4796.684
407,0.676433,5110.279
408,0.6781,5444.81
409,0.679767,5794.316
410,0.681433,5794.316
411,0.6831,6164.834
412,0.684767,6553.456
413,0.686433,6959.066
414,0.6881,6959.066
415,0.689767,7386.655
416,0.691433,7833.317
417,0.6931,8296.743
418,0.694767,8296.743
419,0.696433,8781.329
420,0.6981000000000001,9285.657999999999
421,0.699767,9285.657999999999
422,0.701417,9807.272999999999
423,0.703083,10350.57
424,0.70475,10914.281
425,0.706417,10914.281
426,0.708083,11494.309
427,0.70975,12091.324
428,0.711417,12706.593
429,0.713083,12706.593
430,0.71475,13336.315
431,0.716417,13984.367
432,0.718083,14650.002
433,0.71975,14650.002
434,0.721417,15331.805
435,0.7231,16028.956
436,0.72475,16028.956
437,0.72645,16742.795
438,0.728083,17472.879
439,0.72975,18217.191
440,0.731417,18217.191
441,0.733083,18977.672
442,0.73475,19749.031
443,0.736417,20532.98
444,0.738083,20532.98
445,0.73975,21329.672
446,0.741417,22139.102
447,0.743083,22966.117
448,0.744767,22966.117
449,0.746417,23804.531
450,0.7480830000000001,24654.643
451,0.74975,25512.502
452,0.751417,25512.502
453,0.7530829999999999,26377.066
454,0.75475,27255.416
455,0.756417,27255.416
456,0.758083,28142.482
457,0.759733,29040.053
458,0.7615,29947.535
459,0.7630670000000001,29947.535
460,0.764733,30856.506
461,0.7664,31771.809
462,0.7680670000000001,32695.457
463,0.769733,32695.457
464,0.7714,33620.746
465,0.7730669999999999,34554.602
466,0.774733,35494.492
467,0.7764,35494.492
468,0.778133,36438.555
469,0.779733,37386.121
470,0.7814,37386.121
471,0.783067,38333.012
472,0.784733,39279.461
473,0.7864,40224.195
474,0.788067,40224.195
475,0.789733,41168.258
476,0.7914,42112.691
477,0.793067,43052.883
478,0.794833,43052.883
479,0.7964,43992.477
480,0.798067,44934.004
481,0.799733,45868.68
482,0.801417,45868.68
483,0.803067,46799.629
484,0.804733,47721.566
485,0.8064,47721.566
486,0.808067,48631.875
487,0.809733,49538.688
488,0.8114,50436.629
489,0.813067,50436.629
490,0.814733,51327.199
491,0.8164,52213.074
492,0.818067,53086.43
493,0.819717,53086.43
494,0.821383,53951.516
495,0.8230499999999999,54805.352
496,0.824717,55644.066
497,0.826383,55644.066
498,0.82805,56469.219
499,0.829717,57285.277
500,0.831383,58087.258
501,0.83305,58087.258
502,0.834717,58874.859
503,0.836383,59653.297
504,0.83805,59653.297
505,0.839717,60413.105
506,0.841383,61158.762
507,0.84305,61889.59
508,0.8447170000000001,61889.59
509,0.846383,62600.301
510,0.84805,63296.781
511,0.8497169999999999,63978.211
512,0.851383,63978.211
513,0.85305,64641.832
514,0.8547169999999999,65289.66
515,0.856383,65917.67200000001
516,0.85805,65917.67200000001
517,0.859717,66524.29700000001
518,0.861383,67116.32000000001
519,0.8631,67690.906
520,0.864717,67690.906
521,0.866383,68248.141
522,0.868067,68789.273
523,0.869717,68789.273
524,0.871383,69311.258
525,0.87305,69814.92200000001
526,0.874717,70295.039
527,0.876383,70295.039
528,0.878033,70756.30499999999
529,0.879783,71192.906
530,0.88135,71605.891
531,0.8830170000000001,71605.891
532,0.884683,72002.859
533,0.88635,72376.359
534,0.8880169999999999,72732.57000000001
535,0.889683,72732.57000000001
536,0.89135,73067.844
537,0.8930169999999999,73383.45299999999
538,0.894683,73383.45299999999
539,0.896433,73678.93799999999
540,0.898033,73949.469
541,0.899683,74198.32000000001
542,0.90135,74198.32000000001
543,0.903017,74421.836
544,0.904683,74619.57799999999
545,0.90635,74797.273
546,0.908017,74797.273
547,0.909683,74954.406
548,0.91135,75087.102
549,0.9131,75198.781
550,0.914683,75198.781
551,0.91635,75286.92200000001
552,0.918017,75350.773
553,0.919683,75350.773
554,0.92135,75395.32799999999
555,0.923017,75417.67999999999
556,0.924683,75414.55499999999
557,0.92635,75414.55499999999
558,0.928017,75388.398
559,0.929683,75336.54700000001
560,0.93135,75262.18799999999
561,0.933017,75262.18799999999
562,0.934683,75166.898
563,0.93635,75049.32799999999
564,0.938017,74911.789
565,0.939667,74911.789
566,0.941333,74754.727
567,0.943033,74575.094
568,0.944667,74575.094
569,0.946333,74373.92999999999
570,0.948,74149.969
571,0.949667,73900.29700000001
572,0.951333,73900.29700000001
573,0.953,73632.523
574,0.954667,73346.42200000001
575,0.956333,73040.273
576,0.958,73040.273
577,0.959667,72720.273
578,0.961333,72378.367
579,0.963,72016.57000000001
580,0.9646670000000001,72016.57000000001
581,0.966333,71642.023
582,0.968,71246.398
583,0.9696669999999999,70836.242
584,0.971333,70836.242
585,0.973,70411.336
586,0.974667,69968.625
587,0.976333,69968.625
588,0.978,69515.031
589,0.979667,69049
590,0.981333,68573.281
591,0.983,68573.281
592,0.984667,68085.117
593,0.986333,67587.867
594,0.988,67078.469
595,0.989667,67078.469
596,0.991333,66557.07799999999
597,0.993,66028.68799999999
598,0.994667,65487.996
599,0.996333,65487.996
600,0.9981,64944.18
601,0.99965,64393.805
602,1.001317,64393.805
603,1.002983,63835.605
604,1.00465,63272.566
605,1.006317,62701.031
606,1.007983,62701.031
607,1.00965,62129.051
608,1.011317,61553.941
609,1.013,60975.926
610,1.014717,60975.926
611,1.016317,60391.723
612,1.017983,59804.395
613,1.01965,59218.035
614,1.021317,59218.035
615,1.022983,58628.77
616,1.02465,58045.609
617,1.026317,57458.879
618,1.027983,57458.879
619,1.02965,56871.547
620,1.031433,56286.379
621,1.032983,56286.379
622,1.03465,55702.402
623,1.036317,55119.023
624,1.037983,54532.438
625,1.03965,54532.438
626,1.041317,53950.176
627,1.042983,53369.031
628,1.04465,52791.609
629,1.046317,52791.609
630,1.047983,52222.832
631,1.04965,51655.621
632,1.051317,51091.535
633,1.052983,51091.535
634,1.05465,50529.988
635,1.056317,49968.438
636,1.057983,49968.438
637,1.059633,49412.922
638,1.0613,48859.938
639,1.062967,48311.203
640,1.064633,48311.203
641,1.0663,47768.727
642,1.067967,47230.125
643,1.069633,46696.813
644,1.0713,46696.813
645,1.072967,46167.449
646,1.074633,45643
647,1.0763,45121.984
648,1.077967,45121.984
649,1.079633,44603.871
650,1.081333,44092.91
651,1.082967,43584.93
652,1.084633,43584.93
653,1.0863,43081.863
654,1.087967,42586.102
655,1.089633,42586.102
656,1.0913,42090.191
657,1.092967,41603.445
658,1.094633,41119.977
659,1.0963,41119.977
660,1.097967,40639.043
661,1.099633,40170.254
662,1.1013,39700.344
663,1.102967,39700.344
664,1.104633,39235.277
665,1.1063,38777.738
666,1.107967,38320.945
667,1.109633,38320.945
668,1.1113,37874.059
669,1.112967,37432.609
670,1.114633,37432.609
671,1.1163,36993.547
672,1.117967,36560.895
673,1.119617,36128.535
674,1.121283,36128.535
675,1.12295,35702.734
676,1.124617,35284.086
677,1.1263,34868.121
678,1.12795,34868.121
679,1.129617,34459.309
680,1.131283,34054.367
681,1.13305,33653.973
682,1.134617,33653.973
683,1.136283,33258.871
684,1.13795,32869.949
685,1.139617,32487.438
686,1.141283,32487.438
687,1.14295,32106.34
688,1.144617,31730.756
689,1.146283,31730.756
690,1.14795,31355.844
691,1.149717,30986.295
692,1.151283,30626.059
693,1.15295,30626.059
694,1.154617,30268.207
695,1.156283,29915.795
696,1.15795,29568.299
697,1.159633,29568.299
698,1.161283,29221.475
699,1.16295,28880.611
700,1.164617,28549.582
701,1.166267,28549.582
702,1.167933,28217.211
703,1.1696,27893.037
704,1.171267,27893.037
705,1.172933,27574.078
706,1.1746,27255.416
707,1.176267,26944.875
708,1.177917,26944.875
709,1.179583,26636.943
710,1.18125,26331.842
711,1.182917,26031.285
712,1.184583,26031.285
713,1.18625,25731.4
714,1.187917,25438.443
715,1.189583,25150.031
716,1.19125,25150.031
717,1.192917,24864.375
718,1.194583,24585.277
719,1.19625,24585.277
720,1.197917,24309.754
721,1.199583,24037.287
722,1.20125,23770.705
723,1.202917,23770.705
724,1.204583,23506.656
725,1.20625,23244.023
726,1.207917,22986.084
727,1.209583,22986.084
728,1.21125,22734.18
729,1.212917,22484.734
730,1.214583,22238.643
731,1.21625,22238.643
732,1.217917,21999.701
733,1.219583,21760.688
734,1.22125,21524.578
735,1.222917,21524.578
736,1.224583,21293.387
737,1.22625,21060.482
738,1.227933,21060.482
739,1.229583,20832.791
740,1.23125,20611.51
741,1.232917,20394.176
742,1.234583,20394.176
743,1.23625,20183.176
744,1.237917,19972.846
745,1.239567,19763.633
746,1.241233,19763.633
747,1.2429,19553.527
748,1.244567,19345.582
749,1.246233,19142.553
750,1.2479,19142.553
751,1.249567,18948.018
752,1.251233,18758.699
753,1.2529,18758.699
754,1.254567,18572.658
755,1.256233,18383.34
756,1.2579,18192.977
757,1.259567,18192.977
758,1.261233,18004.701
759,1.2629,17819.182
760,1.264567,17639.697
761,1.266233,17639.697
762,1.268017,17465.502
763,1.269567,17294.586
764,1.271233,17127.842
765,1.2729,17127.842
766,1.274567,16959.385
767,1.276233,16793.832
768,1.2779,16631.633
769,1.279567,16631.633
770,1.281233,16467.646
771,1.2829,16310.438
772,1.284567,16310.438
773,1.286233,16153.977
774,1.2879,15997.365
775,1.289567,15846.342
776,1.291233,15846.342
777,1.2929,15700.608
778,1.294567,15555.024
779,1.296233,15413.314
780,1.297883,15413.314
781,1.29955,15270.934
782,1.30125,15128.479
783,1.3029,14987.961
784,1.30455,14987.961
785,1.306217,14850.199
786,1.307883,14714.748
787,1.30955,14714.748
788,1.311217,14580.414
789,1.312883,14450.178
790,1.31455,14319.346
791,1.316217,14319.346
792,1.317883,14190.972
793,1.31955,14066.249
794,1.321217,13940.036
795,1.322883,13940.036
796,1.32455,13819.784
797,1.326217,13701.245
798,1.327883,13581.589
799,1.32955,13581.589
800,1.331217,13463.423
801,1.332883,13342.724
802,1.33455,13226.644
803,1.336217,13226.644
804,1.337883,13113.692
805,1.33955,13003.647
806,1.341217,13003.647
807,1.342883,12898.296
808,1.34455,12791.157
809,1.346217,12684.166
810,1.347883,12684.166
811,1.34955,12580.156
812,1.351217,12474.954
813,1.352933,12370.795
814,1.35455,12370.795
815,1.356217,12269.393
816,1.357883,12167.021
817,1.359533,12068.748
818,1.3612,12068.748
819,1.362867,11971.369
820,1.364533,11874.512
821,1.3662,11874.512
822,1.367867,11783.466
823,1.369583,11690.78
824,1.3712,11596.903
825,1.372867,11596.903
826,1.374533,11509.136
827,1.3762,11416.524
828,1.377867,11324.733
829,1.379533,11324.733
830,1.3812,11238.68
831,1.382867,11151.284
832,1.384533,11065.603
833,1.386317,11065.603
834,1.387867,10983.124
835,1.389533,10900.497
836,1.3912,10900.497
837,1.392867,10819.51
838,1.394533,10739.043
839,1.3962,10659.694
840,1.397867,10659.694
841,1.399533,10581.24
842,1.4012,10501.295
843,1.402867,10422.989
844,1.404533,10422.989
845,1.4062,10345.504
846,1.407867,10268.391
847,1.409533,10193.064
848,1.4112,10193.064
849,1.412867,10119.527
850,1.414533,10045.99
851,1.4162,9976.326999999999
852,1.417867,9976.326999999999
853,1.419517,9905.025
854,1.421183,9837.672
855,1.42285,9837.672
856,1.424517,9769.053
857,1.426183,9700.656000000001
858,1.42785,9634.569
859,1.429517,9634.569
860,1.431183,9566.694
861,1.43285,9500.161
862,1.434517,9432.733
863,1.436183,9432.733
864,1.43785,9365.379999999999
865,1.43955,9299.889999999999
866,1.441183,9236.262000000001
867,1.44285,9236.262000000001
868,1.444517,9175.911
869,1.446183,9115.263999999999
870,1.44785,9115.263999999999
871,1.449517,9053.870999999999
872,1.451183,8993.968999999999
873,1.45285,8932.65
874,1.454517,8932.65
875,1.456183,8873.716
876,1.457833,8817.539000000001
877,1.4595,8762.181
878,1.461167,8762.181
879,1.462833,8704.141
880,1.4645,8649.23
881,1.466167,8593.574000000001
882,1.467833,8593.574000000001
883,1.4695,8534.268
