"ID","sea_time","fid_signal"
1,0,141.36
2,0.001667,141.36
3,0.003333,141.047
4,0.005,141.151
5,0.006667,141.151
6,0.008333,141.092
7,0.01,141.419
8,0.011667,141.442
9,0.013333,141.442
10,0.015,141.405
11,0.016667,141.419
12,0.018333,141.263
13,0.02,141.263
14,0.021667,141.554
15,0.023333,141.799
16,0.025,141.889
17,0.026667,141.889
18,0.028333,142.157
19,0.03,141.926
20,0.031667,141.926
21,0.033333,141.725
22,0.035,141.74
23,0.036667,141.695
24,0.0384,141.695
25,0.04,141.71
26,0.041667,141.546
27,0.043333,141.27
28,0.045,141.27
29,0.046667,141.077
30,0.048333,141.263
31,0.05,141.636
32,0.051683,141.636
33,0.053317,141.613
34,0.054983,141.509
35,0.05665,141.189
36,0.058317,141.189
37,0.059983,141.054
38,0.06165,141.218
39,0.063317,141.218
40,0.064983,141.285
41,0.06665,141.472
42,0.068317,141.576
43,0.069983,141.576
44,0.071767,141.479
45,0.07331699999999999,141.494
46,0.07498299999999999,141.449
47,0.07665,141.449
48,0.078317,141.233
49,0.079983,141.568
50,0.08165,141.487
51,0.083333,141.487
52,0.084983,141.77
53,0.08665,141.837
54,0.08831700000000001,141.837
55,0.08998299999999999,141.561
56,0.09165,141.434
57,0.093317,141.159
58,0.094983,141.159
59,0.09665,141.092
60,0.098317,141.196
61,0.099983,141.375
62,0.10165,141.375
63,0.103317,141.717
64,0.104983,141.852
65,0.10665,141.829
66,0.108317,141.829
67,0.109983,141.867
68,0.11165,141.77
69,0.113317,141.77
70,0.114967,141.71
71,0.116633,141.874
72,0.1183,141.867
73,0.119967,141.867
74,0.121633,141.598
75,0.1233,141.427
76,0.124967,141.01
77,0.126667,141.01
78,0.1283,140.741
79,0.129967,140.794
80,0.131633,141.002
81,0.1333,141.002
82,0.134967,141.129
83,0.136633,141.531
84,0.1383,141.583
85,0.139967,141.583
86,0.141633,141.665
87,0.1433,141.941
88,0.144967,141.941
89,0.14665,142.023
90,0.1483,142.232
91,0.149967,142.254
92,0.151633,142.254
93,0.1533,141.911
94,0.154967,141.621
95,0.156633,141.352
96,0.1583,141.352
97,0.159967,141.323
98,0.161633,141.725
99,0.1633,141.867
100,0.164967,141.867
101,0.166633,142.075
102,0.1683,141.911
103,0.169967,141.911
104,0.171633,141.583
105,0.173367,141.539
106,0.17495,141.531
107,0.176617,141.531
108,0.178267,141.479
109,0.179933,141.762
110,0.1816,141.807
111,0.183267,141.807
112,0.184933,141.531
113,0.1866,141.442
114,0.188267,141.107
115,0.190067,141.107
116,0.1916,141.33
117,0.193267,141.583
118,0.194933,142.097
119,0.1966,142.097
120,0.198267,142.589
121,0.199967,142.559
122,0.2016,142.559
123,0.203267,142.433
124,0.204933,142.068
125,0.206717,141.703
126,0.208267,141.703
127,0.209933,141.628
128,0.2116,141.509
129,0.213267,141.568
130,0.214933,141.568
131,0.2166,141.442
132,0.218267,141.27
133,0.219933,141.323
134,0.2216,141.323
135,0.223267,141.405
136,0.224933,141.591
137,0.2266,141.591
138,0.228267,141.65
139,0.229933,141.591
140,0.2316,141.785
141,0.23325,141.785
142,0.234917,142.105
143,0.236583,142.395
144,0.23825,142.47
145,0.239917,142.47
146,0.241583,142.336
147,0.24325,141.941
148,0.244917,141.65
149,0.246583,141.65
150,0.24825,141.561
151,0.249917,141.71
152,0.251583,142.142
153,0.25325,142.142
154,0.254917,142.291
155,0.256583,142.328
156,0.258267,142.328
157,0.259917,142.12
158,0.261583,141.963
159,0.26325,142.053
160,0.264917,142.053
161,0.2666,142.358
162,0.26825,142.574
163,0.269917,142.515
164,0.271583,142.515
165,0.27325,142.634
166,0.274917,142.753
167,0.276583,142.79
168,0.27825,142.79
169,0.279917,142.947
170,0.281583,142.977
171,0.28325,142.977
172,0.284917,143.267
173,0.286583,143.588
174,0.28825,143.863
175,0.289917,143.863
176,0.291633,144.31
177,0.29325,145.04
178,0.2949,146.009
179,0.296567,146.009
180,0.298233,147.335
181,0.2999,149.131
182,0.301567,151.463
183,0.303233,151.463
184,0.3049,154.234
185,0.306567,157.818
186,0.308283,162.08
187,0.3099,162.08
188,0.311567,166.818
189,0.313233,172.786
190,0.3149,172.786
191,0.316567,179.067
192,0.318233,185.758
193,0.3199,192.814
194,0.321567,192.814
195,0.323233,199.638
196,0.325017,206.813
197,0.326567,213.593
198,0.328233,213.593
199,0.3299,219.993
200,0.331567,226.609
201,0.333233,232.98
202,0.3349,232.98
203,0.336567,239.447
204,0.338233,246.234
205,0.3399,246.234
206,0.341567,253.096
207,0.343233,260.8
208,0.3449,269.301
209,0.346567,269.301
210,0.348233,278.912
211,0.3499,289.083
212,0.351567,299.908
213,0.353217,299.908
214,0.354883,311.978
215,0.35655,325.091
216,0.358217,339.709
217,0.359883,339.709
218,0.36155,355.84
219,0.363217,372.946
220,0.364883,372.946
221,0.36655,390.828
222,0.368217,409.707
223,0.369883,429.697
224,0.37155,429.697
225,0.373217,450.596
226,0.374883,473.067
227,0.37655,496.715
228,0.378217,496.715
229,0.379883,521.697
230,0.38155,548.773
231,0.383217,577.346
232,0.384883,577.346
233,0.38655,608.34
234,0.388217,641.704
235,0.389883,678.159
236,0.39155,678.159
237,0.393217,718.5940000000001
238,0.394883,764.236
239,0.39655,764.236
240,0.398217,816.9930000000001
241,0.399883,878.975
242,0.40155,952.937
243,0.403233,952.937
244,0.404883,1042.202
245,0.40655,1150.779
246,0.408217,1282.401
247,0.409967,1282.401
248,0.41155,1441.352
249,0.413233,1631.178
250,0.414867,1855.09
251,0.416533,1855.09
252,0.4182,2115.622
253,0.419867,2414.316
254,0.421533,2414.316
255,0.4232,2751.626
256,0.424867,3127.046
257,0.42655,3538.206
258,0.4282,3538.206
259,0.429867,3982.455
260,0.431533,4455.805
261,0.4332,4952.908
262,0.434867,4952.908
263,0.436533,5469.039
264,0.4382,5997.069
265,0.439867,6530.754
266,0.441533,6530.754
267,0.443317,7063.314
268,0.444867,7587.671
269,0.446533,8097.798
270,0.4482,8097.798
271,0.449867,8585.215
272,0.451533,9042.263000000001
273,0.4532,9042.263000000001
274,0.454867,9461.916999999999
275,0.456533,9836.019
276,0.4582,10157.98
277,0.459867,10157.98
278,0.461533,10420.911
279,0.4632,10618.031
280,0.464867,10744.37
281,0.466533,10744.37
282,0.468183,10796.771
283,0.46985,10773.354
284,0.471517,10674.559
285,0.473183,10674.559
286,0.474833,10502.398
287,0.4765,10261.335
288,0.478167,10261.335
289,0.479833,9958.931
290,0.4815,9603.664000000001
291,0.483167,9206.474
292,0.484833,9206.474
293,0.4865,8777.932000000001
294,0.4882,8328.110000000001
295,0.48985,7868.044
296,0.4915,7868.044
297,0.493167,7406.548
298,0.494833,6951.585
299,0.4965,6509.595
300,0.498167,6509.595
301,0.499833,6084.74
302,0.5014999999999999,5681.209
303,0.503167,5681.209
304,0.504833,5300.738
305,0.5065,4944.496
306,0.508167,4612.803
307,0.509833,4612.803
308,0.5115,4304.551
309,0.513167,4019.864
310,0.514833,3757.82
311,0.5165,3757.82
312,0.518167,3516.428
313,0.519833,3294.602
314,0.5215,3090.724
315,0.523167,3090.724
316,0.524833,2903.208
317,0.5265,2730.764
318,0.5281670000000001,2572.387
319,0.529833,2572.387
320,0.5315,2425.991
321,0.5331669999999999,2290.905
322,0.534817,2290.905
323,0.536483,2166.45
324,0.53815,2051.048
325,0.539817,1944.84
326,0.541483,1944.84
327,0.54315,1846.068
328,0.544817,1754.582
329,0.5464830000000001,1669.712
330,0.54815,1669.712
331,0.549817,1590.245
332,0.5514829999999999,1516.7
333,0.55315,1448.095
334,0.554817,1448.095
335,0.5564829999999999,1383.871
336,0.55815,1324.132
337,0.559817,1324.132
338,0.5615830000000001,1267.865
339,0.56315,1215.16
340,0.564817,1165.785
341,0.566483,1165.785
342,0.56815,1119.547
343,0.569817,1076.095
344,0.571483,1035.012
345,0.57315,1035.012
346,0.574817,996.202
347,0.576483,959.694
348,0.5781500000000001,925.377
349,0.579817,925.377
350,0.581483,892.706
351,0.5831499999999999,862.0549999999999
352,0.584817,832.558
353,0.586483,832.558
354,0.58815,804.693
355,0.589817,778.779
356,0.591483,778.779
357,0.593133,754.155
358,0.5948,731.006
359,0.596467,708.573
360,0.598133,708.573
361,0.5998,686.996
362,0.601467,666.484
363,0.603133,647.239
364,0.6048,647.239
365,0.606467,628.9109999999999
366,0.608133,611.544
367,0.6098,594.8920000000001
368,0.611467,594.8920000000001
369,0.613133,578.59
370,0.6148,563.346
371,0.616467,563.346
372,0.618133,548.638
373,0.6198,534.989
374,0.621467,521.809
375,0.62315,521.809
376,0.6248,509.158
377,0.626467,496.827
378,0.6281330000000001,484.809
379,0.6298,484.809
380,0.631467,473.395
381,0.6331329999999999,462.48
382,0.6348,452.474
383,0.636467,452.474
384,0.638133,442.609
385,0.6398,433.125
386,0.641467,423.998
387,0.643133,423.998
388,0.6448,415.139
389,0.646533,406.735
390,0.648133,406.735
391,0.6498,398.524
392,0.651467,390.746
393,0.6531169999999999,383.213
394,0.654783,383.213
395,0.65645,375.755
396,0.658117,368.632
397,0.659783,362.106
398,0.661467,362.106
399,0.663117,355.765
400,0.664783,350.028
401,0.66645,344.135
402,0.668117,344.135
403,0.669783,338.115
404,0.67145,332.341
405,0.673117,332.341
406,0.674783,326.686
407,0.67645,321.507
408,0.678117,316.441
409,0.6798999999999999,316.441
410,0.68145,311.948
411,0.683117,307.322
412,0.684783,303.306
413,0.68645,303.306
414,0.688117,299.379
415,0.689783,295.214
416,0.69145,291.072
417,0.693117,291.072
418,0.694783,286.527
419,0.69645,282.362
420,0.698117,278.57
421,0.699783,278.57
422,0.701467,275.016
423,0.703133,271.671
424,0.704783,271.671
425,0.70645,268.184
426,0.708117,264.682
427,0.7097830000000001,261.396
428,0.71145,261.396
429,0.713117,258.438
430,0.714767,255.816
431,0.716433,252.903
432,0.7181,252.903
433,0.719767,250.354
434,0.721433,248
435,0.7231,245.556
436,0.7247670000000001,245.556
437,0.726433,243.343
438,0.7281,240.974
439,0.7297670000000001,240.974
440,0.731433,238.523
441,0.7331,236.243
442,0.7347669999999999,233.926
443,0.736433,233.926
444,0.7381,231.728
445,0.739767,229.5
446,0.741433,227.31
447,0.7431,227.31
448,0.744767,225.194
449,0.746433,223.152
450,0.7481,221.342
451,0.749767,221.342
452,0.751433,219.479
453,0.7531,217.81
454,0.754767,217.81
455,0.756433,216.208
456,0.7581,214.383
457,0.75975,212.505
458,0.761417,212.505
459,0.763083,211.164
460,0.76475,209.749
461,0.766417,208.408
462,0.768133,208.408
463,0.76975,207.23
464,0.771417,205.353
465,0.773083,203.833
466,0.774733,203.833
467,0.7764,202.522
468,0.778067,201.136
469,0.779733,199.907
470,0.7814,199.907
471,0.783067,198.334
472,0.784733,197.217
473,0.7864,197.217
474,0.788067,196.092
475,0.789733,195.168
476,0.7914,194.222
477,0.793067,194.222
478,0.794733,192.776
479,0.7964,191.748
480,0.798167,190.556
481,0.799733,190.556
482,0.8014,189.349
483,0.803067,188.597
484,0.804733,187.71
485,0.8064,187.71
486,0.808067,186.995
487,0.809733,186.428
488,0.8114,186.428
489,0.813067,185.326
490,0.814733,184.111
491,0.8164,182.904
492,0.818067,182.904
493,0.819733,181.988
494,0.8214,181.228
495,0.823067,180.803
496,0.824733,180.803
497,0.8264,180.148
498,0.828067,179.343
499,0.8297330000000001,178.71
500,0.8314,178.71
501,0.833067,177.749
502,0.834717,177.264
503,0.8364,176.78
504,0.83805,176.78
505,0.839717,176.564
506,0.841383,176.013
507,0.843067,176.013
508,0.8447170000000001,175.431
509,0.846383,174.679
510,0.84805,173.74
511,0.8497169999999999,173.74
512,0.851383,173.151
513,0.85305,172.459
514,0.8547169999999999,172.064
515,0.856383,172.064
516,0.85805,171.468
517,0.859717,170.998
518,0.861383,170.402
519,0.86305,170.402
520,0.864717,169.933
521,0.866383,169.68
522,0.86805,169.68
523,0.869717,169.359
524,0.871383,169.024
525,0.87305,168.584
526,0.874717,168.584
527,0.876383,167.817
528,0.87805,167.303
529,0.879717,166.997
530,0.881383,166.997
531,0.883083,166.535
532,0.884717,166.312
533,0.886383,165.932
534,0.88805,165.932
535,0.889717,165.448
536,0.891383,165.246
537,0.89305,165.246
538,0.8947000000000001,164.829
539,0.896367,164.434
540,0.898033,164.062
541,0.899767,164.062
542,0.901367,163.682
543,0.903033,163.481
544,0.9046999999999999,163.443
545,0.906367,163.443
546,0.908033,163.376
547,0.9097,163.13
548,0.911367,162.832
549,0.913033,162.832
550,0.9147,162.363
551,0.9165,161.752
552,0.918033,161.126
553,0.9197,161.126
554,0.921367,160.709
555,0.923033,160.091
556,0.9247,160.091
557,0.9263670000000001,159.964
558,0.928033,159.666
559,0.9297,159.323
560,0.9313669999999999,159.323
561,0.933033,159.167
562,0.9347,158.98
563,0.9363669999999999,158.869
564,0.938033,158.869
565,0.9397,158.906
566,0.941367,158.727
567,0.943033,158.504
568,0.9447,158.504
569,0.946367,158.124
570,0.948033,157.632
571,0.9497,157.632
572,0.951367,157.654
573,0.953033,157.274
574,0.9546829999999999,157.215
575,0.95635,157.215
576,0.958017,157.215
577,0.959683,156.939
578,0.96135,156.82
579,0.963017,156.82
580,0.964683,156.663
581,0.96635,156.559
582,0.968017,156.313
583,0.969683,156.313
584,0.97135,156.328
585,0.973017,156.023
586,0.974683,155.643
587,0.9763500000000001,155.643
588,0.978017,155.598
589,0.979683,155.404
590,0.9813499999999999,155.404
591,0.98305,155.285
592,0.9847,155.345
593,0.9863499999999999,155.047
594,0.988017,155.047
595,0.989683,154.749
596,0.99135,154.503
597,0.993017,154.279
598,0.994683,154.279
599,0.99635,154.167
600,0.998017,153.817
601,0.999683,153.78
602,1.00135,153.78
603,1.003017,153.743
604,1.004683,153.773
605,1.00635,153.773
606,1.008017,153.646
607,1.009683,153.46
608,1.01135,153.08
609,1.013,153.08
610,1.014667,152.752
611,1.016333,152.893
612,1.018067,152.893
613,1.019667,152.893
614,1.021333,152.67
615,1.023,152.417
616,1.024667,151.917
617,1.026333,151.917
618,1.028,151.716
619,1.029667,151.835
620,1.031333,151.969
621,1.033,151.969
622,1.03475,152.193
623,1.036333,151.858
624,1.038,151.858
625,1.039667,151.47
626,1.041333,151.448
627,1.043,151.508
628,1.044667,151.508
629,1.046333,151.575
630,1.048,151.612
631,1.049667,151.068
632,1.051317,151.068
633,1.052983,150.651
634,1.05465,150.546
635,1.056317,150.375
636,1.057983,150.375
637,1.05965,150.599
638,1.061333,150.673
639,1.062983,150.673
640,1.064667,150.584
641,1.066317,150.532
642,1.067983,150.323
643,1.06965,150.323
644,1.071317,150.07
645,1.072967,149.876
646,1.074633,149.861
647,1.0763,149.861
648,1.077967,149.779
649,1.079633,149.764
650,1.0813,149.712
651,1.082967,149.712
652,1.084633,149.541
653,1.0863,149.652
654,1.087967,149.652
655,1.089633,149.451
656,1.0913,149.548
657,1.092967,149.496
658,1.094633,149.496
659,1.0963,149.347
660,1.097967,149.652
661,1.099633,149.57
662,1.1013,149.57
663,1.102967,149.496
664,1.104633,149.474
665,1.1063,149.071
666,1.107967,149.071
667,1.109633,149.116
668,1.1113,149.19
669,1.112967,149.176
670,1.114633,149.176
671,1.1163,149.28
672,1.117967,149.459
673,1.11965,149.459
674,1.1213,149.623
675,1.122967,149.347
676,1.124633,149.213
677,1.126317,149.213
678,1.127967,148.706
679,1.129633,148.274
680,1.1313,148.118
681,1.132967,148.118
682,1.134667,148.073
683,1.136417,148.08
684,1.13795,148.192
685,1.139617,148.192
686,1.141283,148.296
687,1.14295,148.021
688,1.144617,148.021
689,1.146283,147.849
690,1.14795,147.76
691,1.149617,147.596
692,1.151283,147.596
693,1.15295,147.842
694,1.154617,148.08
695,1.156283,147.879
696,1.15795,147.879
697,1.159617,147.7
698,1.161283,147.603
699,1.16295,147.38
700,1.164617,147.38
701,1.166283,147.499
702,1.16795,147.611
703,1.169733,147.529
704,1.171283,147.529
705,1.17295,147.507
706,1.174617,147.693
707,1.176283,147.693
708,1.17795,147.82
709,1.179617,147.879
710,1.181283,147.73
711,1.18295,147.73
712,1.184617,147.097
713,1.186283,146.933
714,1.18795,146.97
715,1.189617,146.97
716,1.191283,147.127
717,1.192933,147.536
718,1.1946,147.447
719,1.196267,147.447
720,1.197933,147.231
721,1.1996,147.372
722,1.201267,147.372
723,1.202933,147.44
724,1.2046,147.477
725,1.206267,147.305
726,1.207933,147.305
727,1.209667,147.022
728,1.211267,146.717
729,1.212933,146.791
730,1.2146,146.791
731,1.216267,147.209
732,1.217933,147.35
733,1.2196,147.499
734,1.221267,147.499
735,1.222933,147.246
736,1.2246,147.007
737,1.226267,146.896
738,1.227933,146.896
739,1.2296,146.739
740,1.231267,146.836
741,1.232933,146.836
742,1.2346,146.575
743,1.236267,146.68
744,1.237933,146.851
745,1.2396,146.851
746,1.241267,146.538
747,1.242933,146.762
748,1.2446,146.627
749,1.246267,146.627
750,1.247933,146.337
751,1.2496,146.56
752,1.251267,146.553
753,1.252917,146.553
754,1.254633,146.471
755,1.25625,146.464
756,1.257917,146.464
757,1.259583,146.531
758,1.26125,146.389
759,1.262917,146.314
760,1.264583,146.314
761,1.26625,146.583
762,1.267917,146.501
763,1.269583,146.635
764,1.27125,146.635
765,1.272917,146.762
766,1.274583,146.575
767,1.27625,146.829
768,1.277917,146.829
769,1.279583,146.65
770,1.28125,146.657
771,1.282917,146.59
772,1.284583,146.59
773,1.286283,146.203
774,1.288017,146.016
775,1.289583,146.016
776,1.29125,145.845
777,1.292933,145.718
778,1.294583,145.86
779,1.29625,145.86
780,1.297917,145.778
781,1.299583,145.823
782,1.30125,145.905
783,1.302917,145.905
784,1.304583,145.92
785,1.30625,146.277
786,1.307917,146.225
787,1.309583,146.225
788,1.31125,146.314
789,1.3129,146.21
790,1.314567,146.21
791,1.316233,146.195
792,1.3179,146.158
793,1.319567,146.091
794,1.321233,146.091
795,1.3229,146.307
796,1.324567,145.8
797,1.326233,145.577
798,1.3279,145.577
799,1.329567,145.674
800,1.331233,145.562
801,1.3329,145.86
802,1.334567,145.86
803,1.336233,145.935
804,1.3379,145.853
805,1.339567,145.853
806,1.341233,145.517
807,1.342883,145.428
808,1.34455,145.353
809,1.346217,145.353
810,1.347883,145.078
811,1.34955,145.108
812,1.351217,145.085
813,1.352883,145.085
814,1.35455,145.1
815,1.356217,145.063
816,1.357883,145.353
817,1.359567,145.353
818,1.361217,145.525
819,1.362883,145.718
820,1.36455,145.882
821,1.366217,145.882
822,1.367883,145.614
823,1.36955,145.681
824,1.3712,145.681
825,1.372883,145.756
826,1.374533,145.644
827,1.3762,145.823
828,1.377867,145.823
829,1.379533,145.473
830,1.3812,145.331
831,1.382867,145.286
832,1.384533,145.286
833,1.3862,145.003
834,1.387867,145.115
835,1.389533,144.795
836,1.3912,144.795
837,1.392867,144.504
838,1.394533,144.377
839,1.3962,144.377
840,1.397867,144.474
841,1.399533,144.623
842,1.4012,144.877
843,1.402867,144.877
844,1.404533,145.286
845,1.406317,145.338
846,1.407867,145.376
847,1.409533,145.376
848,1.4112,145.189
849,1.412867,144.899
850,1.414533,144.869
851,1.4162,144.869
852,1.417867,145.07
853,1.419533,145.197
854,1.4212,145.078
855,1.422867,145.078
856,1.424533,144.579
857,1.4262,144.31
858,1.427867,144.31
859,1.429533,144.586
860,1.4312,144.981
861,1.43285,145.301
862,1.434517,145.301
863,1.436183,145.659
864,1.43785,145.435
865,1.439517,144.936
866,1.441183,144.936
867,1.44285,144.809
868,1.444517,144.377
869,1.446183,144.266
870,1.44785,144.266
871,1.449517,144.325
872,1.451183,144.392
873,1.452867,144.392
874,1.454517,144.415
875,1.456183,144.385
876,1.45785,144.534
877,1.459517,144.534
878,1.461183,144.579
879,1.46285,144.66
880,1.464517,144.698
881,1.466183,144.698
882,1.467867,144.362
883,1.469517,144.236
884,1.471183,143.953
885,1.47285,143.953
886,1.474517,143.915
887,1.476183,144.064
888,1.47785,143.96
889,1.479517,143.96
890,1.481183,144.161
891,1.48285,143.982
892,1.484517,143.982
893,1.486183,144.117
894,1.48785,144.407
895,1.489517,144.213
896,1.4912,144.213
897,1.492867,144.362
898,1.4945,144.243
899,1.496167,144.064
900,1.497833,144.064
901,1.4995,144.34
902,1.501167,144.586
903,1.502833,144.638
904,1.5045,144.638
905,1.506167,144.78
906,1.507833,144.735
907,1.5095,144.735
908,1.511167,144.526
909,1.512833,144.593
910,1.5145,144.638
911,1.516167,144.638
912,1.517833,144.504
913,1.5195,144.303
914,1.521167,143.871
915,1.522833,143.871
916,1.524617,143.55
917,1.526167,143.543
918,1.527833,143.953
919,1.5295,143.953
920,1.531167,144.415
921,1.532833,144.31
922,1.5345,144.31
923,1.536167,144.452
924,1.537833,144.161
925,1.5395,143.938
926,1.541167,143.938
927,1.542833,143.901
928,1.5445,143.498
929,1.546167,143.64
930,1.547833,143.64
931,1.5495,143.699
932,1.551167,143.707
933,1.552817,143.997
934,1.554483,143.997
935,1.55615,143.826
936,1.557817,143.893
937,1.559483,144.094
938,1.56115,144.094
939,1.562817,143.863
940,1.564483,143.722
941,1.56615,143.722
942,1.567833,143.439
943,1.569483,143.416
944,1.57115,143.61
945,1.572817,143.61
946,1.574483,143.856
947,1.57615,144.02
948,1.577817,143.819
949,1.579483,143.819
950,1.58115,143.893
951,1.582817,143.789
952,1.584483,143.781
953,1.58615,143.781
954,1.587817,143.684
955,1.589483,143.737
956,1.59115,143.737
957,1.592817,143.684
958,1.594483,143.744
959,1.59615,143.99
