"ID","sea_time","fid_signal"
1,0,1164.377
2,0.001667,1164.377
3,0.003333,1165.271
4,0.005,1165.196
5,0.006667,1165.196
6,0.008333,1166.388
7,0.01,1169.816
8,0.011667,1169.667
9,0.0134,1169.667
10,0.015,1169.369
11,0.016667,1166.016
12,0.018333,1165.122
13,0.02,1165.122
14,0.021667,1164.377
15,0.023333,1165.569
16,0.025,1167.432
17,0.026667,1167.432
18,0.028333,1166.612
19,0.03,1165.718
20,0.031667,1165.718
21,0.033333,1165.196
22,0.035,1164.377
23,0.036667,1164.749
24,0.038333,1164.749
25,0.039983,1163.781
26,0.04165,1163.185
27,0.043317,1163.408
28,0.044967,1163.408
29,0.046767,1165.643
30,0.0483,1168.773
31,0.049967,1170.337
32,0.051633,1170.337
33,0.0533,1171.976
34,0.054967,1173.69
35,0.05665,1173.69
36,0.0583,1173.69
37,0.059967,1172.2
38,0.061633,1173.466
39,0.0633,1173.466
40,0.064967,1169.816
41,0.06668300000000001,1166.761
42,0.0683,1167.804
43,0.069967,1167.804
44,0.071633,1165.345
45,0.0733,1165.122
46,0.07496700000000001,1166.686
47,0.07663300000000001,1166.686
48,0.07829999999999999,1166.314
49,0.079967,1166.91
50,0.081633,1169.22
51,0.0833,1169.22
52,0.084967,1169.22
53,0.086633,1168.4
54,0.0883,1168.4
55,0.08996700000000001,1169.518
56,0.09163300000000001,1167.729
57,0.09329999999999999,1167.804
58,0.094967,1167.804
59,0.096633,1169.22
60,0.0983,1170.635
61,0.099967,1169.89
62,0.101633,1169.89
63,0.1033,1169.816
64,0.10495,1171.082
65,0.106617,1169.741
66,0.108283,1169.741
67,0.10995,1172.051
68,0.111617,1170.71
69,0.113283,1170.71
70,0.11495,1167.059
71,0.116617,1161.844
72,0.118283,1157.075
73,0.11995,1157.075
74,0.121617,1159.161
75,0.123283,1163.036
76,0.12495,1168.549
77,0.126617,1168.549
78,0.128283,1171.306
79,0.12995,1169.667
80,0.131683,1167.282
81,0.133283,1167.282
82,0.13495,1167.432
83,0.136617,1166.835
84,0.138283,1168.326
85,0.13995,1168.326
86,0.141617,1170.412
87,0.143283,1168.326
88,0.14495,1168.326
89,0.146617,1168.027
90,0.148283,1164.749
91,0.14995,1162.216
92,0.151617,1162.216
93,0.153283,1163.036
94,0.15495,1164.6
95,0.156617,1167.059
96,0.158283,1167.059
97,0.15995,1167.729
98,0.161617,1167.953
99,0.163283,1170.412
100,0.165067,1170.412
101,0.1666,1171.455
102,0.168267,1171.306
103,0.169933,1171.306
104,0.1716,1169.592
105,0.173267,1169.071
106,0.174933,1172.051
107,0.1766,1172.051
108,0.178267,1175.106
109,0.179933,1175.329
110,0.1816,1173.988
111,0.183267,1173.988
112,0.184933,1168.475
113,0.1866,1164.973
114,0.188267,1165.42
115,0.189933,1165.42
116,0.1916,1162.663
117,0.193267,1164.302
118,0.194933,1163.855
119,0.1966,1163.855
120,0.198267,1163.781
121,0.199933,1166.239
122,0.2016,1166.239
123,0.203267,1165.494
124,0.20495,1165.569
125,0.2066,1164.6
126,0.208267,1164.6
127,0.209933,1163.706
128,0.2116,1166.463
129,0.213267,1166.91
130,0.214933,1166.91
131,0.2166,1167.804
132,0.218267,1167.953
133,0.219933,1166.686
134,0.2216,1166.686
135,0.223267,1167.059
136,0.224917,1168.773
137,0.226583,1168.773
138,0.22825,1170.784
139,0.229917,1169.443
140,0.231583,1168.996
141,0.23325,1168.996
142,0.234917,1167.208
143,0.236583,1167.208
144,0.23825,1170.188
145,0.239917,1170.188
146,0.241583,1170.561
147,0.24325,1171.38
148,0.244917,1168.996
149,0.246583,1168.996
150,0.24825,1166.612
151,0.249967,1168.102
152,0.251583,1166.388
153,0.25325,1166.388
154,0.254917,1164.6
155,0.256583,1163.11
156,0.25825,1163.11
157,0.259917,1161.546
158,0.261583,1164.079
159,0.26325,1165.941
160,0.264917,1165.941
161,0.266583,1165.718
162,0.26825,1167.357
163,0.269917,1165.792
164,0.271583,1165.792
165,0.27325,1167.208
166,0.274917,1167.729
167,0.276583,1169.443
168,0.278283,1169.443
169,0.279917,1172.498
170,0.281583,1173.988
171,0.283367,1176.149
172,0.284917,1176.149
173,0.286567,1176.372
174,0.288233,1175.702
175,0.2899,1175.702
176,0.291567,1174.063
177,0.293233,1176.819
178,0.2949,1175.404
179,0.296567,1175.404
180,0.298233,1176.372
181,0.2999,1179.65
182,0.301567,1179.278
183,0.303233,1179.278
184,0.3049,1185.089
185,0.306567,1191.273
186,0.308233,1198.5
187,0.3099,1198.5
188,0.311567,1206.994
189,0.313233,1213.253
190,0.3149,1213.253
191,0.316567,1219.437
192,0.318233,1230.314
193,0.3199,1240.149
194,0.321567,1240.149
195,0.323233,1250.431
196,0.3249,1261.607
197,0.326567,1266.748
198,0.328233,1266.748
199,0.3299,1273.528
200,0.33155,1281.425
201,0.333217,1287.609
202,0.334883,1287.609
203,0.33655,1295.954
204,0.338217,1303.926
205,0.339883,1303.926
206,0.34155,1311.675
207,0.343217,1320.243
208,0.344917,1326.501
209,0.346533,1326.501
210,0.3482,1333.281
211,0.349867,1339.912
212,0.351533,1347.363
213,0.3532,1347.363
214,0.354867,1358.539
215,0.356533,1371.95
216,0.358217,1386.926
217,0.359867,1386.926
218,0.361533,1406.148
219,0.3632,1426.786
220,0.364867,1426.786
221,0.366533,1446.009
222,0.368267,1467.019
223,0.369867,1489.297
224,0.371533,1489.297
225,0.3732,1511.052
226,0.374867,1536.459
227,0.376533,1565.516
228,0.3782,1565.516
229,0.379867,1589.805
230,0.381533,1620.948
231,0.3832,1653.06
232,0.384867,1653.06
233,0.386533,1686.141
234,0.3882,1726.672
235,0.389867,1766.831
236,0.391533,1766.831
237,0.3932,1815.632
238,0.394867,1869.872
239,0.396533,1869.872
240,0.3982,1937.375
241,0.399867,2021.119
242,0.40165,2125.427
243,0.4032,2125.427
244,0.40485,2257.824
245,0.406517,2419.651
246,0.408183,2617.91
247,0.40985,2617.91
248,0.411517,2855.808
249,0.413183,3139.451
250,0.41485,3472.79
251,0.416517,3472.79
252,0.418183,3859.177
253,0.419883,4298.091
254,0.421517,4298.091
255,0.423183,4788.488
256,0.42485,5330.891
257,0.426517,5923.36
258,0.428183,5923.36
259,0.42985,6561.205
260,0.431517,7241.964
261,0.433183,7956.549
262,0.43485,7956.549
263,0.436517,8696.243
264,0.438183,9457.468999999999
265,0.43985,10234.043
266,0.441517,10234.043
267,0.443183,11020.452
268,0.44485,11809.469
269,0.446517,12600.72
270,0.448183,12600.72
271,0.44985,13376.475
272,0.451517,14135.167
273,0.453183,14135.167
274,0.45485,14868.677
275,0.456517,15563.294
276,0.458183,16216.859
277,0.45985,16216.859
278,0.461517,16816.631
279,0.463183,17347.709
280,0.464833,17797.648
281,0.4665,17797.648
282,0.468167,18155.053
283,0.469833,18403.008
284,0.4715,18534.213
285,0.473167,18534.213
286,0.474833,18535.555
287,0.4765,18399.432
288,0.478167,18399.432
289,0.479833,18121.004
290,0.4815,17703.771
291,0.483167,17155.482
292,0.484833,17155.482
293,0.486533,16486.793
294,0.488167,15718.117
295,0.489833,14877.99
296,0.4915,14877.99
297,0.493167,13991.445
298,0.494833,13087.913
299,0.4965,12193.844
300,0.498167,12193.844
301,0.499833,11324.063
302,0.5014999999999999,10496.452
303,0.503267,9722.263000000001
304,0.504833,9722.263000000001
305,0.5065,9006.112999999999
306,0.508167,8351.579
307,0.509833,8351.579
308,0.5115,7755.235
309,0.5131829999999999,7214.621
310,0.514833,6726.384
311,0.5165,6726.384
312,0.518167,6283.149
313,0.51995,5885.139
314,0.5215,5529.896
315,0.52315,5529.896
316,0.524817,5211.234
317,0.526483,4924.014
318,0.52815,4662.573
319,0.529817,4662.573
320,0.531483,4422.292
321,0.53315,4202.649
322,0.534817,4202.649
323,0.536483,4006.773
324,0.53815,3831.386
325,0.539833,3670.901
326,0.541483,3670.901
327,0.54315,3526.36
328,0.544817,3388.449
329,0.5464830000000001,3261.268
330,0.54815,3261.268
331,0.549817,3143.027
332,0.5514829999999999,3034.994
333,0.55315,2937.168
334,0.554817,2937.168
335,0.5564829999999999,2844.259
336,0.55815,2759.248
337,0.559817,2759.248
338,0.561483,2676.025
339,0.56315,2601.594
340,0.564817,2533.048
341,0.566483,2533.048
342,0.56815,2469.644
343,0.569817,2410.561
344,0.571483,2352.968
345,0.57315,2352.968
346,0.574817,2301.633
347,0.576483,2251.267
348,0.5781500000000001,2203.584
349,0.579817,2203.584
350,0.581483,2159.849
351,0.5831499999999999,2116.933
352,0.5848,2079.979
353,0.586467,2079.979
354,0.588133,2046.898
355,0.5898,2011.508
356,0.591467,2011.508
357,0.593133,1975.67
358,0.5948,1939.833
359,0.596467,1905.859
360,0.598133,1905.859
361,0.5998,1877.695
362,0.601467,1852.14
363,0.603133,1829.937
364,0.6048,1829.937
365,0.606467,1807.362
366,0.608133,1781.657
367,0.6098,1758.933
368,0.611467,1758.933
369,0.613133,1735.464
370,0.6148169999999999,1712.441
371,0.616467,1712.441
372,0.618133,1693.89
373,0.6198,1675.934
374,0.621517,1658.797
375,0.623117,1658.797
376,0.624783,1644.343
377,0.62645,1631.752
378,0.628167,1617.297
379,0.629783,1617.297
380,0.63145,1602.322
381,0.633117,1588.762
382,0.634783,1573.861
383,0.63645,1573.861
384,0.6382,1560.375
385,0.639783,1549.274
386,0.64145,1537.204
387,0.6431,1537.204
388,0.644767,1524.687
389,0.646433,1514.852
390,0.6481,1514.852
391,0.649767,1503.229
392,0.651433,1492.947
393,0.6531,1486.316
394,0.6549,1486.316
395,0.656433,1477.227
396,0.6581,1470.67
397,0.659767,1462.251
398,0.661433,1462.251
399,0.6631,1451.746
400,0.664767,1442.656
401,0.6664330000000001,1430.214
402,0.6681,1430.214
403,0.669767,1422.092
404,0.6714329999999999,1413.748
405,0.6731,1413.748
406,0.674767,1407.564
407,0.676433,1405.031
408,0.6781,1398.399
409,0.679767,1398.399
410,0.681433,1391.172
411,0.6831,1385.584
412,0.684767,1376.644
413,0.686433,1376.644
414,0.688117,1372.248
415,0.689767,1367.778
416,0.691433,1361.668
417,0.6931,1361.668
418,0.694767,1360.178
419,0.69645,1354.888
420,0.698117,1352.727
421,0.699767,1352.727
422,0.701433,1346.394
423,0.7030999999999999,1341.03
424,0.70475,1341.03
425,0.706417,1337.007
426,0.708083,1329.854
427,0.70975,1328.662
428,0.711417,1328.662
429,0.713083,1323.074
430,0.71475,1319.274
431,0.716417,1316.89
432,0.718083,1316.89
433,0.71975,1313.388
434,0.721417,1309.663
435,0.723083,1304.671
436,0.72475,1304.671
437,0.726417,1301.84
438,0.728083,1294.985
439,0.72975,1294.985
440,0.731417,1294.613
441,0.733083,1292.229
442,0.73475,1288.28
443,0.736417,1288.28
444,0.738083,1288.429
445,0.7398169999999999,1283.661
446,0.741417,1281.276
447,0.743083,1281.276
448,0.74475,1280.457
449,0.746417,1274.496
450,0.7480830000000001,1271.814
451,0.74975,1271.814
452,0.751417,1270.92
453,0.7530829999999999,1266.673
454,0.75475,1266.673
455,0.756417,1270.026
456,0.758083,1270.25
457,0.75975,1266.897
458,0.761417,1266.897
459,0.763083,1264.96
460,0.764733,1261.979
461,0.7664,1259.074
462,0.7680670000000001,1259.074
463,0.769733,1258.701
464,0.7714,1259.744
465,0.7732,1257.286
466,0.77475,1257.286
467,0.77645,1256.913
468,0.778067,1252.815
469,0.779733,1250.953
470,0.7814,1250.953
471,0.783067,1247.6
472,0.784733,1245.365
473,0.7864,1245.365
474,0.788067,1247.972
475,0.789733,1246.557
476,0.7914,1248.196
477,0.793067,1248.196
478,0.794733,1246.035
479,0.7964,1243.576
480,0.798067,1241.192
481,0.799733,1241.192
482,0.8014,1234.785
483,0.803067,1230.612
484,0.804733,1228.973
485,0.8064,1228.973
486,0.808067,1227.409
487,0.809733,1227.409
488,0.8114,1227.409
489,0.813067,1228.303
490,0.814733,1223.385
491,0.8164,1222.044
492,0.818067,1222.044
493,0.819733,1221.523
494,0.8214,1218.468
495,0.823067,1221.15
496,0.824717,1221.15
497,0.826383,1222.491
498,0.82805,1224.056
499,0.829717,1225.323
500,0.831383,1225.323
501,0.83305,1223.236
502,0.834717,1222.119
503,0.836383,1219.511
504,0.83805,1219.511
505,0.839717,1218.99
506,0.841417,1220.48
507,0.843083,1220.48
508,0.8447170000000001,1217.648
509,0.846383,1216.978
510,0.84805,1213.476
511,0.8497169999999999,1213.476
512,0.851383,1210.198
513,0.85305,1209.304
514,0.8547169999999999,1208.186
515,0.856383,1208.186
516,0.858067,1211.166
517,0.859717,1209.751
518,0.861383,1208.931
519,0.86305,1208.931
520,0.864717,1208.708
521,0.866383,1206.026
522,0.86805,1206.026
523,0.869717,1207.59
524,0.871383,1206.994
525,0.87305,1205.355
526,0.874733,1205.355
527,0.876383,1206.771
528,0.87805,1206.547
529,0.879717,1205.057
530,0.881383,1205.057
531,0.883033,1205.131
532,0.8847,1204.386
533,0.886367,1201.108
534,0.888033,1201.108
535,0.8897,1201.555
536,0.891483,1200.14
537,0.893033,1197.085
538,0.8947000000000001,1197.085
539,0.896367,1197.085
540,0.898033,1196.414
541,0.8997000000000001,1196.414
542,0.901367,1196.638
543,0.903033,1197.606
544,0.9046999999999999,1195.893
545,0.906367,1195.893
546,0.908033,1195.595
547,0.9097,1196.489
548,0.911367,1197.904
549,0.913017,1197.904
550,0.914717,1199.245
551,0.91635,1198.277
552,0.918017,1197.532
553,0.919683,1197.532
554,0.92135,1195.818
555,0.923017,1197.159
556,0.924683,1197.159
557,0.92635,1193.434
558,0.928017,1192.987
559,0.929683,1191.646
560,0.93135,1191.646
561,0.933017,1188.74
562,0.934683,1189.411
563,0.93635,1187.399
564,0.938017,1187.399
565,0.939683,1186.877
566,0.94135,1186.729
567,0.9429999999999999,1189.709
568,0.944667,1189.709
569,0.946333,1192.242
570,0.948,1190.826
571,0.949667,1190.826
572,0.951333,1187.846
573,0.953,1187.772
574,0.954667,1184.866
575,0.956333,1184.866
576,0.958,1188.74
577,0.959667,1192.987
578,0.961333,1190.677
579,0.963,1190.677
580,0.9646670000000001,1193.807
581,0.966333,1194.477
582,0.968,1191.944
583,0.9696669999999999,1191.944
584,0.971333,1195.222
585,0.973,1192.242
586,0.974667,1187.846
587,0.976383,1187.846
588,0.978,1188.74
589,0.979667,1186.207
590,0.981333,1186.207
591,0.983,1188.219
592,0.984683,1187.846
593,0.986333,1188.666
594,0.988,1188.666
595,0.989667,1187.25
596,0.991333,1185.238
597,0.993,1184.419
598,0.994667,1184.419
599,0.996333,1182.035
600,0.998,1183.078
601,0.999667,1181.737
602,1.001333,1181.737
603,1.003,1185.313
604,1.00465,1184.717
605,1.006317,1184.717
606,1.007983,1185.313
607,1.009767,1186.132
608,1.011317,1185.685
609,1.012983,1185.685
610,1.01465,1187.846
611,1.016317,1188.889
612,1.017983,1187.921
613,1.01965,1187.921
614,1.021317,1184.717
615,1.022983,1183.525
616,1.02465,1181.141
617,1.026317,1181.141
618,1.027983,1180.545
619,1.02965,1181.662
620,1.031317,1181.886
621,1.032983,1181.886
622,1.03465,1183.525
623,1.036317,1183.525
624,1.037983,1183.525
625,1.03965,1179.799
626,1.041317,1179.054
627,1.042983,1177.117
628,1.04465,1177.117
629,1.046317,1178.309
630,1.047983,1182.482
631,1.04965,1184.493
632,1.051317,1184.493
633,1.052983,1184.493
634,1.05465,1183.152
635,1.056317,1181.588
636,1.057983,1181.588
637,1.05965,1181.811
638,1.0613,1181.215
639,1.062983,1181.215
640,1.064633,1179.725
641,1.0663,1179.65
642,1.067967,1175.851
643,1.069633,1175.851
644,1.0713,1176.745
645,1.072967,1178.756
646,1.074633,1179.948
647,1.0763,1179.948
648,1.077967,1179.352
649,1.079633,1178.16
650,1.0813,1177.713
651,1.082967,1177.713
652,1.084633,1175.106
653,1.0863,1180.843
654,1.087967,1181.886
655,1.089633,1181.886
656,1.091317,1184.493
657,1.092967,1189.56
658,1.0947,1189.56
659,1.0963,1185.611
660,1.097967,1183.674
661,1.099633,1181.886
662,1.1013,1181.886
663,1.102967,1177.862
664,1.104633,1176.372
665,1.1063,1176.372
666,1.107967,1176.372
667,1.109633,1177.49
668,1.1113,1178.905
669,1.112967,1180.172
670,1.114633,1180.172
671,1.1163,1180.023
672,1.117967,1175.404
673,1.119633,1175.404
674,1.1213,1174.063
675,1.122983,1174.212
676,1.124617,1175.106
677,1.126283,1175.106
678,1.128067,1177.639
679,1.129617,1178.905
680,1.131283,1177.341
681,1.13295,1177.341
682,1.134617,1175.776
683,1.136283,1175.478
684,1.13795,1176.149
685,1.139617,1176.149
686,1.141283,1176.447
687,1.14295,1180.693
688,1.144617,1180.693
689,1.146283,1184.195
690,1.14795,1182.929
691,1.149617,1181.737
692,1.151283,1181.737
693,1.15295,1179.799
694,1.154617,1178.905
695,1.156283,1178.831
696,1.157983,1178.831
697,1.159617,1181.96
698,1.161283,1180.246
699,1.16295,1177.49
700,1.164617,1177.49
701,1.166283,1176
702,1.16795,1174.659
703,1.169617,1173.541
704,1.171283,1173.541
705,1.17295,1174.733
706,1.174617,1175.925
707,1.176283,1175.925
708,1.17795,1174.733
709,1.179617,1177.639
710,1.181283,1179.352
711,1.18295,1179.352
712,1.1846,1177.49
713,1.186267,1177.862
714,1.187933,1175.106
715,1.1896,1175.106
716,1.191283,1173.317
717,1.192933,1175.404
718,1.1946,1176.521
719,1.196267,1176.521
720,1.197933,1179.799
721,1.1996,1176.819
722,1.201267,1176.819
723,1.202933,1175.553
724,1.204583,1171.827
725,1.20625,1167.879
726,1.207917,1167.879
727,1.209583,1169.369
728,1.21125,1168.847
729,1.21295,1171.902
730,1.214583,1171.902
731,1.21625,1173.615
732,1.217917,1174.063
733,1.219583,1174.882
734,1.22125,1174.882
735,1.222917,1176.074
736,1.224583,1179.799
737,1.22625,1181.29
738,1.227917,1181.29
739,1.22965,1183.599
740,1.23125,1180.47
741,1.232917,1180.47
742,1.234583,1176.819
743,1.23625,1175.255
744,1.237917,1172.87
745,1.239583,1172.87
746,1.24125,1174.212
747,1.242917,1174.957
748,1.244567,1176.149
749,1.246283,1176.149
750,1.2479,1172.572
751,1.249567,1173.615
752,1.251233,1171.529
753,1.2529,1171.529
754,1.254567,1171.753
755,1.256233,1176.521
756,1.2579,1176.521
757,1.259567,1174.882
758,1.261233,1175.627
759,1.2629,1171.976
760,1.2646,1171.976
761,1.26625,1168.773
762,1.2679,1169.443
763,1.269567,1169.071
764,1.271233,1169.071
765,1.2729,1172.2
766,1.274567,1174.36
767,1.276233,1177.713
768,1.2779,1177.713
769,1.279567,1178.309
770,1.281233,1176.819
771,1.2829,1178.086
772,1.284567,1178.086
773,1.286233,1173.765
774,1.2879,1175.404
775,1.289567,1175.404
776,1.291233,1177.341
777,1.2929,1173.615
778,1.294567,1174.584
779,1.296233,1174.584
780,1.2979,1174.137
781,1.299567,1173.615
782,1.301233,1174.063
783,1.302883,1174.063
784,1.30455,1174.212
785,1.306217,1171.231
786,1.307883,1169.965
787,1.30955,1169.965
788,1.311217,1171.008
789,1.312883,1171.678
790,1.31455,1171.678
791,1.316217,1171.38
792,1.317883,1170.486
793,1.319583,1169.443
794,1.321217,1169.443
795,1.322883,1166.09
796,1.32455,1168.549
797,1.326217,1167.953
798,1.327883,1167.953
799,1.32955,1170.561
800,1.331283,1171.231
801,1.332883,1170.561
802,1.33455,1170.561
803,1.336217,1172.572
804,1.337883,1171.753
805,1.33955,1171.753
806,1.341217,1171.678
807,1.342883,1173.392
808,1.34455,1173.69
809,1.346217,1173.69
810,1.347983,1174.659
811,1.34955,1174.957
812,1.351217,1173.541
813,1.352883,1173.541
814,1.35455,1174.807
815,1.356217,1174.36
816,1.357883,1174.733
817,1.35955,1174.733
818,1.361217,1172.945
819,1.362883,1168.922
820,1.364617,1166.388
821,1.3662,1166.388
822,1.367867,1168.027
823,1.369533,1169.89
824,1.3712,1169.89
825,1.372867,1169.443
826,1.374533,1169.369
827,1.3762,1166.537
828,1.377867,1166.537
829,1.379533,1165.345
830,1.381333,1165.271
831,1.382867,1165.122
832,1.384533,1165.122
833,1.3862,1166.984
834,1.387867,1166.314
835,1.389533,1167.357
836,1.3912,1167.357
837,1.392867,1167.953
838,1.394533,1165.792
839,1.3962,1165.792
840,1.397867,1166.09
841,1.399533,1166.835
842,1.4012,1168.326
843,1.402867,1168.326
844,1.40455,1172.349
845,1.40625,1171.753
846,1.407867,1171.306
847,1.409533,1171.306
848,1.4112,1170.561
849,1.412867,1167.059
850,1.414533,1167.804
851,1.4162,1167.804
852,1.417867,1168.177
853,1.419533,1171.157
854,1.4212,1173.019
855,1.422867,1173.019
856,1.424517,1173.392
857,1.426183,1175.478
858,1.42785,1175.478
859,1.429517,1171.306
860,1.431183,1172.2
861,1.43285,1173.765
862,1.434517,1173.765
863,1.436183,1171.157
864,1.43785,1173.541
865,1.439517,1175.18
866,1.441183,1175.18
867,1.44285,1175.702
868,1.444517,1174.882
869,1.446183,1171.231
870,1.44785,1171.231
871,1.449533,1167.804
872,1.451183,1166.612
873,1.45285,1166.612
874,1.454517,1167.804
875,1.456183,1168.624
876,1.45785,1167.879
877,1.459517,1167.879
878,1.461183,1166.388
879,1.46285,1164.377
880,1.464517,1165.122
881,1.46625,1165.122
882,1.46785,1167.879
883,1.469517,1169.443
884,1.471183,1170.486
885,1.47285,1170.486
886,1.474517,1173.615
887,1.476183,1173.615
888,1.47785,1176.298
889,1.479517,1176.298
890,1.481183,1179.948
891,1.482917,1180.246
892,1.484517,1180.246
893,1.486167,1176.447
894,1.487833,1171.678
895,1.4895,1167.506
896,1.491167,1167.506
897,1.492833,1164.228
898,1.494517,1164.973
899,1.49615,1168.326
900,1.497817,1168.326
901,1.4996,1169.592
902,1.50115,1169.667
903,1.502817,1170.337
904,1.504483,1170.337
905,1.50615,1169.443
906,1.507817,1171.827
907,1.509483,1171.827
908,1.51115,1170.188
909,1.512817,1171.082
910,1.514483,1171.604
911,1.51615,1171.604
912,1.517817,1171.38
913,1.519483,1171.753
914,1.52115,1172.125
915,1.522817,1172.125
916,1.524483,1171.38
917,1.52615,1168.4
918,1.527817,1169.592
919,1.529483,1169.592
920,1.53115,1171.157
921,1.532817,1175.031
