"ID","sea_time","fid_signal"
1,0,143.193
2,0.001667,143.193
3,0.003333,143.126
4,0.005,142.902
5,0.006667,143.118
6,0.008333,143.118
7,0.01,142.656
8,0.01165,142.06
9,0.013317,141.665
10,0.014983,141.665
11,0.016717,141.263
12,0.018317,141.345
13,0.019983,141.747
14,0.02165,141.747
15,0.023317,142.097
16,0.024967,142.358
17,0.026633,142.358
18,0.0283,142.559
19,0.029967,142.425
20,0.031633,142.448
21,0.0333,142.448
22,0.034967,142.246
23,0.036633,142.306
24,0.0383,142.552
25,0.039967,142.552
26,0.041633,142.731
27,0.043333,143.133
28,0.044967,143.014
29,0.046633,143.014
30,0.0483,142.88
31,0.050083,142.82
32,0.051633,142.634
33,0.0533,142.634
34,0.054967,142.887
35,0.056633,143.193
36,0.0583,143.193
37,0.059967,143.342
38,0.061633,143.394
39,0.0633,143.349
40,0.064967,143.349
41,0.066633,143.245
42,0.0683,143.252
43,0.06995,143.141
44,0.071617,143.141
45,0.073283,143.118
46,0.07495,143.185
47,0.076617,143.304
48,0.07828300000000001,143.304
49,0.07994999999999999,143.692
50,0.081617,143.796
51,0.083283,143.796
52,0.08495,143.476
53,0.086617,143.178
54,0.088283,142.835
55,0.08995,142.835
56,0.091617,142.992
57,0.093283,143.111
58,0.09495000000000001,143.29
59,0.09661699999999999,143.29
60,0.098283,143.58
61,0.09995,143.416
62,0.101617,143.707
63,0.103283,143.707
64,0.10495,143.327
65,0.106617,142.924
66,0.108283,142.522
67,0.10995,142.522
68,0.111617,142.232
69,0.113283,142.5
70,0.11495,142.5
71,0.116617,142.694
72,0.118283,142.91
73,0.11995,142.85
74,0.121617,142.85
75,0.123283,143.044
76,0.12495,143.126
77,0.126617,143.491
78,0.128283,143.491
79,0.12995,143.729
80,0.1316,143.55
81,0.133267,143.528
82,0.134933,143.528
83,0.1366,143.133
84,0.138267,142.88
85,0.139933,142.88
86,0.1416,142.865
87,0.143267,142.694
88,0.144933,142.686
89,0.1466,142.686
90,0.148267,142.91
91,0.149933,143.014
92,0.1517,143.088
93,0.153267,143.088
94,0.154933,142.999
95,0.1566,143.081
96,0.158267,142.857
97,0.159933,142.857
98,0.1616,142.887
99,0.163267,143.096
100,0.164933,142.917
101,0.1666,142.917
102,0.168333,143.029
103,0.169933,143.237
104,0.1716,143.237
105,0.173267,143.26
106,0.174933,143.193
107,0.1766,143.044
108,0.178267,143.044
109,0.179933,142.597
110,0.1816,142.477
111,0.183267,142.671
112,0.185017,142.671
113,0.1866,142.649
114,0.188267,142.984
115,0.189933,143.163
116,0.191583,143.163
117,0.19325,143.126
118,0.194917,143.267
119,0.196583,143.267
120,0.19825,142.887
121,0.199917,142.485
122,0.201583,142.567
123,0.20325,142.567
124,0.204917,142.626
125,0.206583,142.917
126,0.20825,143.133
127,0.209917,143.133
128,0.211583,143.178
129,0.21325,143.163
130,0.214917,143.401
131,0.216583,143.401
132,0.21825,143.737
133,0.219917,143.804
134,0.2216,143.737
135,0.22325,143.737
136,0.224917,143.61
137,0.226583,143.468
138,0.22825,143.468
139,0.229917,143.178
140,0.231583,143.059
141,0.23325,143.111
142,0.234917,143.111
143,0.236583,142.917
144,0.23825,142.969
145,0.239917,143.178
146,0.241583,143.178
147,0.24325,142.82
148,0.244917,142.887
149,0.246583,142.552
150,0.24825,142.552
151,0.2499,142.492
152,0.251567,142.686
153,0.253233,142.686
154,0.254933,142.723
155,0.256567,142.902
156,0.258233,142.872
157,0.2599,142.872
158,0.261567,142.597
159,0.263233,142.097
160,0.2649,142.15
161,0.266567,142.15
162,0.268233,142.492
163,0.269917,142.731
164,0.271567,143.364
165,0.273233,143.364
166,0.2749,143.722
167,0.276567,143.334
168,0.278233,143.334
169,0.2799,143.483
170,0.281567,143.617
171,0.283233,143.081
172,0.2849,143.081
173,0.2866,143.23
174,0.288233,142.798
175,0.2899,142.388
176,0.291567,142.388
177,0.293233,142.597
178,0.2949,142.545
179,0.296567,142.753
180,0.298233,142.753
181,0.2999,142.865
182,0.301567,143.029
183,0.30325,142.954
184,0.3049,142.954
185,0.306567,142.828
186,0.308233,142.887
187,0.3099,142.887
188,0.31155,143.17
189,0.313217,143.498
190,0.314883,143.543
191,0.316533,143.543
192,0.3182,143.483
193,0.319867,143.103
194,0.321533,142.746
195,0.3232,142.746
196,0.324867,142.939
197,0.326533,143.081
198,0.3282,143.379
199,0.3299,143.379
200,0.331533,143.714
201,0.3332,143.521
202,0.334867,143.521
203,0.336533,143.461
204,0.3382,143.245
205,0.339867,143.081
206,0.341533,143.081
207,0.3432,143.364
208,0.344867,143.439
209,0.346533,143.468
210,0.3482,143.468
211,0.349867,143.558
212,0.351533,143.699
213,0.3532,143.759
214,0.354867,143.759
215,0.356533,143.841
216,0.3582,144.124
217,0.359867,144.467
218,0.361533,144.467
219,0.3632,145.108
220,0.364867,146.143
221,0.366533,146.143
222,0.368183,147.209
223,0.36985,148.557
224,0.371517,149.757
225,0.373183,149.757
226,0.37485,151.247
227,0.376517,153.229
228,0.378183,155.337
229,0.37985,155.337
230,0.381517,158.042
231,0.383183,160.672
232,0.38485,163.801
233,0.386517,163.801
234,0.388183,167.467
235,0.38985,171.646
236,0.391517,171.646
237,0.393183,176.81
238,0.39485,182.226
239,0.396533,187.881
240,0.398183,187.881
241,0.399867,194.363
242,0.401517,201.032
243,0.403183,208.281
244,0.40485,208.281
245,0.406517,216.059
246,0.408183,224.091
247,0.40985,232.682
248,0.411517,232.682
249,0.413183,241.444
250,0.41485,250.377
251,0.416517,258.99
252,0.418183,258.99
253,0.41985,267.29
254,0.421617,275.522
255,0.423183,275.522
256,0.42485,283.629
257,0.426517,291.213
258,0.428183,298.619
259,0.429833,298.619
260,0.4315,305.004
261,0.433167,310.421
262,0.434833,315.689
263,0.4365,315.689
264,0.438167,319.906
265,0.439833,323.176
266,0.4415,325.59
267,0.443167,325.59
268,0.444833,327.17
269,0.4465,327.758
270,0.448167,327.758
271,0.449833,327.773
272,0.4515,327.237
273,0.453167,325.412
274,0.454833,325.412
275,0.4565,322.826
276,0.458167,319.593
277,0.459833,315.487
278,0.4615,315.487
279,0.463167,311.092
280,0.464833,306.666
281,0.4665,301.555
282,0.468167,301.555
283,0.469833,296.548
284,0.4715,291.735
285,0.473167,291.735
286,0.474833,287.622
287,0.4765,284.433
288,0.478167,281.937
289,0.479833,281.937
290,0.4815,280.261
291,0.483167,278.957
292,0.484833,278.741
293,0.4865,278.741
294,0.488167,279.188
295,0.489817,279.397
296,0.491483,279.248
297,0.49315,279.248
298,0.494817,278.734
299,0.496483,277.288
300,0.49815,275.604
301,0.499817,275.604
302,0.501483,273.198
303,0.50315,269.912
304,0.504817,269.912
305,0.506517,266.358
306,0.50815,262.246
307,0.509817,258.379
308,0.511483,258.379
309,0.51315,254.676
310,0.514817,251.375
311,0.516483,248.79
312,0.51815,248.79
313,0.519817,246.093
314,0.521483,243.999
315,0.52315,241.98
316,0.524817,241.98
317,0.526483,240.177
318,0.52815,238.732
319,0.529817,238.732
320,0.531483,236.593
321,0.53315,234.753
322,0.534817,232.436
323,0.536483,232.436
324,0.53815,230.268
325,0.5399,229.128
326,0.541483,228.1
327,0.54315,228.1
328,0.544817,228.658
329,0.5464830000000001,231.132
330,0.54815,235.96
331,0.549817,235.96
332,0.551467,244.588
333,0.553167,257.604
334,0.5548,276.797
335,0.556467,276.797
336,0.558133,304.87
337,0.5598,344.053
338,0.561467,344.053
339,0.563133,398.107
340,0.5648,470.825
341,0.5664670000000001,565.901
342,0.568133,565.901
343,0.5698,688.419
344,0.5714669999999999,843.1
345,0.573133,1033.947
346,0.5748,1033.947
347,0.576467,1265.168
348,0.578133,1540.415
349,0.5798,1861.453
350,0.581467,1861.453
351,0.583133,2230.041
352,0.5848,2646.409
353,0.586467,2646.409
354,0.588133,3109.44
355,0.5898,3618.106
356,0.591467,4170.775
357,0.593133,4170.775
358,0.5948,4764.475
359,0.596467,5396.552
360,0.598133,6063.394
361,0.5998,6063.394
362,0.601467,6760.329
363,0.603133,7484.138
364,0.6048,8232.072
365,0.606467,8232.072
366,0.6081,9001.903
367,0.6097669999999999,9790.905000000001
368,0.611433,9790.905000000001
369,0.613133,10595.642
370,0.614767,11412.948
371,0.616433,12240.09
372,0.6181,12240.09
373,0.619783,13074.682
374,0.621433,13915.644
375,0.6231,14760.562
376,0.624833,14760.562
377,0.626433,15606.857
378,0.6281,16453.34
379,0.629767,17297.744
380,0.631433,17297.744
381,0.6331,18137.5
382,0.634767,18970.615
383,0.636433,19794.963
384,0.6381,19794.963
385,0.639767,20608.648
386,0.641433,21409.996
387,0.6431,21409.996
388,0.644767,22196.531
389,0.646433,22966.318
390,0.6481,23715.541
391,0.649767,23715.541
392,0.651433,24442.465
393,0.6531,25144.971
394,0.654767,25819.049
395,0.656433,25819.049
396,0.6582,26462.83
397,0.659767,27072.162
398,0.661433,27643.07
399,0.6631,27643.07
400,0.664767,28171.971
401,0.6664330000000001,28654.063
402,0.6681,28654.063
403,0.669767,29084.557
404,0.671417,29457.912
405,0.673083,29769.205
406,0.67475,29769.205
407,0.676417,30012.234
408,0.678083,30180.35
409,0.67975,30267.381
410,0.6814170000000001,30267.381
411,0.683083,30266.852
412,0.68475,30173.504
413,0.6864170000000001,29983.287
414,0.688083,29983.287
415,0.68975,29693.58
416,0.69145,29303.059
417,0.693083,28814.828
418,0.69475,28814.828
419,0.696417,28234.863
420,0.698083,27571.225
421,0.69975,27571.225
422,0.701417,26835.471
423,0.703083,26040.232
424,0.70475,25199.518
425,0.706417,25199.518
426,0.708083,24328.039
427,0.70975,23440.57
428,0.711417,22551.164
429,0.713083,22551.164
430,0.71475,21673.135
431,0.716417,20817.115
432,0.718083,19990.943
433,0.71975,19990.943
434,0.721417,19200.102
435,0.723083,18447.109
436,0.72475,18447.109
437,0.726417,17733.871
438,0.728083,17060.951
439,0.729733,16427.584
440,0.7314000000000001,16427.584
441,0.733067,15831.776
442,0.734733,15271.887
443,0.7364000000000001,14745.869
444,0.738067,14745.869
445,0.739733,14251.18
446,0.7413999999999999,13785.988
447,0.74315,13348.185
448,0.744733,13348.185
449,0.7464,12935.616
450,0.748067,12546.391
451,0.749733,12178.957
452,0.7514,12178.957
453,0.753067,11831.261
454,0.754733,11501.931
455,0.7564,11501.931
456,0.758067,11189.55
457,0.759733,10893.069
458,0.7614,10611.594
459,0.7630670000000001,10611.594
460,0.764733,10343.708
461,0.7664,10088.317
462,0.7680670000000001,9844.489
463,0.769733,9844.489
464,0.7714,9610.892
465,0.7730669999999999,9386.657999999999
466,0.774733,9172.059999999999
467,0.7765,9172.059999999999
468,0.778067,8966.744000000001
469,0.779733,8770.615
470,0.7814,8770.615
471,0.783067,8583.419
472,0.784733,8403.800999999999
473,0.7864,8231.453
474,0.788067,8231.453
475,0.789733,8066.326
476,0.7913829999999999,7907.391
477,0.79305,7754.311
478,0.794717,7754.311
479,0.796383,7606.067
480,0.79805,7461.682
481,0.799733,7322.237
482,0.801383,7322.237
483,0.80305,7187.598
484,0.804717,7057.786
485,0.806383,6932.87
486,0.80805,6932.87
487,0.809717,6812.073
488,0.811383,6695.084
489,0.8130500000000001,6695.084
490,0.814717,6581.776
491,0.816383,6472.029
492,0.8180500000000001,6365.716
493,0.819717,6365.716
494,0.821383,6262.779
495,0.8230499999999999,6162.718
496,0.824717,6065.279
497,0.826383,6065.279
498,0.82805,5970.59
499,0.8297330000000001,5878.642
500,0.831383,5789.489
501,0.83305,5789.489
502,0.834717,5703.218
503,0.836383,5619.429
504,0.83805,5619.429
505,0.839717,5537.815
506,0.841383,5458.586
507,0.84305,5381.562
508,0.8447170000000001,5381.562
509,0.846383,5306.579
510,0.84805,5233.765
511,0.8497169999999999,5162.485
512,0.851367,5162.485
513,0.853033,5092.546
514,0.8547,5024.538
515,0.856367,4957.929
516,0.858033,4957.929
517,0.8597,4893.467
518,0.861367,4830.547
519,0.8630330000000001,4830.547
520,0.8647,4768.878
521,0.866367,4708.886
522,0.8680330000000001,4649.952
523,0.8697,4649.952
524,0.871367,4593.551
525,0.8730329999999999,4538.409
526,0.8747,4484.221
527,0.876367,4484.221
528,0.878117,4430.786
529,0.8797,4377.283
530,0.881367,4324.764
531,0.883033,4324.764
532,0.8847,4273.563
533,0.886367,4224.077
534,0.888033,4176.155
535,0.8897,4176.155
536,0.891367,4129.738
537,0.893033,4084.237
538,0.894817,4039.302
539,0.896367,4039.302
540,0.898033,3995.106
541,0.899683,3951.721
542,0.90135,3951.721
543,0.903017,3909.61
544,0.9046999999999999,3868.602
545,0.90635,3828.697
546,0.908033,3828.697
547,0.909667,3789.321
548,0.91145,3750.518
549,0.913,3712.423
550,0.914667,3712.423
551,0.916333,3674.775
552,0.918,3638.089
553,0.919667,3638.089
554,0.921333,3601.708
555,0.923,3566.265
556,0.924667,3531.404
557,0.926333,3531.404
558,0.928,3496.878
559,0.929667,3463.633
560,0.931333,3430.553
561,0.9330000000000001,3430.553
562,0.934667,3397.889
563,0.936333,3365.927
564,0.9379999999999999,3334.209
565,0.939667,3334.209
566,0.941333,3303.364
567,0.9429999999999999,3273.524
568,0.944667,3244.005
569,0.946333,3244.005
570,0.948,3214.963
571,0.949667,3186.174
572,0.951333,3186.174
573,0.953,3157.936
574,0.954667,3130.443
575,0.956333,3103.554
576,0.958,3103.554
577,0.959667,3076.956
578,0.961333,3051.02
579,0.963,3025.621
580,0.9646670000000001,3025.621
581,0.966333,3000.304
582,0.968,2975.963
583,0.9696669999999999,2951.205
584,0.97135,2951.205
585,0.973033,2926.409
586,0.974667,2902.404
587,0.976317,2902.404
588,0.977983,2878.547
589,0.97965,2855.435
590,0.981317,2832.644
591,0.9829830000000001,2832.644
592,0.98465,2809.927
593,0.986317,2787.262
594,0.9879829999999999,2765.305
595,0.98965,2765.305
596,0.991317,2743.855
597,0.9929829999999999,2722.748
598,0.99465,2702.49
599,0.9964,2702.49
600,0.997983,2681.859
601,0.99965,2661.563
602,1.001317,2641.886
603,1.002983,2641.886
604,1.00465,2622.604
605,1.006317,2603.315
606,1.007983,2603.315
607,1.00965,2584.331
608,1.011317,2565.6
609,1.013067,2546.459
610,1.01465,2546.459
611,1.016317,2528.183
612,1.017983,2510.346
613,1.01965,2492.16
614,1.021317,2492.16
615,1.022983,2474.614
616,1.02465,2457.485
617,1.026317,2440.348
618,1.027983,2440.348
619,1.02975,2423.957
620,1.0313,2407.864
621,1.032967,2407.864
622,1.034633,2391.51
623,1.0363,2375.156
624,1.037967,2358.794
625,1.039633,2358.794
626,1.0413,2342.813
627,1.042967,2327.174
628,1.044633,2312.049
629,1.0463,2312.049
630,1.048017,2296.887
631,1.049633,2281.271
632,1.0513,2265.871
633,1.052967,2265.871
634,1.054633,2250.85
635,1.0563,2236.195
636,1.057967,2236.195
637,1.059633,2221.994
638,1.0613,2208.278
639,1.062967,2194.531
640,1.064633,2194.531
641,1.0663,2181.031
642,1.067967,2167.925
643,1.069633,2154.849
644,1.0713,2154.849
645,1.072967,2141.707
646,1.074633,2128.795
647,1.0763,2116.01
648,1.077967,2116.01
649,1.079633,2103.716
650,1.0813,2091.847
651,1.082967,2079.904
652,1.084633,2079.904
653,1.0863,2067.693
654,1.087967,2054.863
655,1.089617,2054.863
656,1.091283,2042.435
657,1.09295,2030.306
658,1.094617,2018.228
659,1.096283,2018.228
660,1.09795,2007.052
661,1.099617,1995.385
662,1.101283,1983.941
663,1.10295,1983.941
664,1.104617,1972.787
665,1.106283,1961.656
666,1.10795,1950.89
667,1.109617,1950.89
668,1.111283,1939.908
669,1.11295,1929.41
670,1.114683,1918.636
671,1.116283,1918.636
672,1.11795,1907.9
673,1.119617,1897.469
674,1.121283,1897.469
675,1.12295,1887.158
676,1.124617,1876.682
677,1.126283,1866.907
678,1.12795,1866.907
679,1.129617,1856.983
680,1.131333,1846.634
681,1.13295,1836.814
682,1.134617,1836.814
683,1.136283,1826.897
684,1.13795,1817.807
685,1.139617,1809.172
686,1.141283,1809.172
687,1.14295,1800.239
688,1.144617,1791.358
689,1.146283,1791.358
690,1.148,1782.119
691,1.149617,1772.821
692,1.151267,1763.761
693,1.152933,1763.761
694,1.1546,1754.761
695,1.156267,1745.917
696,1.157933,1737.162
697,1.1596,1737.162
698,1.161267,1728.773
699,1.162933,1720.279
700,1.1646,1711.518
701,1.166267,1711.518
702,1.167933,1702.957
703,1.1696,1694.374
704,1.171267,1694.374
705,1.172933,1685.984
706,1.1746,1678.035
707,1.176267,1670.204
708,1.177933,1670.204
709,1.1796,1662.381
710,1.181267,1654.655
711,1.182933,1646.936
712,1.1846,1646.936
713,1.186267,1638.927
714,1.187933,1631.64
715,1.1896,1623.899
716,1.19125,1623.899
717,1.192917,1616.433
718,1.1946,1609.407
719,1.19625,1601.703
720,1.197917,1601.703
721,1.199583,1594.469
722,1.20125,1586.996
723,1.202917,1586.996
724,1.204583,1579.687
725,1.20625,1572.572
726,1.207917,1565.501
727,1.209583,1565.501
728,1.211233,1559.019
729,1.2129,1552.157
730,1.214567,1545.541
731,1.216233,1545.541
732,1.2179,1538.515
733,1.219567,1531.37
734,1.221233,1524.635
735,1.2229,1524.635
736,1.224567,1517.661
737,1.226233,1511.455
738,1.2279,1511.455
739,1.229567,1505.002
740,1.231233,1498.751
741,1.2329,1493.037
742,1.234567,1493.037
743,1.236233,1486.964
744,1.2379,1480.691
745,1.239567,1474.015
746,1.241233,1474.015
747,1.2429,1467.034
748,1.244567,1460.284
749,1.246233,1454.048
750,1.2479,1454.048
751,1.249567,1448.147
752,1.251233,1442.037
753,1.2529,1442.037
754,1.254567,1436.01
755,1.256233,1430.146
756,1.2579,1424.424
757,1.259567,1424.424
758,1.261233,1418.784
759,1.2629,1413.01
760,1.264567,1407.333
761,1.266283,1407.333
762,1.2679,1401.328
763,1.269567,1395.538
764,1.271233,1389.951
765,1.272933,1389.951
766,1.27455,1384.407
767,1.276217,1379.117
768,1.277883,1374.178
769,1.27955,1374.178
770,1.281217,1369.014
771,1.282883,1363.724
772,1.28455,1363.724
773,1.286217,1358.539
774,1.287883,1353.249
775,1.28955,1348.212
776,1.291217,1348.212
777,1.292883,1342.975
778,1.29455,1337.774
779,1.296217,1332.492
780,1.297883,1332.492
781,1.29955,1327.693
782,1.301217,1323.231
783,1.302883,1318.484
784,1.30455,1318.484
785,1.306217,1313.843
786,1.307883,1309.022
787,1.30955,1309.022
788,1.311217,1304.105
789,1.312883,1299.53
790,1.31455,1294.74
791,1.316217,1294.74
792,1.317883,1290.113
793,1.31955,1285.501
794,1.321217,1280.881
795,1.322883,1280.881
796,1.32455,1276.404
797,1.326217,1271.911
798,1.327883,1267.694
799,1.329533,1267.694
800,1.3312,1263.075
801,1.332867,1258.858
802,1.334533,1254.044
803,1.3362,1254.044
804,1.337867,1249.075
805,1.339583,1244.791
806,1.3412,1244.791
807,1.342867,1240.335
808,1.344533,1236.439
809,1.3462,1232.475
810,1.347867,1232.475
811,1.349533,1227.789
812,1.35125,1223.333
813,1.352867,1219.019
814,1.354533,1219.019
815,1.3562,1214.579
816,1.357867,1210.712
817,1.359533,1206.413
818,1.3612,1206.413
819,1.362867,1202.233
820,1.364533,1198.255
821,1.3662,1198.255
822,1.367867,1194.514
823,1.369533,1190.476
824,1.3712,1186.572
825,1.372867,1186.572
826,1.374533,1182.735
827,1.3762,1178.682
828,1.377867,1174.949
829,1.379533,1174.949
830,1.3812,1170.829
831,1.382867,1167.089
832,1.38465,1163.14
833,1.3862,1163.14
834,1.387867,1159.482
835,1.389517,1155.704
836,1.391183,1151.554
837,1.39285,1151.554
838,1.394517,1147.561
839,1.396183,1143.739
840,1.39785,1143.739
841,1.399517,1139.917
842,1.401183,1136.243
843,1.40285,1132.846
844,1.404517,1132.846
845,1.406183,1129.486
846,1.40785,1126.364
847,1.409517,1123.145
848,1.411183,1123.145
849,1.412883,1119.867
850,1.414517,1116.805
851,1.416183,1113.564
852,1.41785,1113.564
853,1.419517,1110.241
854,1.421183,1106.814
855,1.42285,1106.814
856,1.424517,1103.155
857,1.426183,1099.274
858,1.42785,1096.107
859,1.429517,1096.107
860,1.4312,1092.695
861,1.43285,1089.744
862,1.434517,1086.667
863,1.436183,1086.667
864,1.437867,1083.255
865,1.439517,1080.096
866,1.441183,1076.445
867,1.44285,1076.445
868,1.444517,1073.1
869,1.446183,1069.941
870,1.44785,1069.941
871,1.449517,1067.035
872,1.451183,1064.189
873,1.452833,1061.723
874,1.4545,1061.723
875,1.456167,1058.869
876,1.457833,1055.71
877,1.4595,1052.275
878,1.461167,1052.275
879,1.462833,1048.922
880,1.4645,1045.57
881,1.466167,1042.582
882,1.467833,1042.582
883,1.469567,1039.81
884,1.471167,1036.592
885,1.472833,1033.619
886,1.4745,1033.619
887,1.476167,1030.78
888,1.477833,1027.681
889,1.4795,1027.681
890,1.48115,1024.924
891,1.482817,1021.817
892,1.484483,1018.532
893,1.48615,1018.532
894,1.487817,1015.842
895,1.489483,1013.011
896,1.49115,1010.574
897,1.492817,1010.574
898,1.494483,1008.354
899,1.49615,1005.851
900,1.497817,1003.496
901,1.499483,1003.496
902,1.50115,1001.038
903,1.502933,998.318
904,1.504483,998.318
905,1.50615,995.502
906,1.507817,992.6559999999999
907,1.509483,989.526
908,1.511133,989.526
909,1.5128,986.4349999999999
910,1.514467,983.492
911,1.516133,980.78
912,1.5178,980.78
913,1.519467,978.492
914,1.521133,976.13
915,1.5228,973.5599999999999
916,1.524467,973.5599999999999
917,1.526133,970.848
918,1.5278,967.667
919,1.529467,964.865
920,1.531133,964.865
921,1.5328,962.377
922,1.534467,960.2380000000001
923,1.536133,960.2380000000001
924,1.5378,958.085
925,1.539467,955.708
926,1.541133,953.235
927,1.5428,953.235
928,1.544467,950.4930000000001
929,1.546133,948.265
