"ID","sea_time","fid_signal"
1,0,141.33
2,0.001667,141.367
3,0.003333,141.814
4,0.005,141.814
5,0.006667,142.179
6,0.008333,142.351
7,0.01,142.351
8,0.011667,142.5
9,0.013333,142.127
10,0.015,141.591
11,0.016667,141.591
12,0.018333,141.107
13,0.02,141.107
14,0.021667,141.285
15,0.023333,141.285
16,0.024983,141.449
17,0.02665,141.576
18,0.02835,141.412
19,0.029983,141.412
20,0.03165,140.98
21,0.033317,141.203
22,0.034983,141.457
23,0.036683,141.457
24,0.038317,141.487
25,0.039983,141.688
26,0.04165,141.688
27,0.043317,141.807
28,0.044983,141.829
29,0.04665,142.068
30,0.048317,142.068
31,0.049983,142.306
32,0.05165,142.388
33,0.053317,142.053
34,0.054983,142.053
35,0.05665,141.703
36,0.058317,141.494
37,0.059983,141.263
38,0.06165,141.263
39,0.063317,141.509
40,0.064983,141.837
41,0.06665,141.837
42,0.068317,142.001
43,0.069983,141.911
44,0.071717,141.77
45,0.07331699999999999,141.77
46,0.07498299999999999,141.606
47,0.07665,141.583
48,0.078317,141.479
49,0.079983,141.479
50,0.08165,141.479
51,0.083317,141.397
52,0.084983,141.382
53,0.086633,141.382
54,0.0883,141.412
55,0.08996700000000001,141.65
56,0.09163300000000001,141.919
57,0.09329999999999999,141.919
58,0.094967,141.919
59,0.096633,141.926
60,0.0983,141.926
61,0.099967,141.881
62,0.101633,141.874
63,0.1033,141.829
64,0.105067,141.829
65,0.106633,141.852
66,0.1083,141.911
67,0.109967,142.09
68,0.111633,142.09
69,0.1133,142.112
70,0.114967,142.202
71,0.116633,142.15
72,0.1183,142.15
73,0.119967,141.747
74,0.121633,141.941
75,0.1233,141.941
76,0.124967,142.008
77,0.126633,141.68
78,0.1283,141.643
79,0.129967,141.643
80,0.131633,141.598
81,0.1333,141.606
82,0.134967,142.12
83,0.136633,142.12
84,0.1383,142.537
85,0.139967,142.261
86,0.141633,142.001
87,0.143283,142.001
88,0.14495,141.568
89,0.146617,141.241
90,0.148283,141.241
91,0.14995,141.457
92,0.151617,141.993
93,0.153283,142.261
94,0.15495,142.261
95,0.156617,142.261
96,0.158283,142.12
97,0.15995,142.12
98,0.161617,142.12
99,0.163283,141.904
100,0.16495,141.844
101,0.166617,141.829
102,0.168317,141.829
103,0.16995,141.799
104,0.171617,141.814
105,0.173283,141.762
106,0.17495,141.762
107,0.176617,141.598
108,0.178283,141.33
109,0.179967,141.33
110,0.181617,141.494
111,0.183283,141.546
112,0.18495,141.598
113,0.186617,141.598
114,0.188283,141.472
115,0.19,141.315
116,0.191617,141.583
117,0.193283,141.583
118,0.194933,141.807
119,0.1966,142.165
120,0.198267,142.343
121,0.199933,142.343
122,0.2016,142.358
123,0.203267,142.209
124,0.204933,142.209
125,0.206583,142.075
126,0.20825,142.15
127,0.209917,142.09
128,0.211583,142.09
129,0.21325,142.135
130,0.214917,142.12
131,0.216583,142.023
132,0.21825,142.023
133,0.219917,142.001
134,0.221583,142.016
135,0.22325,142.15
136,0.224917,142.15
137,0.226583,142.202
138,0.22825,142.254
139,0.229917,142.373
140,0.231583,142.373
141,0.23325,142.388
142,0.234917,142.44
143,0.236583,142.44
144,0.23825,142.53
145,0.239917,142.939
146,0.241583,142.79
147,0.24325,142.79
148,0.244933,142.604
149,0.246583,142.395
150,0.24825,141.889
151,0.249917,141.889
152,0.251583,141.591
153,0.25325,141.405
154,0.254917,141.293
155,0.256583,141.293
156,0.25825,141.449
157,0.259917,141.539
158,0.261583,141.539
159,0.263233,141.844
160,0.2649,142.135
161,0.266583,142.328
162,0.26825,142.328
163,0.2699,142.626
164,0.271567,142.694
165,0.273233,142.597
166,0.2749,142.597
167,0.276567,142.545
168,0.278233,142.246
169,0.2799,141.904
170,0.281567,141.904
171,0.283233,142.045
172,0.2849,141.755
173,0.286567,141.956
174,0.288233,141.956
175,0.2899,141.874
176,0.291567,141.449
177,0.293233,141.449
178,0.2949,141.405
179,0.296567,141.345
180,0.298233,141.434
181,0.2999,141.434
182,0.301567,141.688
183,0.303233,142.03
184,0.3049,141.896
185,0.306567,141.896
186,0.3083,141.881
187,0.3099,141.732
188,0.311583,141.479
189,0.31325,141.479
190,0.3149,141.576
191,0.316567,141.725
192,0.318233,141.725
193,0.3199,141.829
194,0.321567,142.06
195,0.323233,141.978
196,0.324917,141.978
197,0.32655,141.837
198,0.328217,141.971
199,0.329883,141.956
200,0.33155,141.956
201,0.333217,142.194
202,0.334883,142.232
203,0.33655,142.038
204,0.338217,142.038
205,0.339883,141.792
206,0.341667,141.948
207,0.343217,141.948
208,0.344883,142.314
209,0.34655,142.634
210,0.348217,142.947
211,0.349883,142.947
212,0.35155,142.977
213,0.353217,142.895
214,0.354883,143.051
215,0.35655,143.051
216,0.358217,143.342
217,0.359883,143.751
218,0.36155,144.474
219,0.363217,144.474
220,0.364883,145.212
221,0.36655,146.069
222,0.368217,147.052
223,0.369883,147.052
224,0.37155,148.065
225,0.373217,149.071
226,0.374883,149.071
227,0.37655,150.487
228,0.378217,152.104
229,0.379883,154.316
230,0.38155,154.316
231,0.383217,156.745
232,0.3849,159.353
233,0.386533,162.266
234,0.3882,162.266
235,0.389867,165.105
236,0.391533,168.651
237,0.3932,172.667
238,0.394867,172.667
239,0.396533,177.175
240,0.3982,182.562
241,0.399867,182.562
242,0.401533,188.127
243,0.4032,193.864
244,0.404867,200.078
245,0.406533,200.078
246,0.4082,206.59
247,0.409867,213.556
248,0.411533,221.349
249,0.4132,221.349
250,0.414867,229.403
251,0.416533,237.77
252,0.4182,246.376
253,0.419867,246.376
254,0.421533,254.869
255,0.4232,263.833
256,0.424867,272.788
257,0.426567,272.788
258,0.4282,282.019
259,0.429867,291.124
260,0.431533,291.124
261,0.4332,300.407
262,0.434883,309.49
263,0.436533,318.49
264,0.4382,318.49
265,0.439867,327.706
266,0.441533,336.364
267,0.44325,344.843
268,0.44485,344.843
269,0.446517,353.128
270,0.448183,360.638
271,0.44985,367.388
272,0.451517,367.388
273,0.453183,373.557
274,0.45485,379.123
275,0.456567,379.123
276,0.458183,384.1
277,0.459933,388.309
278,0.461517,392.422
279,0.463183,392.422
280,0.46485,395.559
281,0.466517,397.764
282,0.468183,399.411
283,0.46985,399.411
284,0.471517,399.999
285,0.473183,399.739
286,0.47485,399.403
287,0.476633,399.403
288,0.478183,397.943
289,0.47985,395.864
290,0.481517,393.271
291,0.483183,393.271
292,0.484833,389.852
293,0.4865,386.38
294,0.488183,386.38
295,0.489833,382.096
296,0.4915,377.461
297,0.493167,372.328
298,0.494833,372.328
299,0.4965,367.008
300,0.498167,361.316
301,0.499833,355.549
302,0.5014999999999999,355.549
303,0.503167,349.492
304,0.504817,343.226
305,0.506483,337.131
306,0.50815,337.131
307,0.509817,330.567
308,0.511483,324.175
309,0.51315,324.175
310,0.514817,317.611
311,0.516483,310.801
312,0.51815,304.371
313,0.519817,304.371
314,0.521483,297.785
315,0.523183,291.668
316,0.524817,285.752
317,0.526483,285.752
318,0.52815,279.926
319,0.529817,274.338
320,0.531483,268.705
321,0.53315,268.705
322,0.534817,263.691
323,0.536483,258.587
324,0.53815,258.587
325,0.539817,253.782
326,0.541483,249.252
327,0.54315,244.714
328,0.544817,244.714
329,0.5464830000000001,240.877
330,0.54815,237.212
331,0.549817,233.747
332,0.5514829999999999,233.747
333,0.55315,230.297
334,0.554817,226.684
335,0.5564829999999999,223.346
336,0.55815,223.346
337,0.559817,220.262
338,0.5615329999999999,217.326
339,0.563133,214.837
340,0.5648,214.837
341,0.5664670000000001,212.297
342,0.568133,209.793
343,0.5698,209.793
344,0.5714669999999999,208.087
345,0.573133,206.359
346,0.5748,204.988
347,0.576467,204.988
348,0.578183,203.945
349,0.5798,202.551
350,0.581467,201.248
351,0.583133,201.248
352,0.5848,199.839
353,0.586467,198.349
354,0.588133,196.986
355,0.5898,196.986
356,0.591467,195.898
357,0.593133,195.272
358,0.594917,194.751
359,0.596467,194.751
360,0.598167,194.602
361,0.5998,194.646
362,0.601467,194.646
363,0.603133,194.594
364,0.6048,195.205
365,0.606467,196.092
366,0.608133,196.092
367,0.6098,196.703
368,0.611467,198.044
369,0.613133,199.519
370,0.6148,199.519
371,0.616467,201.62
372,0.618133,204.377
373,0.6198,207.752
374,0.621467,207.752
375,0.623117,211.306
376,0.6248,215.314
377,0.62645,215.314
378,0.628117,220.694
379,0.629783,226.423
380,0.63145,233.315
381,0.633117,233.315
382,0.634783,240.952
383,0.63645,249.691
384,0.638117,260.182
385,0.639783,260.182
386,0.64145,272.051
387,0.643117,285.722
388,0.644783,300.884
389,0.64645,300.884
390,0.6481170000000001,317.983
391,0.649783,337.072
392,0.65145,337.072
393,0.6531169999999999,358.723
394,0.654783,383.034
395,0.65645,410.073
396,0.658117,410.073
397,0.659783,440.627
398,0.66145,474.557
399,0.663117,511.952
400,0.6647999999999999,511.952
401,0.66645,553.355
402,0.668117,599.422
403,0.669783,650.384
404,0.67145,650.384
405,0.673117,706.635
406,0.674783,768.408
407,0.67645,835.948
408,0.678117,835.948
409,0.679833,909.641
410,0.68145,990.547
411,0.683117,990.547
412,0.684767,1079.09
413,0.686433,1175.791
414,0.6881,1280.792
415,0.689767,1280.792
416,0.691433,1394.436
417,0.6931,1517.11
418,0.694767,1649.015
419,0.696483,1649.015
420,0.6981000000000001,1790.918
421,0.699767,1943.462
422,0.701433,2106.622
423,0.7030999999999999,2106.622
424,0.704767,2280.884
425,0.706433,2466.649
426,0.7081,2466.649
427,0.709767,2663.575
428,0.711433,2872.683
429,0.7131999999999999,3094.204
430,0.714767,3094.204
431,0.71645,3327.817
432,0.7181,3574.193
433,0.719767,3832.713
434,0.721433,3832.713
435,0.7231,4103.631
436,0.7247670000000001,4386.827
437,0.726433,4682.25
438,0.7281,4682.25
439,0.7297670000000001,4990.205
440,0.731433,5309.932
441,0.7331,5641.952
442,0.7347669999999999,5641.952
443,0.736433,5985.543
444,0.738117,6339.945
445,0.739767,6339.945
446,0.741433,6705.366
447,0.7431,7081.523
448,0.74475,7468.112
449,0.746417,7468.112
450,0.7480830000000001,7865.079
451,0.74975,8272.059999999999
452,0.751417,8687.816000000001
453,0.7530829999999999,8687.816000000001
454,0.75475,9112.290999999999
455,0.756467,9545.058000000001
456,0.758083,9985.768
457,0.75975,9985.768
458,0.761417,10434.099
459,0.763083,10889.59
460,0.76475,10889.59
461,0.766417,11351.697
462,0.768083,11819.772
463,0.76975,12293.398
464,0.771417,12293.398
465,0.773083,12772.195
466,0.77475,13255.604
467,0.7764,13742.946
468,0.778067,13742.946
469,0.779733,14234.141
470,0.7814,14728.605
471,0.783067,15225.708
472,0.784733,15225.708
473,0.7864,15724.86
474,0.788067,16225.405
475,0.789733,16225.405
476,0.7914,16727.008
477,0.793067,17229.273
478,0.794733,17731.965
479,0.7964,17731.965
480,0.798083,18234.699
481,0.799733,18736.451
482,0.8014,19237.168
483,0.803067,19237.168
484,0.804717,19735.738
485,0.8064170000000001,20232.066
486,0.80805,20725.398
487,0.809717,20725.398
488,0.811383,21214.992
489,0.8130500000000001,21701.164
490,0.81475,22183.322
491,0.816383,22183.322
492,0.8180500000000001,22661.254
493,0.819717,23134.813
494,0.821383,23134.813
495,0.8230499999999999,23603.477
496,0.824717,24066.016
497,0.826383,24522.363
498,0.82805,24522.363
499,0.829717,24971.873
500,0.831483,25414.244
501,0.83305,25849.879
502,0.834717,25849.879
503,0.836383,26278.184
504,0.83805,26699.418
505,0.839717,27112.24
506,0.841383,27112.24
507,0.84305,27516.604
508,0.8447170000000001,27912.057
509,0.846383,27912.057
510,0.84805,28297.752
511,0.8497169999999999,28674.334
512,0.851383,29040.902
513,0.85305,29040.902
514,0.8547169999999999,29397.732
515,0.856383,29745.037
516,0.85805,30082.07
517,0.859717,30082.07
518,0.861383,30408.824
519,0.86305,30725.121
520,0.8647,31030.244
521,0.866367,31030.244
522,0.8680330000000001,31324.445
523,0.8697,31607.703
524,0.871367,31879.902
525,0.8730329999999999,31879.902
526,0.8747,32140.91
527,0.876367,32390.619
528,0.878033,32390.619
529,0.8797,32628.77
530,0.8814,32855.594
531,0.883033,33071.25
532,0.8847,33071.25
533,0.886367,33275.996
534,0.888033,33469.84
535,0.8897,33652.238
536,0.891383,33652.238
537,0.893033,33823.102
538,0.8947000000000001,33981.711
539,0.896367,34128.203
540,0.898033,34128.203
541,0.8997000000000001,34263.754
542,0.901367,34388.219
543,0.903033,34388.219
544,0.9046999999999999,34502.461
545,0.906367,34606.398
546,0.908033,34699.008
547,0.9097,34699.008
548,0.911367,34780.895
549,0.913033,34852.332
550,0.9147,34913.129
551,0.916367,34913.129
552,0.918033,34963.734
553,0.9197,35003.789
554,0.921367,35033.031
555,0.923017,35033.031
556,0.924683,35052.125
557,0.92635,35061.203
558,0.928017,35061.203
559,0.929683,35060.145
560,0.93135,35049.445
561,0.933017,35029.875
562,0.934683,35029.875
563,0.93635,35000.957
564,0.938017,34963.555
565,0.939683,34917.875
566,0.94135,34917.875
567,0.943017,34863.258
568,0.9446830000000001,34800.41
569,0.94635,34729.652
570,0.948017,34729.652
571,0.949767,34650.477
572,0.95135,34563.906
573,0.953017,34470.563
574,0.9546829999999999,34470.563
575,0.956367,34370.266
576,0.958017,34263.559
577,0.959683,34263.559
578,0.96135,34150.387
579,0.963017,34030.445
580,0.964683,33904.285
581,0.96635,33904.285
582,0.968017,33772.625
583,0.969683,33635.156
584,0.97135,33492.609
585,0.973017,33492.609
586,0.974683,33344.879
587,0.9763500000000001,33191.598
588,0.978017,33033.059
589,0.979683,33033.059
590,0.9813499999999999,32869.434
591,0.983017,32701.492
592,0.984667,32701.492
593,0.986333,32529.607
594,0.988,32353.932
595,0.989667,32174.193
596,0.991333,32174.193
597,0.993,31990.73
598,0.994667,31803.584
599,0.996333,31613.141
600,0.998,31613.141
601,0.999667,31419.65
602,1.001333,31222.91
603,1.003,31023.318
604,1.004667,31023.318
605,1.006333,30821.479
606,1.008,30617.303
607,1.009667,30410.713
608,1.011333,30410.713
609,1.013,30202.002
610,1.014667,29990.947
611,1.016333,29990.947
612,1.018,29777.861
613,1.019667,29563.182
614,1.021333,29347.098
615,1.023017,29347.098
616,1.024667,29129.848
617,1.026333,28911.834
618,1.028,28693.482
619,1.029667,28693.482
620,1.031333,28474.436
621,1.033,28254.295
622,1.034683,28033.072
623,1.036333,28033.072
624,1.038,27810.707
625,1.039667,27587.766
626,1.041333,27587.766
627,1.043,27364.498
628,1.04465,27141.117
629,1.046317,26917.582
630,1.047983,26917.582
631,1.04965,26693.732
632,1.051417,26470.131
633,1.052983,26246.732
634,1.05465,26246.732
635,1.056317,26023.531
636,1.057983,25800.412
637,1.05965,25577.568
638,1.061317,25577.568
639,1.062983,25355.414
640,1.06465,25134.086
641,1.066317,24913.564
642,1.068067,24913.564
643,1.069633,24693.557
644,1.0713,24473.75
645,1.072967,24473.75
646,1.074633,24254.381
647,1.0763,24035.842
648,1.077967,23818.582
649,1.079633,23818.582
650,1.0813,23602.537
651,1.082967,23387.551
652,1.084633,23174.24
653,1.0863,23174.24
654,1.087967,22961.988
655,1.089633,22751.234
656,1.0913,22542.008
657,1.092967,22542.008
658,1.09465,22333.846
659,1.0963,22127.002
660,1.097967,22127.002
661,1.09965,21921.977
662,1.1013,21718.398
663,1.102967,21516.428
664,1.104617,21516.428
665,1.106283,21316.133
666,1.10795,21117.211
667,1.109617,20919.957
668,1.111283,20919.957
669,1.11295,20724.029
670,1.114617,20529.613
671,1.116283,20336.33
672,1.11795,20336.33
673,1.119617,20144.262
674,1.121283,19953.414
675,1.12295,19953.414
676,1.124617,19764.379
677,1.126283,19576.951
678,1.12795,19391.439
679,1.129617,19391.439
680,1.131283,19208.014
681,1.13295,19026.383
682,1.134617,18846.303
683,1.136283,18846.303
684,1.13795,18667.98
685,1.139617,18491.045
686,1.141283,18315.754
687,1.14295,18315.754
688,1.144617,18142.85
689,1.146283,17971.523
690,1.14795,17801.828
691,1.149617,17801.828
692,1.151283,17633.826
693,1.153017,17467.066
694,1.154617,17467.066
695,1.156283,17302.186
696,1.15795,17139.867
697,1.159617,16978.965
698,1.161283,16978.965
699,1.16295,16819.633
700,1.164633,16662.211
701,1.166283,16506.24
702,1.167933,16506.24
703,1.1696,16352.117
704,1.171267,16199.462
705,1.172933,16048.134
706,1.1746,16048.134
707,1.176267,15898.541
708,1.177933,15750.155
709,1.1796,15750.155
710,1.181267,15603.997
711,1.182933,15459.202
712,1.1846,15315.846
713,1.186383,15315.846
714,1.187933,15174.344
715,1.1896,15034.333
716,1.191267,14896.177
717,1.192933,14896.177
718,1.1946,14759.622
719,1.196267,14624.604
720,1.197933,14491.536
721,1.1996,14491.536
722,1.201267,14360.003
723,1.202933,14229.432
724,1.2046,14100.738
725,1.206267,14100.738
726,1.207933,13972.982
727,1.2096,13846.465
728,1.211267,13846.465
729,1.212933,13721.965
730,1.2146,13598.367
731,1.216267,13476.305
732,1.217933,13476.305
733,1.2196,13355.829
734,1.221267,13236.769
735,1.222933,13119.37
736,1.224583,13119.37
737,1.22625,13003.416
738,1.227917,12888.573
739,1.229583,12774.594
740,1.23125,12774.594
741,1.232917,12662.105
742,1.234583,12550.652
743,1.23625,12550.652
744,1.237917,12440.809
745,1.239583,12332.529
746,1.24125,12225.099
747,1.242917,12225.099
748,1.244583,12118.995
749,1.24625,12013.89
750,1.247917,11909.947
751,1.2496,11909.947
752,1.25125,11807.203
753,1.252917,11705.786
754,1.254583,11605.688
755,1.25625,11605.688
756,1.257917,11506.654
757,1.259583,11408.94
758,1.26125,11312.127
759,1.262917,11312.127
760,1.264583,11216.61
761,1.26625,11122.294
762,1.267917,11122.294
763,1.269583,11029.005
764,1.271267,10936.856
765,1.272917,10845.587
766,1.274583,10845.587
767,1.27625,10754.905
768,1.277917,10665.491
769,1.279583,10577.067
770,1.28125,10577.067
771,1.282917,10489.538
772,1.284567,10403.179
773,1.286233,10317.698
774,1.287967,10317.698
775,1.289567,10233.29
776,1.291233,10149.963
777,1.2929,10149.963
778,1.294583,10067.769
779,1.296233,9986.289000000001
780,1.2979,9905.495000000001
781,1.299567,9905.495000000001
782,1.301233,9825.617
783,1.3029,9746.819
784,1.3047,9668.960999999999
785,1.306233,9668.960999999999
786,1.3079,9592.093999999999
787,1.309567,9515.919
788,1.311233,9440.393
789,1.3129,9440.393
790,1.314567,9365.834000000001
791,1.316233,9292.073
792,1.3179,9219.214
793,1.319567,9219.214
794,1.321333,9147.025
795,1.3229,9075.380999999999
796,1.324567,9075.380999999999
797,1.326233,9004.727000000001
798,1.3279,8934.93
799,1.329567,8866.064
800,1.331233,8866.064
801,1.3329,8798.241
802,1.334567,8731.097
803,1.336233,8664.138999999999
804,1.337917,8664.138999999999
805,1.339567,8598.007
806,1.341233,8532.405000000001
807,1.3429,8467.563
808,1.34455,8467.563
809,1.346217,8403.793
810,1.347883,8340.611999999999
811,1.34955,8340.611999999999
812,1.351217,8278.415000000001
813,1.352883,8216.335999999999
814,1.35455,8155.316
815,1.356217,8155.316
816,1.357883,8095.093
817,1.359533,8034.959
818,1.3612,7975.958
819,1.362867,7975.958
820,1.364533,7917.285
821,1.3662,7859.267
822,1.367867,7801.719
823,1.369533,7801.719
824,1.3712,7744.826
825,1.372883,7688.448
826,1.374533,7688.448
827,1.3762,7632.666
828,1.377867,7577.829
829,1.379533,7523.187
830,1.3812,7523.187
831,1.382867,7469.229
832,1.384533,7415.57
833,1.3862,7362.53
834,1.387867,7362.53
835,1.389533,7310.122
836,1.3912,7258.229
837,1.392867,7206.872
838,1.394533,7206.872
839,1.3962,7156.141
840,1.397867,7105.85
841,1.399533,7056.177
842,1.4012,7056.177
843,1.402867,7007.145
844,1.404533,6958.783
845,1.40625,6958.783
846,1.40785,6910.809
847,1.409517,6863.251
848,1.411183,6816.216
849,1.41285,6816.216
850,1.414517,6769.404
851,1.416183,6723.449
852,1.41785,6677.829
853,1.419517,6677.829
854,1.421183,6632.358
855,1.422933,6587.036
856,1.424517,6542.131
857,1.426183,6542.131
858,1.42785,6497.622
859,1.429517,6453.976
860,1.431183,6453.976
861,1.43285,6411.046
862,1.434517,6368.6
863,1.436183,6326.422
864,1.43785,6326.422
865,1.43965,6284.542
866,1.441183,6243.035
867,1.44285,6201.617
868,1.444517,6201.617
869,1.446183,6160.959
870,1.44785,6120.6
871,1.449517,6080.434
872,1.451183,6080.434
873,1.45285,6040.856
874,1.454517,6001.54
875,1.456183,5962.804
876,1.45785,5962.804
877,1.459517,5924.694
878,1.461183,5886.875
879,1.46285,5886.875
880,1.4645,5849.48
881,1.466167,5811.788
882,1.467833,5774.356
883,1.469517,5774.356
884,1.471167,5737.193
885,1.472833,5700.439
886,1.4745,5664.431
887,1.476167,5664.431
888,1.477833,5628.914
889,1.4795,5593.702
890,1.481167,5558.722
891,1.482833,5558.722
892,1.4845,5524.002
893,1.486167,5489.319
894,1.487833,5489.319
895,1.4895,5455.367
896,1.491167,5421.549
897,1.492833,5388.133
898,1.4945,5388.133
899,1.496167,5355.574
900,1.497833,5322.665
901,1.4995,5290.367
902,1.501167,5290.367
903,1.502833,5258.188
904,1.5045,5225.733
905,1.506167,5193.934
906,1.507833,5193.934
907,1.5095,5162.254
908,1.511167,5130.887
909,1.512833,5099.945
910,1.514517,5099.945
911,1.516167,5069.338
912,1.517833,5039.111
913,1.5195,5039.111
914,1.521167,5009.04
