"ID","sea_time","fid_signal"
1,0,1197.159
2,0.001667,1194.775
3,0.003333,1193.881
4,0.005,1196.34
5,0.006667,1196.34
6,0.008317,1198.649
7,0.009983000000000001,1199.469
8,0.01165,1198.873
9,0.013317,1198.873
10,0.014983,1198.128
11,0.01665,1195.595
12,0.018317,1195.595
13,0.019983,1195.595
14,0.0217,1192.018
15,0.023317,1188.219
16,0.024983,1188.219
17,0.02665,1186.579
18,0.028317,1186.729
19,0.029983,1189.187
20,0.03165,1189.187
21,0.033317,1190.379
22,0.034983,1194.775
23,0.03665,1194.328
24,0.038383,1194.328
25,0.039983,1192.093
26,0.04165,1191.497
27,0.043317,1187.623
28,0.044983,1187.623
29,0.04665,1185.76
30,0.048317,1187.846
31,0.05,1187.846
32,0.05165,1190.156
33,0.053317,1192.391
34,0.05505,1193.509
35,0.05665,1193.509
36,0.058317,1193.285
37,0.059983,1192.391
38,0.06165,1189.709
39,0.063317,1189.709
40,0.064983,1191.124
41,0.06665,1191.795
42,0.0683,1194.403
43,0.069967,1194.403
44,0.071767,1197.532
45,0.0733,1196.116
46,0.07496700000000001,1196.116
47,0.07663300000000001,1195.446
48,0.07829999999999999,1191.646
49,0.079983,1193.062
50,0.081633,1193.062
51,0.0833,1193.807
52,0.084967,1191.795
53,0.086633,1194.924
54,0.0883,1194.924
55,0.08996700000000001,1193.956
56,0.09163300000000001,1195.744
57,0.09329999999999999,1199.32
58,0.094967,1199.32
59,0.096633,1196.936
60,0.0983,1195.222
61,0.099983,1194.179
62,0.101633,1194.179
63,0.1033,1190.528
64,0.104967,1191.124
65,0.106633,1191.124
66,0.1083,1192.465
67,0.109967,1188.815
68,0.111633,1190.454
69,0.1133,1190.454
70,0.11495,1190.007
71,0.116617,1187.101
72,0.118283,1189.634
73,0.11995,1189.634
74,0.121617,1189.262
75,0.123283,1192.614
76,0.12495,1196.787
77,0.1266,1196.787
78,0.128267,1194.104
79,0.129933,1195.669
80,0.1316,1195.669
81,0.133267,1194.701
82,0.134933,1193.807
83,0.1366,1196.712
84,0.138267,1196.712
85,0.139933,1197.383
86,0.1416,1196.936
87,0.143267,1195.893
88,0.144933,1195.893
89,0.1466,1195.669
90,0.148267,1193.732
91,0.149933,1193.136
92,0.1516,1193.136
93,0.153267,1190.826
94,0.154933,1190.007
95,0.156667,1190.081
96,0.158267,1190.081
97,0.159933,1192.093
98,0.1616,1195.446
99,0.163267,1195.446
100,0.164933,1196.34
101,0.1666,1196.712
102,0.168267,1194.626
103,0.169933,1194.626
104,0.1716,1195.595
105,0.17335,1196.191
106,0.174933,1195.893
107,0.1766,1195.893
108,0.178267,1195.893
109,0.179933,1196.563
110,0.1816,1197.681
111,0.183267,1197.681
112,0.184933,1198.202
113,0.1866,1195.818
114,0.188267,1195.818
115,0.189967,1192.018
116,0.191583,1187.772
117,0.19325,1186.803
118,0.194917,1186.803
119,0.196583,1188.442
120,0.19825,1191.422
121,0.199917,1194.924
122,0.201633,1194.924
123,0.20325,1196.116
124,0.204917,1194.701
125,0.206583,1190.156
126,0.20825,1190.156
127,0.209917,1187.548
128,0.211583,1185.387
129,0.21325,1185.387
130,0.214917,1185.313
131,0.216583,1188.07
132,0.21825,1190.752
133,0.219917,1190.752
134,0.221583,1190.528
135,0.22325,1190.454
136,0.224917,1188.74
137,0.226583,1188.74
138,0.22825,1185.387
139,0.229917,1186.654
140,0.231583,1189.709
141,0.23325,1189.709
142,0.234917,1192.167
143,0.236583,1194.254
144,0.23825,1194.552
145,0.239917,1194.552
146,0.241583,1192.093
147,0.24325,1190.379
148,0.244917,1190.379
149,0.246583,1191.944
150,0.248233,1191.795
151,0.2499,1192.838
152,0.251567,1192.838
153,0.253233,1194.701
154,0.254917,1194.104
155,0.256567,1193.359
156,0.25825,1193.359
157,0.2599,1192.689
158,0.261567,1190.379
159,0.263233,1188.74
160,0.264917,1188.74
161,0.266583,1189.783
162,0.268233,1189.485
163,0.2699,1189.485
164,0.271567,1191.05
165,0.273233,1190.528
166,0.274967,1192.167
167,0.276567,1192.167
168,0.278233,1193.21
169,0.2799,1191.646
170,0.281567,1190.826
171,0.283233,1190.826
172,0.2849,1187.399
173,0.286567,1185.387
174,0.288233,1185.685
175,0.2899,1185.685
176,0.291567,1187.995
177,0.293233,1190.156
178,0.2949,1192.54
179,0.296567,1192.54
180,0.298233,1195.52
181,0.2999,1196.34
182,0.301567,1196.34
183,0.303233,1199.32
184,0.3049,1200.363
185,0.306567,1200.289
186,0.308317,1200.289
187,0.309883,1200.587
188,0.31155,1198.873
189,0.313217,1197.83
190,0.314883,1197.83
191,0.31655,1197.532
192,0.318217,1198.426
193,0.319883,1200.14
194,0.32155,1200.14
195,0.323217,1202.822
196,0.324883,1206.174
197,0.32655,1206.174
198,0.328217,1208.335
199,0.329883,1209.9
200,0.33155,1214.817
201,0.333217,1214.817
202,0.334883,1220.778
203,0.33655,1226.291
204,0.338217,1232.55
205,0.3399,1232.55
206,0.34155,1236.2
207,0.343217,1238.883
208,0.344883,1244.545
209,0.34655,1244.545
210,0.348217,1248.643
211,0.349883,1257.062
212,0.35155,1257.062
213,0.353217,1263.246
214,0.354883,1267.269
215,0.35655,1275.465
216,0.358217,1275.465
217,0.359883,1281.5
218,0.36155,1289.621
219,0.363217,1298.264
220,0.364883,1298.264
221,0.36655,1306.385
222,0.368217,1313.239
223,0.369867,1317.412
224,0.371533,1317.412
225,0.3732,1324.788
226,0.374867,1329.929
227,0.376533,1336.932
228,0.3782,1336.932
229,0.379867,1345.351
230,0.381533,1351.982
231,0.3832,1351.982
232,0.384867,1357.57
233,0.386533,1363.009
234,0.3882,1369.491
235,0.389867,1369.491
236,0.391533,1376.867
237,0.39325,1384.69
238,0.394867,1389.831
239,0.396533,1389.831
240,0.3982,1394.302
241,0.399867,1398.921
242,0.401533,1404.211
243,0.4032,1404.211
244,0.404867,1412.183
245,0.406517,1419.559
246,0.408183,1419.559
247,0.409867,1427.457
248,0.411517,1431.555
249,0.413183,1434.162
250,0.41485,1434.162
251,0.416517,1439.154
252,0.418183,1441.389
253,0.41985,1446.903
254,0.421517,1446.903
255,0.423183,1455.396
256,0.42485,1459.196
257,0.426533,1463.667
258,0.428167,1463.667
259,0.42985,1470.223
260,0.4315,1472.905
261,0.433167,1476.184
262,0.434833,1476.184
263,0.4365,1480.579
264,0.438167,1481.25
265,0.439833,1481.25
266,0.4415,1481.846
267,0.443167,1484.752
268,0.444833,1485.869
269,0.4465,1485.869
270,0.448167,1485.944
271,0.449833,1487.21
272,0.4515,1486.838
273,0.453167,1486.838
274,0.454833,1484.901
275,0.4565,1485.422
276,0.458167,1483.336
277,0.459833,1483.336
278,0.4615,1482.74
279,0.463167,1482.516
280,0.464833,1482.516
281,0.4665,1479.611
282,0.468167,1478.493
283,0.469833,1478.568
284,0.4715,1478.568
285,0.473167,1478.717
286,0.474833,1477.376
287,0.4765,1473.948
288,0.478167,1473.948
289,0.479833,1468.956
290,0.481517,1461.282
291,0.483167,1457.334
292,0.484833,1457.334
293,0.4865,1452.789
294,0.48815,1447.424
295,0.489817,1447.424
296,0.491483,1442.358
297,0.49315,1435.876
298,0.494817,1431.033
299,0.496483,1431.033
300,0.49815,1423.955
301,0.499833,1418.74
302,0.501483,1413.822
303,0.50315,1413.822
304,0.504817,1405.925
305,0.506483,1401.976
306,0.50815,1394.227
307,0.509817,1394.227
308,0.5115499999999999,1388.863
309,0.51315,1385.734
310,0.514817,1377.314
311,0.516483,1377.314
312,0.51815,1372.62
313,0.519817,1365.84
314,0.521483,1365.84
315,0.52315,1361.594
316,0.524817,1357.049
317,0.526483,1353.696
318,0.52815,1353.696
319,0.529817,1349.971
320,0.531483,1346.618
321,0.53315,1346.618
322,0.534817,1346.618
323,0.536483,1342.446
324,0.53815,1338.199
325,0.539817,1334.324
326,0.541483,1334.324
327,0.54315,1327.768
328,0.544917,1326.352
329,0.5464830000000001,1326.352
330,0.548133,1324.937
331,0.5498,1320.913
332,0.551467,1320.168
333,0.553133,1320.168
334,0.5548,1317.784
335,0.556467,1316.592
336,0.55815,1316.816
337,0.5598,1316.816
338,0.561467,1316.816
339,0.563133,1319.721
340,0.5648,1324.788
341,0.5664670000000001,1324.788
342,0.568133,1331.493
343,0.5698,1337.454
344,0.5714669999999999,1340.285
345,0.573133,1340.285
346,0.5748,1349.151
347,0.576467,1356.453
348,0.578133,1356.453
349,0.5798,1367.554
350,0.581467,1385.137
351,0.583133,1397.133
352,0.5848,1397.133
353,0.586467,1411.364
354,0.58815,1428.872
355,0.5898,1446.605
356,0.591467,1446.605
357,0.593133,1468.733
358,0.5948,1495.182
359,0.596467,1524.836
360,0.598133,1524.836
361,0.5998,1557.842
362,0.601467,1593.828
363,0.603133,1593.828
364,0.6048,1635.104
365,0.606467,1680.776
366,0.608117,1732.931
367,0.609783,1732.931
368,0.61145,1793.206
369,0.613117,1859.367
370,0.614783,1931.712
371,0.6164500000000001,1931.712
372,0.618117,2011.21
373,0.619783,2100.095
374,0.621483,2199.784
375,0.623117,2199.784
376,0.624783,2308.637
377,0.62645,2424.046
378,0.628117,2548.769
379,0.629833,2548.769
380,0.63145,2686.828
381,0.633117,2840.906
382,0.634783,2840.906
383,0.63645,3008.396
384,0.638117,3190.711
385,0.639783,3388.002
386,0.64145,3388.002
387,0.643117,3595.576
388,0.644783,3826.842
389,0.6465,4073.903
390,0.6481170000000001,4073.903
391,0.649783,4336.759
392,0.65145,4622.117
393,0.6531169999999999,4924.983
394,0.654783,4924.983
395,0.65645,5245.879
396,0.658117,5582.124
397,0.659783,5582.124
398,0.66145,5939.677
399,0.6632169999999999,6314.516
400,0.664783,6712.973
401,0.66645,6712.973
402,0.668117,7131.1
403,0.669767,7569.417
404,0.6714329999999999,8025.616
405,0.6731,8025.616
406,0.674767,8498.431
407,0.676433,8996.278
408,0.6781,9512.901
409,0.679767,9512.901
410,0.681433,10051.206
411,0.6831,10611.563
412,0.684767,11186.6
413,0.686433,11186.6
414,0.6881,11778.399
415,0.689767,12391.284
416,0.691433,12391.284
417,0.6931,13020.933
418,0.694783,13672.188
419,0.696433,14343.634
420,0.698083,14343.634
421,0.69975,15030.354
422,0.701417,15733.466
423,0.703083,16456.916
424,0.70475,16456.916
425,0.706417,17192.588
426,0.708083,17943.309
427,0.70975,18714.369
428,0.711417,18714.369
429,0.713083,19497.945
430,0.71475,20301.715
431,0.716417,20301.715
432,0.718083,21123.887
433,0.71975,21959.99
434,0.721417,22809.207
435,0.723083,22809.207
436,0.72475,23670.645
437,0.726417,24544.447
438,0.728067,25428.98
439,0.729733,25428.98
440,0.7314000000000001,26327.67
441,0.733067,27243.719
442,0.734733,28170.123
443,0.7364000000000001,28170.123
444,0.738067,29108.227
445,0.739733,30060.41
446,0.7413999999999999,30060.41
447,0.743067,31019.971
448,0.744733,31990.037
449,0.7464,32972.32
450,0.748117,32972.32
451,0.749733,33960.043
452,0.7514,34960.211
453,0.753067,35969.02
454,0.754733,35969.02
455,0.7564,36979.543
456,0.758067,37997.59
457,0.759733,39015.637
458,0.7614,39015.637
459,0.7630670000000001,40038.301
460,0.764817,41068.418
461,0.7664,42101.07
462,0.7680670000000001,42101.07
463,0.769733,43135.359
464,0.7714,44172.109
465,0.7730669999999999,44172.109
466,0.774733,45206.844
467,0.7764,46242.625
468,0.778067,47280.938
469,0.779733,47280.938
470,0.781483,48314.184
471,0.783067,49351.527
472,0.784733,50383.508
473,0.7864,50383.508
474,0.78805,51409.75
475,0.789717,52437.707
476,0.7913829999999999,53456.203
477,0.79305,53456.203
478,0.794717,54470.598
479,0.796383,55478.813
480,0.798167,56479.574
481,0.799717,56479.574
482,0.801383,57477.207
483,0.80305,58463.961
484,0.804717,58463.961
485,0.806383,59444.234
486,0.80805,60413.031
487,0.809717,61371.551
488,0.811383,61371.551
489,0.8130500000000001,62325.82
490,0.814717,63271.895
491,0.816383,64207.613
492,0.8180500000000001,64207.613
493,0.819717,65131.188
494,0.821383,66041.5
495,0.8230499999999999,66938.102
496,0.824717,66938.102
497,0.826383,67826.586
498,0.82805,68704.859
499,0.829717,68704.859
500,0.831383,69572.031
501,0.833083,70425.492
502,0.834717,71265.69500000001
503,0.836383,71265.69500000001
504,0.83805,72091.367
505,0.839717,72902.891
506,0.841383,73704.19500000001
507,0.84305,73704.19500000001
508,0.8447170000000001,74494.258
509,0.846383,75268.891
510,0.848033,76029.602
511,0.8497,76029.602
512,0.851367,76776.67200000001
513,0.853033,77507.94500000001
514,0.8547,77507.94500000001
515,0.856367,78227.742
516,0.858033,78937.92999999999
517,0.8597,79634.039
518,0.861367,79634.039
519,0.8630330000000001,80313.67999999999
520,0.8647,80979.17200000001
521,0.8663999999999999,81625.42999999999
522,0.8680330000000001,81625.42999999999
523,0.8697,82250.609
524,0.871367,82864.836
525,0.8730329999999999,83464.758
526,0.8747,83464.758
527,0.876367,84046.648
528,0.878033,84616.469
529,0.8797,85164.461
530,0.881367,85164.461
531,0.883083,85691.141
532,0.8847,86206.648
533,0.886383,86206.648
534,0.888033,86704.117
535,0.8897,87185.05499999999
536,0.891367,87654.516
537,0.893033,87654.516
538,0.8947000000000001,88101.031
539,0.896367,88532.641
540,0.898033,88946.07799999999
541,0.899767,88946.07799999999
542,0.901367,89335.516
543,0.903033,89707.29700000001
544,0.904717,90059.414
545,0.906367,90059.414
546,0.908017,90391.93799999999
547,0.909683,90706.352
548,0.91135,90706.352
549,0.913017,91006.82799999999
550,0.914683,91284.586
551,0.916467,91542.602
552,0.918017,91542.602
553,0.919683,91779.75
554,0.92135,91992.914
555,0.923017,92186.109
556,0.924683,92186.109
557,0.92635,92356.281
558,0.928017,92502.758
559,0.929683,92625.766
560,0.93135,92625.766
561,0.933017,92724.18799999999
562,0.934683,92799.664
563,0.93635,92799.664
564,0.938017,92855.32000000001
565,0.939683,92884.45299999999
566,0.94135,92891.75
567,0.943017,92891.75
568,0.9446830000000001,92878.789
569,0.94635,92835.05499999999
570,0.948017,92771.352
571,0.9496830000000001,92771.352
572,0.95135,92682.094
573,0.953017,92561.54700000001
574,0.9546829999999999,92422.664
575,0.95635,92422.664
576,0.958017,92252.117
577,0.959683,92056.992
578,0.96135,91834.961
579,0.963017,91834.961
580,0.964683,91585.664
581,0.96635,91311.711
582,0.968,91311.711
583,0.9696669999999999,91006.67999999999
584,0.971333,90681.609
585,0.973033,90327.859
586,0.974667,90327.859
587,0.976333,89947.42999999999
588,0.978,89544.656
589,0.979667,89115.352
590,0.981333,89115.352
591,0.983,88660.344
592,0.984667,88186.414
593,0.986333,87686.258
594,0.988017,87686.258
595,0.98965,87162.32799999999
596,0.991317,86617.469
597,0.9929829999999999,86617.469
598,0.99465,86047.125
599,0.996317,85459.5
600,0.997983,84851.758
601,0.99965,84851.758
602,1.001333,84227.992
603,1.002983,83587.992
604,1.00465,82930.92200000001
605,1.006317,82930.92200000001
606,1.007983,82257.539
607,1.00965,81566.57000000001
608,1.011317,80857.273
609,1.012983,80857.273
610,1.01465,80135.836
611,1.016317,79404.56299999999
612,1.018,78660.398
613,1.01965,78660.398
614,1.021317,77909.45299999999
615,1.022983,77145.69500000001
616,1.02465,77145.69500000001
617,1.026317,76373.219
618,1.027967,75595.67999999999
619,1.029633,74811.352
620,1.0313,74811.352
621,1.032967,74025.242
622,1.034717,73231.383
623,1.0363,72433.05499999999
624,1.037967,72433.05499999999
625,1.039633,71635.69500000001
626,1.0413,70834.086
627,1.042967,70035.086
628,1.044633,70035.086
629,1.046333,69235.641
630,1.047967,68434.17999999999
631,1.049633,68434.17999999999
632,1.0513,67631.07799999999
633,1.052967,66828.133
634,1.054633,66026.44500000001
635,1.0563,66026.44500000001
636,1.057967,65227.895
637,1.059633,64436.793
638,1.061317,63649.34
639,1.062967,63649.34
640,1.064633,62866.582
641,1.0663,62090.828
642,1.067967,61317.535
643,1.069633,61317.535
644,1.0713,60550.051
645,1.072967,59793.145
646,1.074633,59040.262
647,1.076317,59040.262
648,1.077967,58297.293
649,1.079633,57560.504
650,1.0813,57560.504
651,1.082967,56828.41
652,1.084633,56104.215
653,1.0863,55387.469
654,1.08795,55387.469
655,1.089617,54679.438
656,1.091283,53980.051
657,1.09295,53286.777
658,1.094617,53286.777
659,1.096283,52599.758
660,1.09795,51922.723
661,1.099617,51252.617
662,1.101283,51252.617
663,1.10295,50590.484
664,1.104617,49940.348
665,1.106283,49940.348
666,1.10795,49296.469
667,1.109617,48662.051
668,1.111317,48039.332
669,1.11295,48039.332
670,1.114617,47419.891
671,1.116283,46808.941
672,1.11795,46204.625
673,1.119683,46204.625
674,1.121283,45606.941
675,1.12295,45017.676
676,1.124617,44439.586
677,1.126283,44439.586
678,1.12795,43864.922
679,1.129617,43298.305
680,1.131283,43298.305
681,1.13295,42742.418
682,1.134617,42186.676
683,1.136283,41647.852
684,1.13795,41647.852
685,1.139617,41114.016
686,1.141283,40584.953
687,1.14295,40069.445
688,1.144617,40069.445
689,1.146283,39554.016
690,1.147933,39044.543
691,1.1496,38545.059
692,1.151267,38545.059
693,1.152983,38049.742
694,1.1546,37563.52
695,1.156267,37085.117
696,1.157933,37085.117
697,1.1596,36609.621
698,1.161267,36144.332
699,1.162933,36144.332
700,1.1646,35687.609
701,1.166267,35237.074
702,1.167933,34792.871
703,1.169617,34792.871
704,1.171267,34355.672
705,1.172933,33925.102
706,1.1746,33499.227
707,1.176267,33499.227
708,1.177933,33081.621
709,1.1796,32664.984
710,1.181267,32252.818
711,1.182933,32252.818
712,1.1846,31848.699
713,1.186267,31451.285
714,1.187933,31451.285
715,1.1896,31059.234
716,1.191267,30673.891
717,1.192933,30293.762
718,1.1946,30293.762
719,1.196267,29915.348
720,1.197933,29546.693
721,1.1996,29182.732
722,1.201267,29182.732
723,1.202933,28825.701
724,1.2046,28478.43
725,1.206267,28131.604
726,1.207933,28131.604
727,1.209583,27787.984
728,1.21125,27451.143
729,1.212917,27118.4
730,1.214583,27118.4
731,1.21625,26790.426
732,1.217917,26468.188
733,1.219583,26468.188
734,1.22125,26151.984
735,1.222917,25840.998
736,1.224583,25536.119
737,1.22625,25536.119
738,1.227917,25236.234
739,1.229583,24937.242
740,1.23125,24643.02
741,1.232917,24643.02
742,1.234583,24352.074
743,1.236267,24066.717
744,1.237983,23786.053
745,1.239583,23786.053
746,1.24125,23509.338
747,1.242917,23239.777
748,1.244583,23239.777
749,1.246267,22973.865
750,1.247917,22711.158
751,1.249583,22452.92
752,1.25125,22452.92
753,1.252917,22197.439
754,1.254583,21948.516
755,1.25625,21701.604
756,1.257917,21701.604
757,1.259583,21457.449
758,1.26125,21217.018
759,1.262917,20979.121
760,1.264583,20979.121
761,1.26625,20749.941
762,1.2679,20521.656
763,1.269567,20295.828
764,1.271367,20295.828
765,1.2729,20076.484
766,1.274567,19861.162
767,1.276233,19861.162
768,1.2779,19651.801
769,1.279567,19446.834
770,1.281217,19237.102
771,1.282883,19237.102
772,1.28455,19030.57
773,1.286217,18825.01
774,1.287883,18627.793
775,1.28955,18627.793
776,1.291217,18435.492
777,1.292883,18242.598
778,1.29455,18055.066
779,1.296217,18055.066
780,1.297883,17865.598
781,1.29955,17679.93
782,1.301217,17679.93
783,1.302883,17502.68
784,1.30455,17325.357
785,1.306217,17149.523
786,1.307883,17149.523
787,1.30955,16978.83
788,1.311217,16805.529
789,1.312883,16636.029
790,1.31455,16636.029
791,1.316217,16471.967
792,1.317883,16307.31
793,1.31955,16147.792
794,1.321217,16147.792
795,1.322883,15992.001
796,1.32455,15839.04
797,1.326283,15689.954
798,1.327867,15689.954
799,1.329533,15541.017
800,1.3312,15396.104
801,1.332867,15396.104
802,1.334533,15249.104
803,1.3362,15103.742
804,1.337867,14963.001
805,1.339533,14963.001
806,1.3412,14821.067
807,1.342867,14684.126
808,1.344533,14546.886
809,1.3462,14546.886
810,1.347867,14410.168
811,1.349533,14278.814
812,1.3512,14147.833
813,1.352867,14147.833
814,1.354533,14021.024
815,1.356233,13897.493
816,1.357867,13897.493
817,1.359533,13776.57
818,1.3612,13657.511
819,1.362867,13541.058
820,1.364533,13541.058
821,1.3662,13422.594
822,1.367867,13301.969
823,1.369533,13184.696
824,1.3712,13184.696
825,1.372867,13069.287
826,1.374533,12957.677
827,1.3762,12846.44
828,1.377867,12846.44
829,1.379533,12737.587
830,1.3812,12629.628
831,1.382867,12629.628
832,1.384533,12521.445
833,1.3862,12416.467
834,1.38785,12314.99
835,1.389633,12314.99
836,1.391183,12215.748
837,1.39285,12115.836
838,1.394517,12019.426
839,1.396183,12019.426
840,1.39785,11921.376
841,1.399517,11820.867
842,1.401183,11726.692
843,1.40285,11726.692
844,1.404583,11632.815
845,1.406183,11541.694
846,1.40785,11453.629
847,1.409517,11453.629
848,1.411183,11363.029
849,1.41285,11275.112
850,1.414517,11275.112
851,1.416183,11182.353
852,1.41785,11095.032
853,1.419517,11009.574
854,1.421183,11009.574
855,1.42285,10922.626
856,1.424517,10840.147
857,1.426183,10755.658
858,1.42785,10755.658
859,1.429517,10676.831
860,1.431183,10598.078
861,1.43285,10518.506
862,1.434517,10518.506
863,1.436183,10442.51
864,1.43785,10363.534
865,1.439517,10363.534
866,1.441183,10287.612
867,1.44285,10215.789
868,1.444517,10141.73
869,1.446183,10141.73
870,1.447833,10068.044
871,1.4495,9992.495000000001
872,1.451167,9916.797
873,1.452833,9916.797
874,1.4545,9842.888000000001
875,1.456167,9769.351000000001
876,1.457833,9702.742
877,1.4595,9702.742
878,1.461167,9635.165000000001
879,1.462833,9570.941000000001
