"ID","sea_time","fid_signal"
1,0,1165.569
2,0.001767,1166.239
3,0.003333,1166.239
4,0.005,1165.047
5,0.006667,1165.792
6,0.008333,1168.326
7,0.01,1168.326
8,0.011667,1171.976
9,0.013333,1173.094
10,0.015,1172.498
11,0.016667,1172.498
12,0.018333,1172.945
13,0.02,1170.114
14,0.02165,1170.114
15,0.023317,1167.729
16,0.024983,1167.58
17,0.02665,1167.282
18,0.028317,1167.282
19,0.029983,1169.369
20,0.03165,1168.847
21,0.033317,1169.816
22,0.034983,1169.816
23,0.03665,1167.729
24,0.038317,1165.271
25,0.039983,1168.102
26,0.04165,1168.102
27,0.043317,1170.784
28,0.044983,1172.796
29,0.04665,1174.659
30,0.048317,1174.659
31,0.049983,1175.106
32,0.05165,1175.404
33,0.0533,1175.404
34,0.054967,1174.733
35,0.056633,1173.615
36,0.0583,1170.933
37,0.059967,1170.933
38,0.06165,1165.718
39,0.0633,1165.047
40,0.064967,1164.377
41,0.066633,1164.377
42,0.0683,1168.102
43,0.069967,1173.243
44,0.071633,1173.317
45,0.0733,1173.317
46,0.07496700000000001,1175.925
47,0.07663300000000001,1173.988
48,0.07829999999999999,1173.988
49,0.079967,1171.306
50,0.081617,1169.667
51,0.083283,1166.91
52,0.08495,1166.91
53,0.086683,1165.196
54,0.088283,1167.953
55,0.08995,1170.635
56,0.091617,1170.635
57,0.09329999999999999,1172.796
58,0.09495000000000001,1175.031
59,0.09661699999999999,1175.702
60,0.098283,1175.702
61,0.09995,1175.329
62,0.101617,1173.317
63,0.103367,1171.008
64,0.10495,1171.008
65,0.106617,1169.22
66,0.108283,1168.624
67,0.10995,1168.624
68,0.111617,1169.294
69,0.113283,1171.976
70,0.11495,1170.486
71,0.116617,1170.486
72,0.118283,1168.326
73,0.12005,1167.059
74,0.121617,1167.58
75,0.123283,1167.58
76,0.12495,1170.114
77,0.126617,1172.572
78,0.128283,1172.125
79,0.12995,1172.125
80,0.131617,1169.667
81,0.133283,1166.612
82,0.13495,1166.612
83,0.136617,1168.251
84,0.138283,1169.667
85,0.139967,1169.592
86,0.141667,1169.592
87,0.143267,1170.337
88,0.144933,1167.804
89,0.1466,1171.157
90,0.148267,1171.157
91,0.149933,1170.337
92,0.1516,1167.432
93,0.153267,1169.443
94,0.154933,1169.443
95,0.1566,1165.643
96,0.158267,1166.835
97,0.159933,1166.835
98,0.1616,1168.773
99,0.163267,1167.506
100,0.164933,1169.89
101,0.1666,1169.89
102,0.168267,1168.996
103,0.169933,1168.475
104,0.1716,1166.761
105,0.173267,1166.761
106,0.174933,1163.185
107,0.1766,1164.228
108,0.178267,1164.079
109,0.179933,1164.079
110,0.1816,1163.706
111,0.183267,1165.643
112,0.184933,1165.345
113,0.1866,1165.345
114,0.188267,1166.314
115,0.189933,1167.208
116,0.1916,1167.208
117,0.193267,1166.984
118,0.194933,1167.059
119,0.1966,1169.816
120,0.198267,1169.816
121,0.199933,1171.604
122,0.201583,1173.913
123,0.20325,1174.063
124,0.204967,1174.063
125,0.206583,1170.039
126,0.20825,1167.432
127,0.209917,1167.432
128,0.211583,1167.432
129,0.213317,1169.294
130,0.214917,1171.902
131,0.216583,1171.902
132,0.21825,1176.223
133,0.219917,1176.223
134,0.221633,1176.372
135,0.22325,1176.372
136,0.224917,1176.67
137,0.226583,1175.031
138,0.22825,1175.851
139,0.229917,1175.851
140,0.231583,1175.18
141,0.23325,1174.51
142,0.234917,1173.019
143,0.236583,1173.019
144,0.238367,1171.753
145,0.239917,1171.604
146,0.241583,1171.008
147,0.24325,1171.008
148,0.244917,1172.647
149,0.246583,1174.286
150,0.24825,1174.286
151,0.249917,1172.796
152,0.251583,1172.423
153,0.25325,1174.36
154,0.254917,1174.36
155,0.256583,1172.647
156,0.25825,1174.212
157,0.2599,1172.945
158,0.261567,1172.945
159,0.263233,1170.71
160,0.2649,1169.443
161,0.266567,1167.506
162,0.268233,1167.506
163,0.2699,1166.612
164,0.271567,1166.686
165,0.273233,1166.686
166,0.2749,1167.357
167,0.276567,1166.612
168,0.278233,1170.71
169,0.2799,1170.71
170,0.281567,1169.741
171,0.283267,1168.773
172,0.284933,1172.051
173,0.286567,1172.051
174,0.288233,1169.369
175,0.2899,1168.027
176,0.291567,1168.922
177,0.293233,1168.922
178,0.2949,1167.432
179,0.296567,1170.114
180,0.298233,1176.968
181,0.2999,1176.968
182,0.301567,1179.948
183,0.303233,1184.717
184,0.3049,1184.717
185,0.306567,1192.093
186,0.308233,1200.959
187,0.3099,1214.072
188,0.311567,1214.072
189,0.313233,1230.389
190,0.3149,1247.972
191,0.316567,1265.109
192,0.318233,1265.109
193,0.3199,1284.853
194,0.321567,1303.926
195,0.323283,1321.211
196,0.324883,1321.211
197,0.32655,1338.646
198,0.328217,1357.347
199,0.329883,1357.347
200,0.33155,1377.091
201,0.333217,1398.847
202,0.334883,1418.367
203,0.33655,1418.367
204,0.338217,1431.853
205,0.339883,1443.177
206,0.34155,1451.671
207,0.343217,1451.671
208,0.344867,1461.059
209,0.346533,1475.736
210,0.3482,1487.955
211,0.349867,1487.955
212,0.351533,1500.472
213,0.3532,1511.648
214,0.354867,1511.648
215,0.356633,1522.973
216,0.3582,1540.706
217,0.359867,1560.599
218,0.361533,1560.599
219,0.3632,1583.77
220,0.364867,1604.93
221,0.366533,1624.003
222,0.3682,1624.003
223,0.369867,1643.673
224,0.371533,1664.013
225,0.3732,1689.941
226,0.374867,1689.941
227,0.376533,1718.625
228,0.3782,1747.906
229,0.37985,1782.626
230,0.381517,1782.626
231,0.383183,1817.197
232,0.38485,1860.186
233,0.386517,1860.186
234,0.388183,1909.211
235,0.38985,1961.961
236,0.391517,2029.389
237,0.393183,2029.389
238,0.39485,2106.652
239,0.396517,2205.67
240,0.398183,2327.04
241,0.39985,2327.04
242,0.401517,2474.338
243,0.403183,2659.559
244,0.40485,2889.186
245,0.406517,2889.186
246,0.408183,3173.724
247,0.40985,3515.78
248,0.411517,3515.78
249,0.413183,3918.335
250,0.41485,4384.89
251,0.416517,4917.085
252,0.418183,4917.085
253,0.41985,5523.86
254,0.421517,6196.722
255,0.423183,6935.671
256,0.42485,6935.671
257,0.426517,7740.259
258,0.428183,8596.182000000001
259,0.42985,9507.984
260,0.431517,9507.984
261,0.433183,10467.172
262,0.43485,11466.369
263,0.436517,12506.246
264,0.438183,12506.246
265,0.43985,13577.938
266,0.4415,14680.475
267,0.443167,14680.475
268,0.444833,15810.803
269,0.4465,16961.471
270,0.448167,18134.191
271,0.449833,18134.191
272,0.4515,19323.527
273,0.453167,20528.809
274,0.454833,21747.797
275,0.4565,21747.797
276,0.458167,22977.219
277,0.459833,24214.686
278,0.4615,25456.398
279,0.463167,25456.398
280,0.464833,26703.18
281,0.4665,27948.916
282,0.468167,27948.916
283,0.469833,29193.684
284,0.4715,30433.238
285,0.473167,31665.564
286,0.474933,31665.564
287,0.4765,32883.063
288,0.478167,34090.727
289,0.479833,35285.277
290,0.4815,35285.277
291,0.483167,36468.207
292,0.484833,37644.805
293,0.4865,38802.848
294,0.488167,38802.848
295,0.489833,39948.523
296,0.4915,41073.336
297,0.493167,42180.566
298,0.494833,42180.566
299,0.4965,43265.223
300,0.498167,44315.754
301,0.499817,44315.754
302,0.501483,45326.875
303,0.50315,46280.922
304,0.504817,47164.707
305,0.506483,47164.707
306,0.50815,47944.637
307,0.509817,48561.617
308,0.511483,48883.41
309,0.51315,48883.41
310,0.514817,48676.805
311,0.516483,47584.473
312,0.51815,45237.691
313,0.519817,45237.691
314,0.521483,41486.023
315,0.523167,36536.156
316,0.524817,36536.156
317,0.526483,30946.285
318,0.52815,25414.824
319,0.529817,20503.85
320,0.531483,20503.85
321,0.53315,16485.676
322,0.534817,13380.051
323,0.536483,11055.768
324,0.53815,11055.768
325,0.539817,9342.357
326,0.541483,8078.739
327,0.54315,7135.793
328,0.544817,7135.793
329,0.5464830000000001,6422.177
330,0.54815,5864.576
331,0.549833,5420.074
332,0.5514829999999999,5420.074
333,0.55315,5058.273
334,0.554817,4751.086
335,0.5564829999999999,4751.086
336,0.55815,4488.602
337,0.559867,4262.03
338,0.561517,4060.566
339,0.563133,4060.566
340,0.5648,3880.784
341,0.5664670000000001,3720.075
342,0.568133,3573.895
343,0.5698,3573.895
344,0.5714669999999999,3441.349
345,0.573133,3318.936
346,0.5748,3206.953
347,0.576467,3206.953
348,0.578133,3103.912
349,0.5798,3004
350,0.581467,3004
351,0.583133,2916.828
352,0.5848,2833.754
353,0.586467,2758.13
354,0.588133,2758.13
355,0.5898,2689.585
356,0.591467,2620.742
357,0.593233,2560.914
358,0.5948,2560.914
359,0.596467,2501.831
360,0.598133,2446.398
361,0.5998,2395.511
362,0.601467,2395.511
363,0.603133,2344.102
364,0.6048,2298.206
365,0.606467,2298.206
366,0.608133,2256.632
367,0.6098,2216.399
368,0.611467,2178.997
369,0.613133,2178.997
370,0.6148,2142.862
371,0.616467,2108.961
372,0.618133,2075.732
373,0.6198,2075.732
374,0.6214499999999999,2044.588
375,0.623117,2012.849
376,0.624783,1981.109
377,0.62645,1981.109
378,0.628117,1951.382
379,0.629783,1924.187
380,0.63145,1898.333
381,0.633117,1898.333
382,0.634783,1877.099
383,0.636433,1856.089
384,0.6381,1856.089
385,0.639767,1831.576
386,0.641433,1809.597
387,0.6431,1785.681
388,0.644767,1785.681
389,0.646433,1767.352
390,0.6481,1754.761
391,0.649767,1741.573
392,0.651433,1741.573
393,0.6531,1725.778
394,0.654767,1709.461
395,0.656433,1692.548
396,0.6581,1692.548
397,0.659767,1678.169
398,0.661433,1665.13
399,0.6631,1665.13
400,0.664767,1649.41
401,0.6664330000000001,1632.795
402,0.6681,1618.341
403,0.669767,1618.341
404,0.6714329999999999,1607.016
405,0.6731,1597.777
406,0.674767,1588.017
407,0.676433,1588.017
408,0.678133,1578.256
409,0.67975,1567.006
410,0.6814170000000001,1553.819
411,0.683083,1553.819
412,0.68475,1543.164
413,0.6864170000000001,1534.671
414,0.688083,1525.879
415,0.68975,1525.879
416,0.6914169999999999,1518.577
417,0.693083,1510.307
418,0.694833,1510.307
419,0.696417,1498.312
420,0.698083,1486.54
421,0.69975,1477.078
422,0.701417,1477.078
423,0.703083,1470.521
424,0.704783,1466.274
425,0.706417,1463.592
426,0.708083,1463.592
427,0.70975,1458.6
428,0.711533,1450.33
429,0.713083,1441.538
430,0.71475,1441.538
431,0.716417,1434.386
432,0.718083,1430.958
433,0.71975,1430.958
434,0.721417,1425.222
435,0.723083,1420.677
436,0.7247670000000001,1414.418
437,0.726417,1414.418
438,0.728083,1407.266
439,0.72975,1406.595
440,0.731417,1399.964
441,0.733083,1399.964
442,0.73475,1395.121
443,0.736417,1388.341
444,0.738083,1381.114
445,0.739733,1381.114
446,0.7413999999999999,1380.22
447,0.743067,1378.506
448,0.744733,1378.506
449,0.7464,1376.718
450,0.748067,1373.515
451,0.749733,1365.691
452,0.7514,1365.691
453,0.753067,1354.963
454,0.754733,1349.822
455,0.7564,1347.14
456,0.758067,1347.14
457,0.759733,1342.222
458,0.7614,1340.359
459,0.7630670000000001,1335.517
460,0.764733,1335.517
461,0.7664,1329.109
462,0.7680670000000001,1329.333
463,0.769733,1327.917
464,0.7714,1327.917
465,0.773083,1325.533
466,0.774733,1324.341
467,0.7764,1324.341
468,0.778067,1320.541
469,0.779733,1318.753
470,0.7814,1316.816
471,0.783067,1316.816
472,0.784733,1314.506
473,0.7864,1312.271
474,0.788067,1311.377
475,0.789733,1311.377
476,0.7914,1307.353
477,0.793067,1302.66
478,0.794733,1299.232
479,0.796417,1299.232
480,0.79805,1293.942
481,0.799733,1294.464
482,0.801383,1294.464
483,0.80305,1292.229
484,0.804717,1289.696
485,0.806383,1290.813
486,0.80805,1290.813
487,0.809717,1288.578
488,0.811383,1288.28
489,0.813133,1285.225
490,0.814717,1285.225
491,0.816383,1280.755
492,0.8180500000000001,1276.359
493,0.819717,1272.857
494,0.821383,1272.857
495,0.8230499999999999,1273.155
496,0.824717,1273.304
497,0.826383,1274.496
498,0.82805,1274.496
499,0.829817,1274.347
500,0.831383,1274.347
501,0.83305,1274.347
502,0.834717,1271.591
503,0.836383,1267.344
504,0.83805,1261.979
505,0.839717,1261.979
506,0.841383,1255.795
507,0.84305,1255.348
508,0.8447170000000001,1256.242
509,0.8464,1256.242
510,0.84805,1261.085
511,0.849733,1263.171
512,0.851383,1258.478
513,0.85305,1258.478
514,0.8547169999999999,1254.752
515,0.856383,1247.078
516,0.85805,1247.078
517,0.859717,1243.204
518,0.861367,1244.545
519,0.8630330000000001,1242.757
520,0.8647,1242.757
521,0.866367,1244.769
522,0.8680330000000001,1247.749
523,0.8697,1247.376
524,0.871367,1247.376
525,0.8730329999999999,1251.772
526,0.8747,1251.325
527,0.876367,1249.611
528,0.878033,1249.611
529,0.8797,1247.451
530,0.881367,1243.725
531,0.883033,1243.204
532,0.8847,1243.204
533,0.886367,1240
534,0.888033,1238.957
535,0.8897,1238.957
536,0.891367,1238.957
537,0.893033,1236.871
538,0.8947000000000001,1237.69
539,0.896367,1237.69
540,0.898033,1237.989
541,0.8997000000000001,1237.765
542,0.901367,1238.808
543,0.903033,1238.808
544,0.9046999999999999,1237.541
545,0.906367,1235.604
546,0.908033,1231.134
547,0.9097,1231.134
548,0.911367,1229.793
549,0.913033,1227.036
550,0.91475,1224.577
551,0.916367,1224.577
552,0.918033,1226.738
553,0.9197,1226.44
554,0.92135,1226.44
555,0.923017,1225.471
556,0.924683,1225.919
557,0.926333,1223.981
558,0.928,1223.981
559,0.929667,1222.789
560,0.93145,1224.354
561,0.9330000000000001,1224.056
562,0.934667,1224.056
563,0.936333,1220.927
564,0.9379999999999999,1218.17
565,0.939667,1218.17
566,0.941333,1219.064
567,0.9429999999999999,1219.66
568,0.944667,1220.852
569,0.946333,1220.852
570,0.9480499999999999,1220.778
571,0.949667,1214.817
572,0.951333,1211.017
573,0.953,1211.017
574,0.954667,1209.974
575,0.956333,1208.857
576,0.958,1210.123
577,0.959667,1210.123
578,0.961333,1210.943
579,0.963,1212.209
580,0.9647829999999999,1212.06
581,0.966333,1212.06
582,0.968,1211.613
583,0.9696669999999999,1211.092
584,0.971333,1211.092
585,0.973,1211.166
586,0.974667,1212.731
587,0.976333,1213.625
588,0.978,1213.625
589,0.97965,1213.551
590,0.981317,1212.284
591,0.9829830000000001,1209.006
592,0.98465,1209.006
593,0.986317,1208.559
594,0.9879829999999999,1211.39
595,0.989667,1209.676
596,0.991367,1209.676
597,0.9929829999999999,1212.209
598,0.99465,1214.072
599,0.996317,1214.072
600,0.997983,1213.402
601,0.99965,1215.264
602,1.001317,1212.656
603,1.002983,1212.656
604,1.00465,1211.315
605,1.006317,1210.943
606,1.007983,1208.112
607,1.00965,1208.112
608,1.011317,1207.441
609,1.012983,1205.206
610,1.01465,1199.99
611,1.016317,1199.99
612,1.017983,1198.649
613,1.01965,1198.202
614,1.021317,1197.83
615,1.022983,1197.83
616,1.02465,1198.426
617,1.026317,1199.022
618,1.027983,1199.022
619,1.02965,1202.747
620,1.031317,1204.088
621,1.032983,1204.237
622,1.03465,1204.237
623,1.036317,1205.355
624,1.037983,1205.578
625,1.039633,1204.759
626,1.0413,1204.759
627,1.042967,1206.547
628,1.044633,1206.249
629,1.0463,1203.269
630,1.047967,1203.269
631,1.04965,1202.971
632,1.0513,1202.077
633,1.052967,1202.077
634,1.054633,1202.896
635,1.0563,1203.865
636,1.057967,1202.449
637,1.059633,1202.449
638,1.0613,1201.853
639,1.062967,1198.575
640,1.064633,1197.01
641,1.066333,1197.01
642,1.067967,1198.351
643,1.069633,1198.649
644,1.0713,1199.394
645,1.072967,1199.394
646,1.074633,1196.936
647,1.0763,1195.893
648,1.077967,1193.359
649,1.079633,1193.359
650,1.0813,1192.838
651,1.083083,1195.818
652,1.084633,1195.818
653,1.0863,1196.712
654,1.087967,1196.489
655,1.089633,1198.426
656,1.0913,1198.426
657,1.092967,1196.638
658,1.094633,1196.042
659,1.0963,1195.073
660,1.097967,1195.073
661,1.099617,1194.104
662,1.101283,1192.912
663,1.10295,1193.062
664,1.104617,1193.062
665,1.106283,1193.285
666,1.10795,1192.242
667,1.109617,1192.242
668,1.111283,1193.657
669,1.11295,1193.359
670,1.114617,1196.116
671,1.116283,1196.116
672,1.11795,1196.191
673,1.119617,1195.669
674,1.121283,1197.085
675,1.12295,1197.085
676,1.124617,1196.489
677,1.126317,1195.371
678,1.127967,1194.104
679,1.129617,1194.104
680,1.131283,1191.72
681,1.13295,1194.477
682,1.134617,1193.881
683,1.136283,1193.881
684,1.13795,1194.999
685,1.139617,1196.191
686,1.141283,1196.191
687,1.14295,1193.732
688,1.144617,1195.818
689,1.146283,1194.03
690,1.14795,1194.03
691,1.149617,1189.858
692,1.151283,1188.293
693,1.15295,1188.07
694,1.154617,1188.07
695,1.156283,1187.324
696,1.15795,1187.548
697,1.1596,1189.634
698,1.161267,1189.634
699,1.162933,1186.505
700,1.1646,1189.187
701,1.166267,1189.187
702,1.167933,1191.273
703,1.1696,1187.623
704,1.171267,1187.846
705,1.172933,1187.846
706,1.1746,1188.442
707,1.176267,1187.399
708,1.177933,1189.485
709,1.1796,1189.485
710,1.181267,1191.795
711,1.182933,1190.677
712,1.184617,1192.093
713,1.186267,1192.093
714,1.187933,1189.858
715,1.1896,1188.293
716,1.191267,1188.293
717,1.192933,1186.43
718,1.1946,1184.27
719,1.196267,1184.419
720,1.197933,1184.419
721,1.1996,1183.823
722,1.2014,1184.121
723,1.202933,1185.983
724,1.2046,1185.983
725,1.206267,1187.25
726,1.207933,1187.101
727,1.2096,1187.026
728,1.211267,1187.026
729,1.212933,1187.772
730,1.2146,1187.026
731,1.216267,1190.007
732,1.217917,1190.007
733,1.219567,1189.709
734,1.221233,1186.952
735,1.2229,1186.952
736,1.224567,1186.803
737,1.226233,1185.909
738,1.2279,1188.368
739,1.229567,1188.368
740,1.231233,1188.889
741,1.2329,1191.199
742,1.234567,1190.007
743,1.236233,1190.007
744,1.2379,1187.921
745,1.239567,1190.007
746,1.241233,1186.505
747,1.2429,1186.505
748,1.244567,1189.113
749,1.246233,1186.952
750,1.2479,1186.952
751,1.249567,1183.897
752,1.251233,1185.238
753,1.2529,1185.015
754,1.254567,1185.015
755,1.256233,1188.517
756,1.2579,1189.56
757,1.259567,1188.442
758,1.261233,1188.442
759,1.2629,1183.376
760,1.264567,1183.227
761,1.266233,1182.109
762,1.2679,1182.109
763,1.269567,1183.897
764,1.271233,1185.983
765,1.2729,1180.992
766,1.274583,1180.992
767,1.276233,1182.482
768,1.2779,1184.791
769,1.27955,1184.791
770,1.281217,1184.94
771,1.282883,1189.709
772,1.28455,1189.485
773,1.28625,1189.485
774,1.287883,1188.144
775,1.28955,1187.474
776,1.291217,1188.144
777,1.292883,1188.144
778,1.29455,1187.101
779,1.296217,1185.834
780,1.297883,1186.803
781,1.29955,1186.803
782,1.301217,1183.078
783,1.3029,1183.376
784,1.30455,1183.376
785,1.306217,1183.897
786,1.307883,1183.003
787,1.30955,1184.642
788,1.311217,1184.642
789,1.312883,1187.399
790,1.31455,1189.038
791,1.316217,1190.23
792,1.317883,1190.23
793,1.319667,1190.826
794,1.321217,1187.697
795,1.322883,1187.25
796,1.32455,1187.25
797,1.326217,1188.219
798,1.327883,1189.783
799,1.32955,1187.995
800,1.331217,1187.995
801,1.332883,1186.356
802,1.33455,1183.152
803,1.336217,1183.152
804,1.337883,1178.756
805,1.339533,1180.097
806,1.3412,1178.235
807,1.342867,1178.235
808,1.344533,1179.874
809,1.346233,1179.725
810,1.347867,1181.439
811,1.349533,1181.439
812,1.3512,1182.333
813,1.352867,1180.47
814,1.354533,1184.568
815,1.3562,1184.568
816,1.357867,1184.493
817,1.359533,1184.046
818,1.3612,1184.046
819,1.362867,1186.952
820,1.36455,1185.089
821,1.3662,1186.505
822,1.367867,1186.505
823,1.369533,1189.187
824,1.3712,1186.43
825,1.372867,1188.07
826,1.374533,1188.07
827,1.3762,1185.089
828,1.377867,1183.376
829,1.379533,1185.387
830,1.3812,1185.387
831,1.382867,1182.78
832,1.384533,1184.046
833,1.3862,1184.046
834,1.387867,1183.301
835,1.389533,1184.493
836,1.3912,1183.599
837,1.392867,1183.599
838,1.394533,1185.685
839,1.3962,1188.815
840,1.397867,1188.368
841,1.399533,1188.368
842,1.401183,1189.783
843,1.40285,1185.983
844,1.404583,1182.482
845,1.406183,1182.482
846,1.40785,1178.086
847,1.409533,1177.192
848,1.411183,1177.862
849,1.41285,1177.862
850,1.414517,1175.553
851,1.416183,1177.639
852,1.41785,1177.639
853,1.419517,1178.384
854,1.421183,1179.203
855,1.42285,1179.799
856,1.424517,1179.799
857,1.426183,1179.203
858,1.42785,1176.968
859,1.429517,1177.639
860,1.431183,1177.639
861,1.43285,1182.035
862,1.434517,1182.78
863,1.436183,1185.611
864,1.437967,1185.611
865,1.439517,1182.482
866,1.441183,1181.737
867,1.44285,1181.737
868,1.444517,1183.599
869,1.446183,1185.164
870,1.44785,1187.995
871,1.449517,1187.995
872,1.451183,1188.144
873,1.452867,1186.281
874,1.454517,1184.195
875,1.456183,1184.195
876,1.45785,1182.78
877,1.4595,1180.246
878,1.461167,1180.693
879,1.462833,1180.693
880,1.4645,1180.097
881,1.466167,1178.16
882,1.467833,1179.203
883,1.4695,1179.203
884,1.471167,1177.713
885,1.472833,1175.329
886,1.4745,1175.329
887,1.476167,1176.447
888,1.477833,1176.074
889,1.4795,1176.074
890,1.481167,1176.074
891,1.482867,1178.607
892,1.4845,1179.352
893,1.486167,1179.054
894,1.487833,1179.054
895,1.4895,1180.693
896,1.491167,1181.215
897,1.492833,1182.78
898,1.4945,1182.78
899,1.496167,1183.301
900,1.497833,1183.45
901,1.4995,1183.45
902,1.501167,1180.47
903,1.502833,1177.788
904,1.5045,1175.702
905,1.506167,1175.702
906,1.507833,1172.721
907,1.509483,1177.415
908,1.51115,1178.384
909,1.512817,1178.384
910,1.514483,1178.831
911,1.51615,1180.843
912,1.517817,1176.149
913,1.519467,1176.149
914,1.521133,1173.839
915,1.522883,1171.827
916,1.524467,1171.827
