"ID","sea_time","fid_signal"
1,0,141.643
2,0.001667,141.881
3,0.003333,141.859
4,0.005,141.859
5,0.006667,142.023
6,0.008333,141.673
7,0.01,141.673
8,0.011667,141.524
9,0.013383,141.352
10,0.015,140.972
11,0.016667,140.972
12,0.018333,141.382
13,0.02,141.68
14,0.021667,141.695
15,0.023333,141.695
16,0.025,141.867
17,0.02665,141.755
18,0.028317,141.449
19,0.03,141.449
20,0.03165,141.159
21,0.033317,141.107
22,0.034983,141.107
23,0.03665,141.487
24,0.038317,141.725
25,0.039983,141.71
26,0.04165,141.71
27,0.043317,141.785
28,0.044983,141.68
29,0.04675,141.539
30,0.0483,141.539
31,0.049967,141.68
32,0.051633,141.613
33,0.0533,141.762
34,0.054967,141.762
35,0.05665,141.747
36,0.0583,141.621
37,0.059967,141.621
38,0.061633,141.554
39,0.0633,141.062
40,0.064967,141.315
41,0.066633,141.315
42,0.0683,141.464
43,0.069967,141.762
44,0.071633,141.911
45,0.0733,141.911
46,0.07496700000000001,141.792
47,0.07663300000000001,141.68
48,0.07829999999999999,141.382
49,0.079967,141.382
50,0.081633,141.099
51,0.0833,140.876
52,0.084967,141.174
53,0.086617,141.174
54,0.088283,141.233
55,0.08998299999999999,141.457
56,0.091617,141.457
57,0.093283,141.695
58,0.09495000000000001,141.785
59,0.09661699999999999,141.628
60,0.098283,141.628
61,0.09995,141.516
62,0.101617,141.442
63,0.103283,141.084
64,0.10495,141.084
65,0.106617,141.233
66,0.108283,141.345
67,0.10995,141.166
68,0.111617,141.166
69,0.113283,141.189
70,0.11495,141.293
71,0.116617,141.293
72,0.118283,141.174
73,0.11995,141.263
74,0.12165,141.181
75,0.123283,141.181
76,0.12495,141.196
77,0.126617,141.658
78,0.128283,141.755
79,0.12995,141.755
80,0.13165,141.978
81,0.133283,141.77
82,0.13495,141.457
83,0.136617,141.457
84,0.138283,141.36
85,0.13995,141.211
86,0.141617,141.345
87,0.143283,141.345
88,0.14495,141.598
89,0.1466,141.717
90,0.1483,141.717
91,0.149933,141.583
92,0.1516,141.837
93,0.153267,141.941
94,0.154933,141.941
95,0.1566,141.926
96,0.158267,142.023
97,0.159933,141.546
98,0.1616,141.546
99,0.163267,141.338
100,0.165067,141.159
101,0.1666,141.189
102,0.168267,141.189
103,0.169933,141.606
104,0.1716,141.807
105,0.173267,141.807
106,0.174933,141.717
107,0.1766,141.77
108,0.178267,141.449
109,0.179933,141.449
110,0.1816,141.077
111,0.183267,141.121
112,0.184933,141.039
113,0.1866,141.039
114,0.188267,141.367
115,0.189933,141.293
116,0.1916,141.241
117,0.193267,141.241
118,0.194933,141.166
119,0.1966,140.98
120,0.198267,141.196
121,0.199933,141.196
122,0.2016,141.39
123,0.203267,141.464
124,0.204933,141.464
125,0.206583,141.285
126,0.20825,141.226
127,0.209917,141.144
128,0.211583,141.144
129,0.21325,141.203
130,0.214917,141.65
131,0.216583,141.643
132,0.21825,141.643
133,0.219917,141.799
134,0.221583,141.814
135,0.22325,141.487
136,0.224933,141.487
137,0.226583,141.792
138,0.22825,141.524
139,0.229917,141.524
140,0.231583,141.457
141,0.23325,141.487
142,0.234917,141.062
143,0.236583,141.062
144,0.23825,141.226
145,0.239917,141.211
146,0.241583,141.293
147,0.24325,141.293
148,0.244917,141.621
149,0.246583,141.844
150,0.24825,141.911
151,0.249983,141.911
152,0.251583,141.799
153,0.25325,141.516
154,0.254917,141.405
155,0.256583,141.405
156,0.25825,141.665
157,0.259933,141.859
158,0.261583,141.859
159,0.26325,142.03
160,0.264917,142.075
161,0.2666,142.038
162,0.268233,142.038
163,0.2699,142.232
164,0.271567,142.127
165,0.273233,142.06
166,0.2749,142.06
167,0.276567,142.068
168,0.278233,142.246
169,0.2799,142.641
170,0.281567,142.641
171,0.283233,143.014
172,0.2849,143.521
173,0.286567,143.521
174,0.288233,143.424
175,0.2899,143.342
176,0.291567,143.722
177,0.293233,143.722
178,0.2949,143.543
179,0.296567,144.131
180,0.298233,144.854
181,0.2999,144.854
182,0.301567,145.495
183,0.303233,146.329
184,0.3049,147.32
185,0.306567,147.32
186,0.308233,148.676
187,0.3099,150.099
188,0.311567,150.099
189,0.313233,152.677
190,0.3149,155.531
191,0.316567,159.308
192,0.318233,159.308
193,0.3199,163.913
194,0.321567,168.771
195,0.323233,174.694
196,0.3249,174.694
197,0.32655,181.004
198,0.328217,187.971
199,0.329883,195.652
200,0.33155,195.652
201,0.333217,203.483
202,0.334883,212.058
203,0.33655,221.193
204,0.3382,221.193
205,0.339933,231.102
206,0.341533,242.04
207,0.3432,242.04
208,0.344867,253.193
209,0.346533,264.823
210,0.3482,276.893
211,0.349867,276.893
212,0.351533,289.164
213,0.3532,302.307
214,0.354867,315.972
215,0.356533,315.972
216,0.3582,330.411
217,0.359867,345.565
218,0.361533,361.696
219,0.3632,361.696
220,0.364867,378.698
221,0.366533,396.274
222,0.36825,414.409
223,0.369867,414.409
224,0.371533,433.423
225,0.3732,453.331
226,0.374867,453.331
227,0.376533,474.118
228,0.3782,495.769
229,0.379867,517.897
230,0.381533,517.897
231,0.3832,540.681
232,0.38485,564.747
233,0.386517,590.146
234,0.388183,590.146
235,0.38985,616.7809999999999
236,0.391517,645.1900000000001
237,0.393183,674.754
238,0.39485,674.754
239,0.396517,705.704
240,0.398183,738.934
241,0.399867,738.934
242,0.4016,774.197
243,0.403183,812.978
244,0.40485,855.535
245,0.406517,855.535
246,0.408183,902.854
247,0.40985,956.2
248,0.411517,1016.319
249,0.4132,1016.319
250,0.414867,1085.088
251,0.416517,1163.334
252,0.418183,1252.368
253,0.41985,1252.368
254,0.421517,1353.279
255,0.423183,1466.833
256,0.42485,1466.833
257,0.426517,1593.53
258,0.428183,1732.834
259,0.42985,1883.343
260,0.431517,1883.343
261,0.433183,2044.119
262,0.43485,2212.845
263,0.436517,2386.823
264,0.438183,2386.823
265,0.43985,2563.521
266,0.441517,2738.364
267,0.443183,2907.701
268,0.444833,2907.701
269,0.4465,3067.844
270,0.448167,3214.985
271,0.449833,3214.985
272,0.4515,3346.436
273,0.453167,3458.82
274,0.454833,3550.306
275,0.4565,3550.306
276,0.458167,3618.956
277,0.459833,3663.987
278,0.4615,3684.699
279,0.463167,3684.699
280,0.464833,3681.473
281,0.4665,3655.225
282,0.468167,3607.526
283,0.469833,3607.526
284,0.4715,3541.149
285,0.473167,3458.127
286,0.474833,3361.031
287,0.4765,3361.031
288,0.478167,3252.737
289,0.479833,3136.031
290,0.481533,3136.031
291,0.483167,3013.291
292,0.484833,2887.391
293,0.4866,2759.986
294,0.488167,2759.986
295,0.489833,2632.745
296,0.4915,2507.381
297,0.493167,2385.199
298,0.494833,2385.199
299,0.4965,2266.608
300,0.498167,2152.443
301,0.499833,2043.56
302,0.5014999999999999,2043.56
303,0.503167,1939.826
304,0.504833,1841.515
305,0.506483,1841.515
306,0.50815,1748.688
307,0.509817,1660.995
308,0.511483,1578.577
309,0.51315,1578.577
310,0.514817,1500.875
311,0.516483,1427.814
312,0.51815,1359.716
313,0.51995,1359.716
314,0.521483,1295.403
315,0.52315,1235.5
316,0.524817,1179.494
317,0.526483,1179.494
318,0.52815,1126.744
319,0.529817,1077.533
320,0.531483,1031.406
321,0.53315,1031.406
322,0.534817,987.895
323,0.536483,946.857
324,0.53815,946.857
325,0.539817,908.3150000000001
326,0.541483,872.061
327,0.54315,838.079
328,0.544817,838.079
329,0.5464830000000001,805.9589999999999
330,0.54815,775.672
331,0.549817,747.085
332,0.5514829999999999,747.085
333,0.55315,720.3819999999999
334,0.554817,695.393
335,0.5564829999999999,671.364
336,0.558167,671.364
337,0.559817,648.7670000000001
338,0.561483,627.466
339,0.56315,627.466
340,0.564817,607.073
341,0.5664670000000001,588.112
342,0.568133,570.245
343,0.5698,570.245
344,0.5714669999999999,553.049
345,0.57315,536.628
346,0.5748,521.0119999999999
347,0.576467,521.0119999999999
348,0.578133,506.133
349,0.5798,492.148
350,0.581467,478.849
351,0.583133,478.849
352,0.5848,466.168
353,0.586467,453.904
354,0.588133,442.252
355,0.5898,442.252
356,0.591467,431.195
357,0.593133,420.757
358,0.5948,420.757
359,0.596467,410.803
360,0.598133,401.035
361,0.5998,391.938
362,0.601467,391.938
363,0.603133,383.556
364,0.60485,375.152
365,0.606467,367.135
366,0.608133,367.135
367,0.6098,359.327
368,0.611467,351.72
369,0.613133,344.895
370,0.6148,344.895
371,0.616467,338.137
372,0.618133,331.983
373,0.6198,331.983
374,0.621533,326.03
375,0.623133,320.166
376,0.624783,314.496
377,0.62645,314.496
378,0.628167,309.02
379,0.629767,303.298
380,0.631433,297.859
381,0.6331,297.859
382,0.634767,293.292
383,0.636433,288.352
384,0.6381829999999999,284.024
385,0.639767,284.024
386,0.641433,279.941
387,0.6431,275.955
388,0.644767,275.955
389,0.646433,272.207
390,0.6481,268.243
391,0.649767,264.265
392,0.651433,264.265
393,0.6531,260.383
394,0.654883,256.814
395,0.656433,253.588
396,0.6581,253.588
397,0.659767,250.794
398,0.661433,247.881
399,0.663133,244.677
400,0.664767,244.677
401,0.6664330000000001,241.63
402,0.6681,238.605
403,0.669767,235.431
404,0.6714329999999999,235.431
405,0.6731,232.987
406,0.674767,230.551
407,0.676433,230.551
408,0.6781,227.876
409,0.679767,225.835
410,0.681433,223.771
411,0.6831,223.771
412,0.684767,221.61
413,0.6864170000000001,219.785
414,0.688083,217.549
415,0.68975,217.549
416,0.6914169999999999,215.158
417,0.693083,212.923
418,0.69475,210.859
419,0.696417,210.859
420,0.698117,208.937
421,0.69975,207.007
422,0.701417,207.007
423,0.703083,205.524
424,0.70475,203.796
425,0.706417,202.261
426,0.708083,202.261
427,0.70975,201.024
428,0.711417,199.549
429,0.713083,198.193
430,0.71475,198.193
431,0.716417,196.8
432,0.718083,195.287
433,0.71975,194.028
434,0.721417,194.028
435,0.723133,192.754
436,0.72475,191.391
437,0.726417,189.975
438,0.728083,189.975
439,0.72975,188.88
440,0.731417,187.948
441,0.733083,187.948
442,0.73475,187.062
443,0.736417,186.257
444,0.738083,185.035
445,0.739833,185.035
446,0.741417,183.813
447,0.743083,182.532
448,0.74475,181.437
449,0.7464,181.437
450,0.748067,180.274
451,0.749733,179.097
452,0.7514,178.225
453,0.753067,178.225
454,0.754733,177.652
455,0.756467,177.041
456,0.758067,177.041
457,0.759733,176.445
458,0.7614,175.782
459,0.7630670000000001,174.433
460,0.764733,174.433
461,0.7664,173.293
462,0.7680670000000001,172.436
463,0.769733,171.624
464,0.771417,171.624
465,0.7732,171.244
466,0.774733,171.028
467,0.7764,170.343
468,0.778067,170.343
469,0.779733,169.776
470,0.7814,169.083
471,0.783067,168.398
472,0.784733,168.398
473,0.7864,168.003
474,0.788067,167.347
475,0.789733,167.347
476,0.7914,166.923
477,0.793067,166.2
478,0.794733,165.366
479,0.7964,165.366
480,0.798067,164.643
481,0.799733,163.853
482,0.8014,163.399
483,0.803067,163.399
484,0.804733,162.996
485,0.806383,162.825
486,0.80805,162.646
487,0.809717,162.646
488,0.811383,162.341
489,0.8130500000000001,162.154
490,0.814717,162.154
491,0.816383,161.447
492,0.8180500000000001,160.798
493,0.819717,160.068
494,0.821383,160.068
495,0.8230499999999999,159.703
496,0.824717,159.577
497,0.826383,159.45
498,0.82805,159.45
499,0.829717,159.286
500,0.831383,158.809
501,0.833067,158.526
502,0.834717,158.526
503,0.836383,158.057
504,0.83805,157.736
505,0.839717,157.617
506,0.841383,157.617
507,0.84305,157.289
508,0.8447170000000001,157.394
509,0.846383,157.394
510,0.84805,157.312
511,0.8497169999999999,157.103
512,0.851383,156.544
513,0.85305,156.544
514,0.8547169999999999,155.762
515,0.8564000000000001,155.203
516,0.858067,154.801
517,0.859717,154.801
518,0.861383,154.831
519,0.86305,154.711
520,0.864717,154.696
521,0.866367,154.696
522,0.8680330000000001,154.398
523,0.8697,154.13
524,0.871367,154.13
525,0.8730329999999999,154.026
526,0.874733,153.907
527,0.876367,153.668
528,0.878033,153.668
529,0.8797,153.378
530,0.881367,153.206
531,0.883033,152.744
532,0.8847,152.744
533,0.886367,152.603
534,0.888033,152.491
535,0.8897,152.275
536,0.891483,152.275
537,0.893033,152.26
538,0.8947000000000001,152.044
539,0.896367,152.044
540,0.898033,151.902
541,0.8997000000000001,151.649
542,0.901367,151.254
543,0.903033,151.254
544,0.9046999999999999,151.21
545,0.906383,151.254
546,0.908033,150.993
547,0.9097,150.993
548,0.911367,150.695
549,0.913033,150.487
550,0.9147,150.01
551,0.916367,150.01
552,0.918033,150.129
553,0.9197,150.464
554,0.92135,150.375
555,0.923017,150.375
556,0.924683,150.561
557,0.926333,150.368
558,0.928,150.368
559,0.929667,149.846
560,0.931333,149.57
561,0.9330000000000001,149.235
562,0.934667,149.235
563,0.936333,149.213
564,0.9379999999999999,149.287
565,0.939667,149.168
566,0.941333,149.168
567,0.9429999999999999,148.967
568,0.944667,148.915
569,0.946333,148.818
570,0.948,148.818
571,0.949667,148.855
572,0.951333,148.982
573,0.953,148.982
574,0.954667,148.691
575,0.956333,148.736
576,0.958,148.438
577,0.959667,148.438
578,0.961333,148.244
579,0.963,148.237
580,0.9646670000000001,147.916
581,0.966333,147.916
582,0.968,147.685
583,0.9696669999999999,147.35
584,0.971333,146.806
585,0.973,146.806
586,0.974667,146.657
587,0.976383,146.598
588,0.978,146.709
589,0.979683,146.709
590,0.981333,146.866
591,0.983,146.836
592,0.984667,146.836
593,0.986317,146.933
594,0.9879829999999999,146.769
595,0.98965,146.858
596,0.991317,146.858
597,0.993,146.873
598,0.99465,146.791
599,0.996317,146.806
600,0.997983,146.806
601,0.99965,146.642
602,1.001317,146.441
603,1.002983,146.091
604,1.00465,146.091
605,1.006317,146.039
606,1.007983,145.979
607,1.009767,146.344
608,1.011317,146.344
609,1.012983,146.508
610,1.01465,146.545
611,1.016317,146.545
612,1.017983,146.523
613,1.01965,146.314
614,1.021317,146.195
615,1.022983,146.195
616,1.02465,145.987
617,1.026317,145.681
618,1.027983,145.487
619,1.02965,145.487
620,1.031333,145.309
621,1.032983,145.16
622,1.03465,145.428
623,1.036317,145.428
624,1.037983,145.391
625,1.03965,145.614
626,1.041317,145.614
627,1.042983,145.86
628,1.04465,145.83
629,1.0463,145.741
630,1.047967,145.741
631,1.049633,145.637
632,1.0513,145.316
633,1.052967,145.234
634,1.054633,145.234
635,1.056317,145.137
636,1.058,144.973
637,1.059633,145.45
638,1.0613,145.45
639,1.062967,145.607
640,1.064633,145.927
641,1.0663,145.927
642,1.067967,145.935
643,1.069633,145.473
644,1.0713,145.54
645,1.072967,145.54
646,1.074633,145.584
647,1.0763,145.867
648,1.077967,145.994
649,1.079633,145.994
650,1.0813,145.622
651,1.082967,145.085
652,1.084633,144.772
653,1.0863,144.772
654,1.087967,144.511
655,1.089633,144.139
656,1.0913,144.139
657,1.092967,144.228
658,1.0947,144.295
659,1.0963,144.497
660,1.097967,144.497
661,1.099633,144.869
662,1.1013,144.571
663,1.102967,144.385
664,1.104633,144.385
665,1.106283,144.02
666,1.10795,143.595
667,1.109617,143.804
668,1.111283,143.804
669,1.11295,143.826
670,1.114617,143.796
671,1.116283,144.161
672,1.11795,144.161
673,1.119617,144.288
674,1.121283,144.303
675,1.12295,144.303
676,1.124617,144.549
677,1.126283,144.243
678,1.12805,144.139
679,1.129617,144.139
680,1.1313,144.161
681,1.13295,144.161
682,1.134617,144.541
683,1.136283,144.541
684,1.13795,144.705
685,1.139617,144.728
686,1.141283,144.653
687,1.14295,144.653
688,1.144617,144.623
689,1.146283,144.102
690,1.14795,144.102
691,1.149617,143.744
692,1.151283,143.908
693,1.15295,143.789
694,1.154617,143.789
695,1.156283,144.124
696,1.15795,144.169
697,1.159617,143.737
698,1.161283,143.737
699,1.16295,143.528
700,1.164617,143.521
701,1.166267,143.588
702,1.167933,143.588
703,1.1696,143.588
704,1.171267,143.848
705,1.172933,144.102
706,1.1746,144.102
707,1.176267,144.05
708,1.177933,144.012
709,1.1796,144.012
710,1.181267,143.744
711,1.182933,143.394
712,1.1846,143.573
713,1.186267,143.573
714,1.187933,143.714
715,1.1896,143.535
716,1.191267,143.275
717,1.192933,143.275
718,1.1946,142.992
719,1.196267,142.969
720,1.197933,143.155
721,1.1996,143.155
722,1.201267,143.647
723,1.202933,144.012
724,1.2046,144.012
725,1.206267,144.258
726,1.207933,144.385
727,1.2096,144.266
728,1.211267,144.266
729,1.212967,144.348
730,1.214583,144.333
731,1.21625,144.497
732,1.217917,144.497
733,1.219583,144.37
734,1.22125,144.057
735,1.222917,143.975
736,1.224567,143.975
737,1.226233,143.699
738,1.2279,143.401
739,1.229567,143.401
740,1.231233,143.476
741,1.2329,143.372
742,1.234567,143.357
743,1.236233,143.357
744,1.2379,143.446
745,1.239567,143.461
746,1.241233,143.297
747,1.2429,143.297
748,1.244567,142.902
749,1.246367,142.984
750,1.2479,142.939
751,1.249567,142.939
752,1.251233,143.141
753,1.2529,143.342
754,1.254567,143.245
755,1.256233,143.245
756,1.2579,143.036
757,1.259567,142.694
758,1.261233,142.694
759,1.2629,142.813
760,1.264567,143.074
761,1.266233,143.126
762,1.2679,143.126
763,1.269567,143.379
764,1.271233,143.208
765,1.2729,142.977
766,1.274567,142.977
767,1.276267,143.252
768,1.2779,143.126
769,1.279567,143.059
770,1.281233,143.059
771,1.2829,143.021
772,1.284567,142.895
773,1.286217,142.895
774,1.287883,142.79
775,1.28955,142.634
776,1.291217,142.634
777,1.292883,142.634
778,1.29455,142.775
779,1.296217,143.036
780,1.297883,143.312
781,1.29955,143.312
782,1.301217,143.58
783,1.302883,143.513
784,1.30455,143.446
785,1.306217,143.446
786,1.307883,143.573
787,1.30955,143.401
788,1.311217,142.992
789,1.312883,142.992
790,1.31455,142.664
791,1.316217,142.589
792,1.317883,142.589
793,1.31955,142.388
794,1.321217,142.537
795,1.322883,143.141
796,1.32455,143.141
797,1.326217,143.327
798,1.327883,143.357
799,1.32955,143.334
800,1.33125,143.334
801,1.332883,142.813
802,1.33455,142.567
803,1.336217,142.388
804,1.337883,142.388
805,1.33955,142.589
806,1.341217,142.761
807,1.342883,142.761
808,1.344567,143.006
809,1.3462,143.498
810,1.347983,143.55
811,1.349533,143.55
812,1.3512,143.304
813,1.352867,142.962
814,1.354533,142.515
815,1.3562,142.515
816,1.357867,142.276
817,1.359533,142.336
818,1.3612,142.209
819,1.362867,142.209
820,1.36465,142.522
821,1.3662,142.5
822,1.367867,142.88
823,1.369533,142.88
824,1.3712,143.155
825,1.372867,143.036
826,1.374533,143.036
827,1.3762,142.775
828,1.377867,142.492
829,1.379533,142.5
830,1.3812,142.5
831,1.382867,142.492
832,1.384533,142.917
833,1.3862,142.857
834,1.387867,142.857
835,1.389533,142.746
836,1.3912,142.768
837,1.392867,142.552
838,1.394533,142.552
839,1.3962,142.448
840,1.397867,142.418
841,1.399533,142.418
842,1.4012,142.626
843,1.402867,142.768
844,1.404533,143.029
845,1.4062,143.029
846,1.40785,143.133
847,1.409517,142.984
848,1.411183,142.984
849,1.41285,142.984
850,1.414517,142.932
851,1.416183,142.939
852,1.41785,142.738
853,1.41955,142.738
854,1.421183,142.843
855,1.42285,142.85
856,1.424517,142.843
857,1.426183,142.843
858,1.42785,142.939
859,1.429517,142.992
860,1.431183,142.992
861,1.43285,142.895
862,1.434533,142.47
863,1.436183,142.358
864,1.43785,142.358
865,1.439517,142.246
866,1.441183,142.03
867,1.44285,142.351
868,1.444517,142.351
869,1.446183,142.634
870,1.44785,142.5
871,1.449533,142.537
872,1.451183,142.537
873,1.45285,142.634
874,1.454517,142.455
875,1.456183,142.455
876,1.45785,142.5
877,1.459517,142.455
878,1.461183,142.507
879,1.46285,142.507
880,1.464517,142.552
881,1.46625,142.798
882,1.467833,143.275
883,1.4695,143.275
884,1.471167,143.17
885,1.472833,143.23
886,1.4745,142.694
887,1.476167,142.694
888,1.477833,142.269
889,1.4795,142.239
890,1.481167,142.239
891,1.482933,142.15
892,1.4845,142.418
893,1.4862,142.604
894,1.487833,142.604
895,1.4895,142.887
896,1.491167,143.185
897,1.492833,143.155
898,1.4945,143.155
899,1.496167,143.006
900,1.497833,142.865
901,1.499617,142.314
902,1.501167,142.314
903,1.502817,142.306
904,1.504483,142.574
905,1.50615,142.507
906,1.507817,142.507
907,1.509483,142.649
908,1.51115,142.612
909,1.512817,142.612
910,1.514483,142.746
911,1.51615,142.574
912,1.517817,142.798
913,1.519483,142.798
914,1.521183,142.79
915,1.522817,142.403
916,1.524483,142.582
917,1.526133,142.582
918,1.5278,142.291
919,1.529467,142.306
920,1.531133,142.261
921,1.5328,142.261
922,1.534467,142.187
923,1.536133,142.276
924,1.5378,142.276
925,1.539467,142.269
926,1.541133,142.172
927,1.5428,142.366
928,1.544467,142.366
929,1.546133,142.209
930,1.5478,142.12
931,1.549467,142.559
932,1.55115,142.559
933,1.5528,142.515
934,1.554467,142.783
935,1.556133,142.887
936,1.5578,142.887
937,1.559467,142.753
938,1.561133,142.701
939,1.5628,142.649
940,1.564467,142.649
941,1.566133,142.902
942,1.5678,142.924
943,1.569467,142.924
944,1.571133,143.133
945,1.5728,143.111
946,1.574467,142.887
947,1.576133,142.887
948,1.5778,142.589
949,1.579467,142.165
950,1.581133,141.859
951,1.5828,141.859
952,1.584517,141.807
953,1.586117,142.09
954,1.587783,142.492
955,1.58945,142.492
956,1.591117,142.88
957,1.592783,142.85
958,1.59445,142.85
959,1.596117,142.924
