"ID","sea_time","fid_signal"
1,0,1166.388
2,0.001683,1170.561
3,0.003333,1175.478
4,0.005,1175.478
5,0.006667,1176.149
6,0.008333,1173.988
7,0.01,1169.89
8,0.011667,1169.89
9,0.013333,1165.271
10,0.015,1163.036
11,0.016667,1161.844
12,0.018333,1161.844
13,0.02,1162.514
14,0.021717,1162.887
15,0.023333,1163.334
16,0.025,1163.334
17,0.026667,1165.643
18,0.028333,1168.102
19,0.03,1168.996
20,0.031667,1168.996
21,0.033333,1168.847
22,0.035,1171.157
23,0.036667,1171.157
24,0.038317,1171.306
25,0.039983,1174.063
26,0.04165,1177.266
27,0.043317,1177.266
28,0.044983,1171.827
29,0.04665,1168.4
30,0.048317,1166.463
31,0.049983,1166.463
32,0.05165,1165.941
33,0.053317,1169.369
34,0.055083,1173.019
35,0.05665,1173.019
36,0.058317,1174.733
37,0.059983,1174.36
38,0.06165,1174.36
39,0.063317,1171.753
40,0.064983,1168.4
41,0.06665,1166.537
42,0.068317,1166.537
43,0.069983,1164.526
44,0.07165000000000001,1164.153
45,0.07331699999999999,1164.749
46,0.07498299999999999,1164.749
47,0.07665,1165.42
48,0.078317,1167.506
49,0.079983,1169.89
50,0.08165,1169.89
51,0.083317,1169.89
52,0.084983,1172.423
53,0.08665,1172.423
54,0.08831700000000001,1172.2
55,0.09,1172.945
56,0.09165,1175.329
57,0.093317,1175.329
58,0.094983,1174.137
59,0.09665,1170.71
60,0.0983,1170.859
61,0.099967,1170.859
62,0.101633,1168.102
63,0.1033,1166.686
64,0.104967,1171.976
65,0.106633,1171.976
66,0.1083,1171.902
67,0.109967,1171.306
68,0.111633,1169.071
69,0.1133,1169.071
70,0.114967,1161.62
71,0.116633,1157.895
72,0.1183,1157.895
73,0.119967,1159.608
74,0.121633,1160.577
75,0.1233,1164.377
76,0.124967,1164.377
77,0.126633,1168.027
78,0.1283,1169.667
79,0.129967,1173.765
80,0.131633,1173.765
81,0.1333,1173.913
82,0.134967,1172.87
83,0.136633,1172.423
84,0.1383,1172.423
85,0.139967,1167.208
86,0.141633,1166.91
87,0.1433,1166.91
88,0.144967,1165.271
89,0.146633,1161.769
90,0.1483,1165.643
91,0.149967,1165.643
92,0.151633,1168.475
93,0.1533,1170.635
94,0.154967,1173.466
95,0.156617,1173.466
96,0.158267,1173.466
97,0.159933,1170.114
98,0.161617,1168.549
99,0.163267,1168.549
100,0.164933,1166.835
101,0.1666,1163.781
102,0.168267,1162.812
103,0.169933,1162.812
104,0.1716,1162.663
105,0.17335,1163.855
106,0.174933,1163.855
107,0.1766,1163.706
108,0.178267,1166.612
109,0.179933,1168.773
110,0.1816,1168.773
111,0.183267,1169.22
112,0.184933,1174.36
113,0.1866,1173.317
114,0.188267,1173.317
115,0.19005,1173.615
116,0.1916,1174.733
117,0.193267,1169.22
118,0.194933,1169.22
119,0.1966,1168.996
120,0.198267,1165.792
121,0.199933,1165.792
122,0.2016,1160.577
123,0.203267,1162.961
124,0.204933,1163.93
125,0.2066,1163.93
126,0.208267,1165.047
127,0.209933,1168.549
128,0.2116,1169.592
129,0.213267,1169.592
130,0.214933,1169.741
131,0.2166,1171.306
132,0.218267,1172.87
133,0.219917,1172.87
134,0.221583,1172.423
135,0.22325,1168.996
136,0.224917,1168.996
137,0.226583,1166.239
138,0.22825,1166.686
139,0.229917,1163.483
140,0.231583,1163.483
141,0.23325,1164.973
142,0.234917,1166.984
143,0.236583,1167.282
144,0.23825,1167.282
145,0.239917,1171.976
146,0.241583,1175.776
147,0.24325,1176.745
148,0.244917,1176.745
149,0.246583,1176.819
150,0.24825,1175.404
151,0.249917,1173.988
152,0.251583,1173.988
153,0.25325,1172.2
154,0.254917,1169.89
155,0.256583,1169.89
156,0.258267,1168.475
157,0.259917,1166.761
158,0.261583,1168.549
159,0.26325,1168.549
160,0.264917,1172.051
161,0.266583,1172.572
162,0.26825,1174.882
163,0.269917,1174.882
164,0.271583,1174.733
165,0.27325,1170.71
166,0.274983,1171.678
167,0.276583,1171.678
168,0.278233,1168.549
169,0.2799,1167.208
170,0.281567,1167.208
171,0.283233,1167.58
172,0.2849,1166.09
173,0.286567,1169.145
174,0.288233,1169.145
175,0.2899,1172.051
176,0.29165,1173.988
177,0.293233,1178.756
178,0.2949,1178.756
179,0.296567,1178.458
180,0.298233,1176.074
181,0.2999,1177.341
182,0.301567,1177.341
183,0.303233,1176.372
184,0.3049,1179.278
185,0.306567,1184.642
186,0.30835,1184.642
187,0.3099,1189.187
188,0.311567,1195.371
189,0.313233,1195.371
190,0.3149,1204.61
191,0.316567,1216.084
192,0.318233,1229.495
193,0.3199,1229.495
194,0.321567,1245.737
195,0.323233,1259.148
196,0.3249,1274.124
197,0.326567,1274.124
198,0.328233,1288.131
199,0.3299,1301.84
200,0.331567,1316.965
201,0.333233,1316.965
202,0.334917,1327.246
203,0.336567,1342.222
204,0.338217,1342.222
205,0.339883,1354.367
206,0.34155,1368.597
207,0.343217,1385.137
208,0.344883,1385.137
209,0.34655,1397.058
210,0.348217,1409.128
211,0.349883,1420.9
212,0.35155,1420.9
213,0.353217,1430.735
214,0.354883,1443.55
215,0.35655,1460.314
216,0.358217,1460.314
217,0.359883,1475.885
218,0.36155,1493.469
219,0.363217,1511.425
220,0.364883,1511.425
221,0.36655,1531.243
222,0.368217,1553.073
223,0.369883,1553.073
224,0.37155,1579.523
225,0.373217,1603.812
226,0.374883,1628.548
227,0.376567,1628.548
228,0.378217,1656.339
229,0.379883,1684.055
230,0.38155,1716.167
231,0.383217,1716.167
232,0.384883,1748.279
233,0.38655,1782.551
234,0.388217,1820.698
235,0.389883,1820.698
236,0.39155,1864.135
237,0.393233,1915.693
238,0.394883,1915.693
239,0.39655,1970.008
240,0.3982,2037.734
241,0.3999,2116.561
242,0.401533,2116.561
243,0.403233,2215.356
244,0.404867,2342.313
245,0.406533,2494.231
246,0.4082,2494.231
247,0.409883,2685.04
248,0.411533,2912.804
249,0.4132,3195.554
250,0.414867,3195.554
251,0.416533,3531.799
252,0.4182,3927.052
253,0.419867,4387.572
254,0.421533,4387.572
255,0.4232,4905.388
256,0.424867,5489.886
257,0.42665,5489.886
258,0.4282,6132.871
259,0.429867,6832.332
260,0.431533,7585.809
261,0.4332,7585.809
262,0.434867,8385.629000000001
263,0.436533,9232.610000000001
264,0.4382,10122.806
265,0.439867,10122.806
266,0.441533,11045.263
267,0.443217,11996.999
268,0.444867,12970.642
269,0.446533,12970.642
270,0.4482,13956.13
271,0.44985,14958.158
272,0.451517,14958.158
273,0.453183,15971.438
274,0.45485,16988.293
275,0.456517,18011.928
276,0.458167,18011.928
277,0.459833,19028.932
278,0.4615,20035.654
279,0.463167,21026.508
280,0.464833,21026.508
281,0.4665,21995.754
282,0.468167,22936.688
283,0.469833,23843.348
284,0.4715,23843.348
285,0.4732,24701.729
286,0.474833,25497.377
287,0.4765,25497.377
288,0.478167,26219.711
289,0.479833,26841.908
290,0.4815,27346.611
291,0.483167,27346.611
292,0.484833,27692.467
293,0.4865,27840.063
294,0.488167,27746.186
295,0.489833,27746.186
296,0.4915,27366.578
297,0.493167,26666.82
298,0.494833,25630.072
299,0.4965,25630.072
300,0.498167,24271.682
301,0.499833,22638.961
302,0.5014999999999999,20816.178
303,0.503167,20816.178
304,0.504833,18905.773
305,0.5065,17005.504
306,0.508167,17005.504
307,0.509833,15196.204
308,0.511517,13536.364
309,0.513167,12052.953
310,0.514833,12052.953
311,0.5165,10753.125
312,0.518167,9634.121999999999
313,0.519817,8680.15
314,0.521483,8680.15
315,0.52315,7866.919
316,0.524817,7177.591
317,0.526483,6589.591
318,0.52815,6589.591
319,0.529817,6083.176
320,0.531483,5646.87
321,0.53315,5646.87
322,0.534817,5267.113
323,0.536483,4936.605
324,0.53815,4646.853
325,0.539817,4646.853
326,0.541483,4391
327,0.54315,4165.247
328,0.544917,3961.772
329,0.5464830000000001,3961.772
330,0.54815,3778.041
331,0.549817,3611.669
332,0.5514829999999999,3459.454
333,0.55315,3459.454
334,0.554817,3321.916
335,0.5564829999999999,3199.875
336,0.55815,3084.317
337,0.559817,3084.317
338,0.561483,2978.37
339,0.56315,2882.779
340,0.564817,2882.779
341,0.566483,2789.646
342,0.56815,2708.584
343,0.569817,2633.333
344,0.571483,2633.333
345,0.57315,2557.263
346,0.574817,2490.729
347,0.576483,2427.399
348,0.578167,2427.399
349,0.5798,2368.018
350,0.581467,2315.864
351,0.583133,2266.541
352,0.5848,2266.541
353,0.586467,2218.41
354,0.588133,2175.346
355,0.5898,2175.346
356,0.591467,2130.568
357,0.593133,2090.782
358,0.5948,2052.114
359,0.596467,2052.114
360,0.598133,2012.849
361,0.5998,1978.129
362,0.601467,1942.664
363,0.603133,1942.664
364,0.6048,1913.682
365,0.606467,1885.965
366,0.608133,1862.198
367,0.6098,1862.198
368,0.611467,1838.654
369,0.613133,1814.142
370,0.6148,1792.237
371,0.616483,1792.237
372,0.61815,1770.63
373,0.6198,1748.13
374,0.621467,1748.13
375,0.623133,1727.492
376,0.6248,1710.355
377,0.626467,1692.995
378,0.6281330000000001,1692.995
379,0.629817,1677.126
380,0.631467,1662.224
381,0.6331329999999999,1645.908
382,0.6348,1645.908
383,0.636467,1629.516
384,0.638133,1614.988
385,0.639783,1600.832
386,0.64145,1600.832
387,0.643117,1586.676
388,0.644783,1574.159
389,0.64645,1574.159
390,0.6481170000000001,1562.014
391,0.649783,1552.179
392,0.65145,1541.227
393,0.6531169999999999,1541.227
394,0.654783,1531.765
395,0.65645,1522.601
396,0.658117,1509.562
397,0.659783,1509.562
398,0.66145,1500.025
399,0.663133,1490.34
400,0.664783,1479.685
401,0.66645,1479.685
402,0.668117,1469.776
403,0.669783,1459.196
404,0.67145,1459.196
405,0.673117,1449.808
406,0.674783,1443.55
407,0.67645,1439.154
408,0.678117,1439.154
409,0.679783,1437.664
410,0.68145,1432.896
411,0.683117,1422.912
412,0.684783,1422.912
413,0.68645,1419.112
414,0.688117,1410.842
415,0.689783,1404.434
416,0.69145,1404.434
417,0.693117,1404.509
418,0.694783,1396.76
419,0.69645,1388.043
420,0.698117,1388.043
421,0.699767,1380.965
422,0.701433,1373.44
423,0.7030999999999999,1373.44
424,0.704767,1368.448
425,0.706433,1366.585
426,0.7081,1364.946
427,0.709767,1364.946
428,0.711433,1361.668
429,0.7131,1357.198
430,0.714767,1350.567
431,0.716433,1350.567
432,0.7181,1343.489
433,0.719767,1337.156
434,0.721433,1331.791
435,0.7231,1331.791
436,0.7247670000000001,1327.619
437,0.726433,1327.097
438,0.7281,1327.097
439,0.7297670000000001,1321.063
440,0.731433,1318.231
441,0.7331,1315.996
442,0.7347669999999999,1315.996
443,0.736433,1310.706
444,0.7381,1311.675
445,0.739783,1311.228
446,0.741417,1311.228
447,0.743083,1307.428
448,0.74475,1305.044
449,0.746417,1301.169
450,0.74815,1301.169
451,0.74975,1294.613
452,0.751417,1290.739
453,0.7530829999999999,1284.853
454,0.75475,1284.853
455,0.756417,1281.798
456,0.758067,1280.233
457,0.759767,1280.233
458,0.7614,1280.233
459,0.7630670000000001,1280.233
460,0.764733,1278.967
461,0.7664,1278.967
462,0.7680670000000001,1274.496
463,0.769733,1272.932
464,0.7714,1269.504
465,0.7730669999999999,1269.504
466,0.774733,1264.661
467,0.7764,1266.524
468,0.778067,1263.32
469,0.779733,1263.32
470,0.7815,1262.724
471,0.783067,1261.979
472,0.784733,1261.979
473,0.7864,1261.16
474,0.788067,1260.117
475,0.789733,1260.266
476,0.7914,1260.266
477,0.793083,1259.223
478,0.794733,1254.007
479,0.7964,1253.262
480,0.798067,1253.262
481,0.799733,1248.643
482,0.8014,1243.129
483,0.803067,1242.682
484,0.804733,1242.682
485,0.8064,1239.031
486,0.808067,1236.796
487,0.809733,1238.063
488,0.8114,1238.063
489,0.813067,1238.063
490,0.814733,1237.989
491,0.8164,1237.989
492,0.818067,1240.522
493,0.819717,1239.702
494,0.821383,1237.839
495,0.8230499999999999,1237.839
496,0.824717,1235.753
497,0.826383,1232.475
498,0.828067,1233.146
499,0.829767,1233.146
500,0.8314,1229.569
501,0.83305,1228.824
502,0.834717,1230.91
503,0.836383,1230.91
504,0.83805,1229.122
505,0.839717,1230.314
506,0.841383,1230.314
507,0.84305,1228.899
508,0.8447170000000001,1225.248
509,0.846383,1225.397
510,0.84805,1225.397
511,0.8497169999999999,1223.311
512,0.851383,1223.236
513,0.85305,1221.672
514,0.8547169999999999,1221.672
515,0.856383,1217.723
516,0.85805,1218.095
517,0.859717,1216.382
518,0.861383,1216.382
519,0.86305,1216.754
520,0.864717,1215.339
521,0.866433,1215.041
522,0.86805,1215.041
523,0.869717,1214.892
524,0.871383,1211.166
525,0.87305,1211.166
526,0.874717,1211.092
527,0.876367,1207.59
528,0.878033,1205.28
529,0.8797,1205.28
530,0.881367,1208.782
531,0.883033,1212.284
532,0.8847,1214.668
533,0.886367,1214.668
534,0.888033,1214.519
535,0.8897,1212.433
536,0.891367,1209.006
537,0.893033,1209.006
538,0.8947000000000001,1205.951
539,0.896367,1205.28
540,0.898033,1205.28
541,0.899783,1203.492
542,0.901383,1205.802
543,0.903033,1205.876
544,0.9046999999999999,1205.876
545,0.906367,1205.876
546,0.90805,1204.014
547,0.9097,1202.747
548,0.911367,1202.747
549,0.913033,1205.653
550,0.9147,1206.249
551,0.916367,1208.112
552,0.918033,1208.112
553,0.9197,1206.174
554,0.921367,1203.045
555,0.923033,1203.045
556,0.9247,1201.332
557,0.9263670000000001,1201.853
558,0.928033,1199.32
559,0.9297,1199.32
560,0.9313669999999999,1198.351
561,0.933033,1200.438
562,0.9347,1199.171
563,0.9363669999999999,1199.171
564,0.938033,1200.885
565,0.939683,1201.332
566,0.94135,1199.916
567,0.943017,1199.916
568,0.9446830000000001,1203.343
569,0.94635,1201.779
570,0.948017,1202.673
571,0.9496830000000001,1202.673
572,0.95135,1203.045
573,0.953017,1199.99
574,0.9546829999999999,1199.99
575,0.95635,1201.704
576,0.958017,1202.375
577,0.959683,1202.226
578,0.96135,1202.226
579,0.963017,1201.034
580,0.964683,1201.853
581,0.96635,1201.853
582,0.968017,1201.853
583,0.9697,1200.289
584,0.97135,1198.128
585,0.973017,1197.755
586,0.974683,1197.755
587,0.9763500000000001,1196.489
588,0.97805,1196.489
589,0.979683,1196.489
590,0.9813499999999999,1196.191
591,0.983017,1195.371
592,0.9847,1195.52
593,0.9863499999999999,1195.52
594,0.988017,1192.987
595,0.989683,1194.999
596,0.99135,1191.944
597,0.993017,1191.944
598,0.994683,1191.646
599,0.99635,1192.167
600,0.998,1190.23
601,0.999667,1190.23
602,1.00145,1189.634
603,1.003,1187.623
604,1.004667,1187.25
605,1.006333,1187.25
606,1.008,1186.43
607,1.009667,1186.803
608,1.011333,1186.803
609,1.013,1184.121
610,1.014667,1183.525
611,1.016333,1184.791
612,1.018083,1184.791
613,1.019667,1186.877
614,1.02135,1190.603
615,1.023,1191.571
616,1.024667,1191.571
617,1.026333,1193.434
618,1.028,1191.869
619,1.029667,1190.603
620,1.031333,1190.603
621,1.032983,1190.752
622,1.03475,1190.454
623,1.036317,1190.454
624,1.037983,1192.018
625,1.03965,1192.316
626,1.041317,1190.975
627,1.042983,1190.975
628,1.04465,1189.336
629,1.046317,1189.038
630,1.047983,1189.038
631,1.04965,1189.038
632,1.051317,1191.422
633,1.052983,1189.783
634,1.05465,1186.729
635,1.056317,1186.729
636,1.057983,1183.599
637,1.059633,1182.482
638,1.0613,1182.482
639,1.062967,1182.407
640,1.064633,1182.482
641,1.066317,1183.45
642,1.067967,1183.45
643,1.069633,1183.972
644,1.0713,1184.568
645,1.072967,1187.623
646,1.074633,1187.623
647,1.0763,1189.783
648,1.077967,1187.697
649,1.079633,1187.101
650,1.0813,1187.101
651,1.082967,1187.772
652,1.084633,1188.07
653,1.0863,1192.093
654,1.087967,1192.093
655,1.089633,1192.242
656,1.0913,1191.571
657,1.092967,1191.571
658,1.094633,1188.815
659,1.0963,1183.152
660,1.097967,1183.45
661,1.099633,1183.45
662,1.1013,1180.619
663,1.103017,1180.023
664,1.104633,1181.662
665,1.1063,1181.662
666,1.107967,1183.152
667,1.10965,1181.886
668,1.1113,1185.462
669,1.112967,1185.462
670,1.114633,1185.76
671,1.1163,1183.748
672,1.117967,1183.748
673,1.1197,1184.791
674,1.121283,1184.791
675,1.12295,1184.791
676,1.124617,1184.791
677,1.126283,1187.101
678,1.12795,1187.921
679,1.129617,1185.238
680,1.131283,1185.238
681,1.13295,1184.121
682,1.134617,1181.886
683,1.13635,1180.843
684,1.13795,1180.843
685,1.139617,1181.364
686,1.141283,1181.513
687,1.14295,1182.854
688,1.144617,1182.854
689,1.146283,1184.419
690,1.14795,1183.525
691,1.149617,1183.525
692,1.151283,1186.505
693,1.15305,1184.717
694,1.154617,1185.611
695,1.156283,1185.611
696,1.15795,1187.399
697,1.159617,1184.419
698,1.161283,1185.611
699,1.16295,1185.611
700,1.164617,1183.003
701,1.166283,1179.65
702,1.16795,1179.427
703,1.169617,1179.427
704,1.171283,1176.074
705,1.17295,1173.839
706,1.174617,1173.839
707,1.176283,1175.478
708,1.177933,1176.67
709,1.1796,1176.596
710,1.181267,1176.596
711,1.182933,1179.278
712,1.184617,1180.097
713,1.186267,1181.811
714,1.187933,1181.811
715,1.1896,1183.078
716,1.191267,1182.854
717,1.192933,1183.003
718,1.1946,1183.003
719,1.196283,1183.301
720,1.197933,1184.642
721,1.1996,1185.089
722,1.201267,1185.089
723,1.202933,1183.823
724,1.2046,1177.862
725,1.206267,1177.862
726,1.207933,1177.564
727,1.2096,1176.447
728,1.211267,1175.851
729,1.212933,1175.851
730,1.2146,1179.948
731,1.216267,1178.607
732,1.217933,1178.309
733,1.2196,1178.309
734,1.221267,1177.49
735,1.222933,1175.031
736,1.2246,1175.478
737,1.226267,1175.478
738,1.227933,1177.639
739,1.2296,1179.725
740,1.231267,1179.725
741,1.232933,1181.96
742,1.234617,1182.184
743,1.236267,1180.246
744,1.238,1180.246
745,1.239583,1180.023
746,1.24125,1180.843
747,1.242917,1178.607
748,1.244583,1178.607
749,1.24625,1181.215
750,1.247917,1181.066
751,1.249583,1182.184
752,1.25125,1182.184
753,1.252917,1185.164
754,1.254667,1184.866
755,1.256283,1187.25
756,1.257917,1187.25
757,1.259583,1183.525
758,1.26125,1182.482
759,1.262917,1182.482
760,1.264583,1180.172
761,1.26625,1176.223
762,1.267917,1177.266
763,1.269583,1177.266
764,1.27135,1177.788
765,1.272917,1181.066
766,1.274583,1181.439
767,1.27625,1181.439
768,1.277917,1179.129
769,1.279583,1180.321
770,1.28125,1174.659
771,1.282917,1174.659
772,1.284583,1175.255
773,1.28625,1176.596
774,1.287917,1176.596
775,1.289583,1174.286
776,1.29125,1175.18
777,1.292917,1173.019
778,1.294583,1173.019
779,1.296233,1171.976
780,1.297917,1173.317
781,1.299567,1177.49
782,1.301233,1177.49
783,1.3029,1179.278
784,1.304567,1182.929
785,1.306233,1180.693
786,1.3079,1180.693
787,1.309567,1177.788
788,1.311233,1177.564
789,1.3129,1177.564
790,1.314567,1176.372
791,1.316233,1177.341
792,1.3179,1175.106
793,1.319567,1175.106
794,1.321233,1174.957
795,1.3229,1171.827
796,1.32455,1173.168
797,1.326217,1173.168
798,1.327883,1177.043
799,1.32955,1173.094
800,1.331217,1172.647
801,1.332883,1172.647
802,1.33455,1169.22
803,1.336217,1166.239
804,1.337883,1169.592
805,1.33955,1169.592
806,1.341217,1172.125
807,1.342883,1175.031
808,1.34455,1175.031
809,1.346217,1177.043
810,1.347883,1177.639
811,1.34955,1179.427
812,1.351217,1179.427
813,1.352883,1181.29
814,1.35455,1180.023
815,1.356217,1179.799
816,1.357867,1179.799
817,1.359533,1173.839
818,1.3612,1171.678
819,1.362867,1173.094
820,1.364533,1173.094
821,1.3662,1170.859
822,1.367867,1175.106
823,1.369533,1175.106
824,1.371217,1175.18
825,1.372867,1173.765
826,1.374533,1176.372
827,1.3762,1176.372
828,1.377867,1174.659
829,1.379533,1175.627
830,1.3812,1178.831
831,1.382867,1178.831
832,1.384533,1178.756
833,1.3862,1180.396
834,1.387867,1179.427
835,1.389633,1179.427
836,1.3912,1175.553
837,1.392867,1176
838,1.394533,1174.137
839,1.3962,1174.137
840,1.397867,1175.18
841,1.39955,1177.713
842,1.4012,1177.713
843,1.402867,1177.415
844,1.404533,1179.799
845,1.4062,1182.333
846,1.407867,1182.333
847,1.409533,1183.674
848,1.4112,1183.227
849,1.412867,1179.203
850,1.414533,1179.203
851,1.4162,1172.647
852,1.417867,1170.114
853,1.419517,1167.506
854,1.421183,1167.506
855,1.42285,1168.996
856,1.424517,1172.051
857,1.426183,1172.051
858,1.42785,1172.796
859,1.429517,1176.596
860,1.431183,1178.086
861,1.43285,1178.086
862,1.434517,1174.733
863,1.436183,1175.329
864,1.43785,1175.031
865,1.439517,1175.031
866,1.441183,1176.223
867,1.44285,1176.968
868,1.444517,1173.839
869,1.446183,1173.839
870,1.44785,1170.486
871,1.449517,1167.58
872,1.451183,1167.58
873,1.45285,1170.71
874,1.454517,1168.996
875,1.456183,1170.263
876,1.45785,1170.263
877,1.459517,1170.263
878,1.461183,1169.518
879,1.46285,1171.082
880,1.464517,1171.082
881,1.466183,1173.094
882,1.46785,1174.51
883,1.469517,1174.882
884,1.471217,1174.882
885,1.47285,1177.788
886,1.4746,1176.968
887,1.476183,1178.607
888,1.477833,1178.607
889,1.4795,1175.18
890,1.481167,1172.349
891,1.482833,1172.349
892,1.4845,1170.859
893,1.486167,1169.89
894,1.487833,1172.647
895,1.4895,1172.647
896,1.491167,1174.807
897,1.492833,1175.329
898,1.4945,1172.647
899,1.496167,1172.647
900,1.497833,1171.529
901,1.4995,1168.996
902,1.501167,1167.58
903,1.502833,1167.58
904,1.5045,1167.953
905,1.506167,1167.432
906,1.50795,1169.741
907,1.5095,1169.741
908,1.511167,1173.392
909,1.512833,1174.882
910,1.5145,1174.882
911,1.516167,1176
912,1.517833,1176.521
913,1.5195,1173.317
914,1.521167,1173.317
915,1.522833,1172.87
916,1.5245,1172.796
917,1.526167,1174.286
918,1.527833,1174.286
919,1.5295,1176.968
920,1.531167,1182.035
