"ID","sea_time","fid_signal"
1,0,1158.863
2,0.001667,1158.193
3,0.003333,1157.597
4,0.005,1157.597
5,0.006667,1159.087
6,0.008333,1161.024
7,0.01,1161.024
8,0.011783,1160.949
9,0.013333,1161.247
10,0.015,1161.173
11,0.016667,1161.173
12,0.018333,1162.365
13,0.02,1162.663
14,0.021667,1163.11
15,0.023333,1163.11
16,0.025,1162.589
17,0.026667,1162.291
18,0.028333,1165.122
19,0.03,1165.122
20,0.031667,1166.91
21,0.033333,1170.933
22,0.035,1173.69
23,0.036667,1173.69
24,0.038333,1169.518
25,0.04,1165.867
26,0.041667,1165.867
27,0.043317,1164.749
28,0.044983,1161.844
29,0.04665,1162.812
30,0.048317,1162.812
31,0.049983,1165.494
32,0.051683,1163.408
33,0.053317,1167.729
34,0.054983,1167.729
35,0.05665,1170.039
36,0.058317,1169.518
37,0.059983,1167.58
38,0.06165,1167.58
39,0.063317,1163.036
40,0.064983,1162.291
41,0.06665,1162.291
42,0.068317,1162.663
43,0.069983,1166.09
44,0.07165000000000001,1166.612
45,0.07331699999999999,1166.612
46,0.07498299999999999,1167.133
47,0.07665,1167.059
48,0.078317,1166.165
49,0.079983,1166.165
50,0.08165,1164.451
51,0.083317,1159.757
52,0.084983,1156.777
53,0.08665,1156.777
54,0.08831700000000001,1159.012
55,0.08998299999999999,1161.62
56,0.09165,1164.079
57,0.093317,1164.079
58,0.094967,1165.494
59,0.09661699999999999,1164.377
60,0.0983,1164.377
61,0.099967,1163.632
62,0.101617,1166.388
63,0.103283,1169.518
64,0.10495,1169.518
65,0.106617,1168.177
66,0.108283,1168.177
67,0.10995,1167.506
68,0.111617,1167.506
69,0.1133,1165.718
70,0.11495,1165.42
71,0.116617,1164.004
72,0.118283,1164.004
73,0.11995,1161.993
74,0.121617,1159.757
75,0.123283,1159.757
76,0.12495,1157.15
77,0.126617,1160.13
78,0.128283,1159.832
79,0.13005,1159.832
80,0.131617,1164.973
81,0.133283,1167.953
82,0.13495,1165.792
83,0.136617,1165.792
84,0.138283,1166.761
85,0.13995,1164.749
86,0.141617,1164.004
87,0.143283,1164.004
88,0.14495,1164.824
89,0.146617,1165.941
90,0.148283,1165.941
91,0.14995,1167.357
92,0.151617,1171.082
93,0.153283,1174.063
94,0.15495,1174.063
95,0.156617,1176.372
96,0.158283,1175.18
97,0.15995,1175.106
98,0.1616,1175.106
99,0.163267,1170.486
100,0.164933,1169.145
101,0.1666,1168.922
102,0.168267,1168.922
103,0.169933,1166.91
104,0.1716,1167.953
105,0.173267,1165.122
106,0.174933,1165.122
107,0.1766,1163.93
108,0.178267,1162.291
109,0.179933,1162.291
110,0.1816,1163.11
111,0.183267,1162.738
112,0.184933,1162.663
113,0.1866,1162.663
114,0.188267,1162.663
115,0.189933,1161.844
116,0.1916,1160.726
117,0.193267,1160.726
118,0.194933,1161.471
119,0.1966,1161.62
120,0.198267,1162.663
121,0.199933,1162.663
122,0.2016,1166.239
123,0.203267,1167.133
124,0.204933,1167.133
125,0.2066,1169.667
126,0.208267,1172.423
127,0.209933,1170.486
128,0.2116,1170.486
129,0.213267,1168.177
130,0.215,1166.463
131,0.2166,1162.067
132,0.218267,1162.067
133,0.219933,1162.738
134,0.221583,1162.142
135,0.22325,1162.589
136,0.224917,1162.589
137,0.226583,1164.004
138,0.22825,1163.557
139,0.229917,1164.675
140,0.231583,1164.675
141,0.23325,1165.271
142,0.234917,1165.271
143,0.236583,1165.271
144,0.23825,1166.686
145,0.239917,1169.89
146,0.241583,1169.816
147,0.24325,1169.816
148,0.244917,1172.796
149,0.246583,1169.89
150,0.248367,1166.761
151,0.249917,1166.761
152,0.251583,1165.792
153,0.25325,1161.62
154,0.254917,1164.153
155,0.256583,1164.153
156,0.25825,1165.122
157,0.259917,1167.133
158,0.261583,1167.133
159,0.26325,1169.145
160,0.264917,1167.804
161,0.26665,1167.133
162,0.26825,1167.133
163,0.269917,1165.792
164,0.271583,1165.569
165,0.27325,1168.549
166,0.274917,1168.549
167,0.276583,1166.388
168,0.27825,1166.463
169,0.279917,1168.996
170,0.281567,1168.996
171,0.283233,1165.047
172,0.2849,1166.09
173,0.286567,1166.239
174,0.288233,1166.239
175,0.2899,1163.036
176,0.291567,1163.855
177,0.293233,1163.855
178,0.2949,1165.271
179,0.296567,1165.941
180,0.298233,1166.537
181,0.2999,1166.537
182,0.301567,1168.4
183,0.303233,1168.549
184,0.3049,1171.678
185,0.306567,1171.678
186,0.308233,1175.925
187,0.309917,1178.682
188,0.311567,1185.313
189,0.313233,1185.313
190,0.3149,1190.379
191,0.316567,1198.649
192,0.318233,1198.649
193,0.3199,1209.08
194,0.321567,1221.15
195,0.323233,1233.071
196,0.3249,1233.071
197,0.326567,1244.172
198,0.328233,1254.082
199,0.3299,1264.289
200,0.331567,1264.289
201,0.3333,1275.39
202,0.3349,1286.939
203,0.336567,1303.479
204,0.338233,1303.479
205,0.339917,1315.325
206,0.34155,1326.874
207,0.343217,1326.874
208,0.344883,1337.007
209,0.34655,1348.928
210,0.348217,1363.233
211,0.350017,1363.233
212,0.35155,1377.016
213,0.353217,1390.129
214,0.354883,1401.901
215,0.35655,1401.901
216,0.358217,1414.642
217,0.359883,1432.449
218,0.36155,1453.087
219,0.363217,1453.087
220,0.364883,1475.588
221,0.366667,1498.014
222,0.368217,1518.056
223,0.369883,1518.056
224,0.37155,1541.004
225,0.373217,1560.152
226,0.374883,1560.152
227,0.37655,1585.484
228,0.378217,1610.816
229,0.379883,1638.532
230,0.38155,1638.532
231,0.383217,1668.334
232,0.384883,1698.956
233,0.386533,1734.868
234,0.3882,1734.868
235,0.389867,1767.203
236,0.391533,1803.711
237,0.3932,1842.827
238,0.394867,1842.827
239,0.396533,1885.891
240,0.3982,1940.727
241,0.39985,1940.727
242,0.401517,2006.292
243,0.403183,2082.437
244,0.404883,2173.632
245,0.406517,2173.632
246,0.408183,2284.05
247,0.40985,2419.353
248,0.411517,2585.799
249,0.413183,2585.799
250,0.41485,2786.443
251,0.416517,3026.351
252,0.418183,3307.611
253,0.41985,3307.611
254,0.421517,3636.032
255,0.423183,4012.361
256,0.42485,4436.746
257,0.426517,4436.746
258,0.428183,4911.274
259,0.429867,5431.697
260,0.431517,5431.697
261,0.433183,5994.514
262,0.43485,6593.913
263,0.436517,7227.436
264,0.438183,7227.436
265,0.43985,7884.949
266,0.441517,8566.23
267,0.443183,9262.338
268,0.44485,9262.338
269,0.446517,9961.425999999999
270,0.448183,10660.961
271,0.44985,11354.982
272,0.45155,11354.982
273,0.453183,12036.189
274,0.45485,12691.841
275,0.456517,12691.841
276,0.458183,13317.242
277,0.45985,13897.195
278,0.4615,14424.696
279,0.463167,14424.696
280,0.464833,14888.868
281,0.4665,15275.851
282,0.46825,15577.152
283,0.469833,15577.152
284,0.4715,15776.157
285,0.473167,15868.917
286,0.474833,15841.573
287,0.4765,15841.573
288,0.478167,15687.271
289,0.479833,15407.577
290,0.4815,15003.756
291,0.483167,15003.756
292,0.484917,14487.281
293,0.4865,13871.938
294,0.488167,13871.938
295,0.489833,13184.026
296,0.4915,12444.854
297,0.493167,11677.295
298,0.494833,11677.295
299,0.4965,10905.266
300,0.498167,10143.519
301,0.499833,9412.541999999999
302,0.5016,9412.541999999999
303,0.503167,8717.402
304,0.504833,8069.649
305,0.5065,7472.485
306,0.508167,7472.485
307,0.509833,6928.965
308,0.5115,6443.262
309,0.513167,6443.262
310,0.514833,6005.615
311,0.5165,5614.162
312,0.5181829999999999,5255.64
313,0.519833,5255.64
314,0.521483,4934.371
315,0.52315,4645.064
316,0.524817,4381.612
317,0.526483,4381.612
318,0.52815,4147.962
319,0.529817,3932.565
320,0.531483,3741.607
321,0.53315,3741.607
322,0.534817,3569.722
323,0.536483,3411.323
324,0.53815,3411.323
325,0.539817,3269.911
326,0.541483,3136.844
327,0.54315,3018.007
328,0.5448499999999999,3018.007
329,0.5464830000000001,2912.432
330,0.54815,2813.339
331,0.549817,2721.101
332,0.5514829999999999,2721.101
333,0.55315,2635.717
334,0.554817,2556.22
335,0.5564829999999999,2484.024
336,0.55815,2484.024
337,0.559817,2418.682
338,0.561483,2357.736
339,0.56315,2298.504
340,0.564817,2298.504
341,0.566483,2242.997
342,0.56815,2190.024
343,0.569817,2190.024
344,0.571483,2139.434
345,0.57315,2091.08
346,0.574817,2047.494
347,0.576483,2047.494
348,0.5781500000000001,2010.39
349,0.579817,1973.286
350,0.581467,1940.504
351,0.583133,1940.504
352,0.5848,1903.102
353,0.586533,1870.692
354,0.588133,1839.548
355,0.5898,1839.548
356,0.591467,1814.663
357,0.593133,1794.621
358,0.5948,1794.621
359,0.596467,1771.301
360,0.598133,1749.322
361,0.5998,1727.045
362,0.601467,1727.045
363,0.603233,1706.481
364,0.6048,1686.588
365,0.606467,1670.867
366,0.608133,1670.867
367,0.6098,1650.974
368,0.611467,1634.285
369,0.613133,1617.67
370,0.6148,1617.67
371,0.616467,1603.141
372,0.618133,1586.75
373,0.6199,1569.763
374,0.621467,1569.763
375,0.623133,1555.011
376,0.624817,1539.886
377,0.626467,1539.886
378,0.6281330000000001,1528.189
379,0.6298,1517.087
380,0.631467,1507.923
381,0.6331329999999999,1507.923
382,0.6348,1496.151
383,0.636467,1487.21
384,0.638133,1477.674
385,0.6398,1477.674
386,0.64145,1466.498
387,0.643117,1456.589
388,0.644783,1445.711
389,0.64645,1445.711
390,0.6481170000000001,1433.864
391,0.649783,1424.625
392,0.65145,1424.625
393,0.6531169999999999,1417.845
394,0.654783,1412.928
395,0.65645,1408.532
396,0.658117,1408.532
397,0.659783,1401.752
398,0.66145,1392.141
399,0.663117,1386.553
400,0.664783,1386.553
401,0.66645,1380.891
402,0.668117,1376.42
403,0.669783,1374.111
404,0.67145,1374.111
405,0.673117,1365.84
406,0.674783,1358.762
407,0.67645,1353.249
408,0.6781,1353.249
409,0.6798,1348.704
410,0.681433,1343.191
411,0.6831,1343.191
412,0.684767,1338.422
413,0.686433,1330.525
414,0.688117,1322.851
415,0.689767,1322.851
416,0.691433,1318.529
417,0.6931,1313.612
418,0.694767,1311.377
419,0.696433,1311.377
420,0.6981000000000001,1307.726
421,0.699767,1304.746
422,0.701417,1303.703
423,0.703083,1303.703
424,0.7048,1302.287
425,0.706417,1299.307
426,0.708083,1299.307
427,0.70975,1295.954
428,0.711417,1292.005
429,0.713083,1288.28
430,0.71475,1288.28
431,0.716417,1287.982
432,0.718083,1285.821
433,0.71975,1283.363
434,0.72145,1283.363
435,0.723083,1277.998
436,0.72475,1275.241
437,0.726417,1273.23
438,0.728083,1273.23
439,0.72975,1269.579
440,0.731417,1268.312
441,0.733083,1268.312
442,0.73475,1264.885
443,0.736417,1260.787
444,0.738183,1258.478
445,0.73975,1258.478
446,0.741417,1255.572
447,0.743083,1253.709
448,0.74475,1251.623
449,0.746417,1251.623
450,0.7480830000000001,1252.964
451,0.74975,1253.113
452,0.751417,1251.623
453,0.7530829999999999,1251.623
454,0.75475,1252.07
455,0.756417,1246.855
456,0.758083,1241.341
457,0.75975,1241.341
458,0.7614,1238.212
459,0.7630670000000001,1235.53
460,0.764733,1235.53
461,0.76645,1235.232
462,0.768117,1238.659
463,0.769733,1238.659
464,0.7714,1238.659
465,0.7730669999999999,1239.031
466,0.774733,1237.989
467,0.7764,1232.251
468,0.778067,1232.251
469,0.779733,1231.357
470,0.7814,1230.463
471,0.783067,1228.601
472,0.784733,1228.601
473,0.7864,1232.55
474,0.788067,1228.601
475,0.789733,1228.601
476,0.7914,1224.652
477,0.793067,1221.597
478,0.794733,1219.362
479,0.7964,1219.362
480,0.798067,1219.287
481,0.799733,1218.766
482,0.8014,1219.511
483,0.803067,1219.511
484,0.804733,1219.66
485,0.8064170000000001,1220.48
486,0.808067,1220.405
487,0.809733,1220.405
488,0.8114,1218.617
489,0.813067,1212.06
490,0.814733,1207.888
491,0.8164,1207.888
492,0.818067,1205.951
493,0.819733,1204.461
494,0.821383,1204.461
495,0.8231000000000001,1205.504
496,0.824717,1205.131
497,0.826383,1205.504
498,0.82805,1205.504
499,0.829717,1206.622
500,0.831383,1204.163
501,0.83305,1203.939
502,0.834717,1203.939
503,0.836383,1202.673
504,0.838067,1204.833
505,0.839717,1207.516
506,0.841383,1207.516
507,0.84305,1209.9
508,0.8447170000000001,1209.453
509,0.846383,1209.453
510,0.84805,1205.653
511,0.8497169999999999,1207.441
512,0.851383,1202.896
513,0.85305,1202.896
514,0.8547169999999999,1201.257
515,0.8565,1202.226
516,0.85805,1196.861
517,0.859717,1196.861
518,0.861383,1197.83
519,0.86305,1198.128
520,0.864717,1196.191
521,0.866383,1196.191
522,0.86805,1197.532
523,0.869717,1195.52
524,0.871383,1196.489
525,0.87305,1196.489
526,0.874717,1194.552
527,0.876383,1196.414
528,0.87805,1196.414
529,0.8797,1197.085
530,0.881367,1194.924
531,0.883033,1195.222
532,0.8847,1195.222
533,0.886367,1193.509
534,0.88805,1193.881
535,0.8897,1193.732
536,0.891367,1193.732
537,0.893033,1196.861
538,0.8947000000000001,1194.104
539,0.896367,1192.614
540,0.898033,1192.614
541,0.8997000000000001,1192.316
542,0.901367,1186.654
543,0.903033,1186.654
544,0.9046999999999999,1185.238
545,0.906367,1184.717
546,0.908033,1183.823
547,0.9097,1183.823
548,0.911367,1190.007
549,0.913033,1192.987
550,0.9147,1192.987
551,0.916367,1192.987
552,0.918033,1191.497
553,0.9197,1186.579
554,0.921367,1187.399
555,0.923033,1187.399
556,0.9247,1186.207
557,0.9263670000000001,1188.07
558,0.928033,1187.772
559,0.9297,1187.772
560,0.9313669999999999,1184.866
561,0.933033,1184.642
562,0.9347,1184.642
563,0.9363669999999999,1186.43
564,0.938033,1185.685
565,0.939683,1184.27
566,0.9414169999999999,1184.27
567,0.943017,1184.642
568,0.9446830000000001,1181.513
569,0.94635,1181.886
570,0.948017,1181.886
571,0.9496830000000001,1181.886
572,0.95135,1181.066
573,0.953017,1181.96
574,0.9546829999999999,1181.96
575,0.95635,1183.227
576,0.958017,1184.568
577,0.959683,1184.568
578,0.96135,1185.238
579,0.963017,1183.897
580,0.964683,1182.929
581,0.96635,1182.929
582,0.968,1182.854
583,0.9696669999999999,1182.407
584,0.971333,1184.27
585,0.973,1184.27
586,0.974783,1183.227
587,0.976333,1182.407
588,0.978,1182.929
589,0.979667,1182.929
590,0.981333,1181.588
591,0.983,1181.886
592,0.984683,1181.886
593,0.986333,1182.631
594,0.988,1182.035
595,0.989667,1180.917
596,0.991333,1180.917
597,0.993,1181.215
598,0.994667,1183.748
599,0.996333,1183.823
600,0.998,1183.823
601,0.999667,1183.525
602,1.001317,1182.631
603,1.002983,1177.639
604,1.00465,1177.639
605,1.006317,1173.466
606,1.007983,1171.157
607,1.00965,1171.306
608,1.011317,1171.306
609,1.012983,1172.945
610,1.01465,1176.074
611,1.016317,1176.074
612,1.017983,1179.948
613,1.01965,1181.588
614,1.021317,1181.737
615,1.022983,1181.737
616,1.02465,1182.929
617,1.026317,1179.725
618,1.027983,1178.086
619,1.02965,1178.086
620,1.031317,1177.639
621,1.032983,1177.415
622,1.03465,1182.109
623,1.036317,1182.109
624,1.037983,1181.96
625,1.03965,1181.737
626,1.041317,1181.737
627,1.042983,1178.533
628,1.04465,1173.839
629,1.046317,1173.541
630,1.047983,1173.541
631,1.04965,1170.561
632,1.051317,1170.71
633,1.052983,1168.922
634,1.05465,1168.922
635,1.056317,1168.4
636,1.057983,1170.263
637,1.0597,1172.572
638,1.0613,1172.572
639,1.062983,1175.404
640,1.064633,1175.031
641,1.0663,1177.862
642,1.067967,1177.862
643,1.069633,1177.788
644,1.0713,1177.639
645,1.072967,1177.639
646,1.074633,1176.894
647,1.0763,1174.36
648,1.077967,1174.51
649,1.079633,1174.51
650,1.0813,1174.882
651,1.082967,1176.372
652,1.084633,1177.49
653,1.0863,1177.49
654,1.087967,1177.117
655,1.089633,1176.819
656,1.0913,1175.478
657,1.09305,1175.478
658,1.094633,1173.317
659,1.0963,1173.168
660,1.097967,1173.168
661,1.099633,1173.466
662,1.1013,1172.274
663,1.102967,1172.87
664,1.104633,1172.87
665,1.1063,1170.039
666,1.107967,1168.773
667,1.109633,1170.039
668,1.1113,1170.039
669,1.112967,1168.847
670,1.114633,1170.412
671,1.1163,1171.827
672,1.117967,1171.827
673,1.119617,1172.647
674,1.121283,1175.404
675,1.12295,1175.404
676,1.12465,1173.988
677,1.126283,1173.019
678,1.12795,1173.988
679,1.129617,1173.988
680,1.131283,1175.255
681,1.13295,1176.968
682,1.134617,1175.925
683,1.136283,1175.925
684,1.13795,1176.596
685,1.139617,1173.317
686,1.141283,1172.647
687,1.14295,1172.647
688,1.144617,1172.721
689,1.146283,1172.796
690,1.14795,1173.988
691,1.149617,1173.988
692,1.151283,1177.266
693,1.15295,1180.545
694,1.154617,1180.545
695,1.156283,1178.905
696,1.15795,1177.043
697,1.159617,1175.031
698,1.161283,1175.031
699,1.16295,1173.243
700,1.164617,1172.87
701,1.166283,1175.18
702,1.16795,1175.18
703,1.169617,1175.404
704,1.171283,1172.87
705,1.17295,1173.317
706,1.174617,1173.317
707,1.176283,1169.443
708,1.178033,1170.188
709,1.1796,1170.188
710,1.181267,1171.529
711,1.182933,1171.38
712,1.1846,1172.274
713,1.186267,1172.274
714,1.187933,1170.933
715,1.1896,1169.22
716,1.191267,1169.741
717,1.192967,1169.741
718,1.1946,1169.816
719,1.196267,1167.357
720,1.197933,1167.58
721,1.1996,1167.58
722,1.201267,1164.526
723,1.202933,1164.6
724,1.2046,1166.239
725,1.206267,1166.239
726,1.207933,1166.686
727,1.2096,1169.22
728,1.211367,1169.22
729,1.212933,1169.22
730,1.2146,1171.231
731,1.216267,1174.36
732,1.217933,1174.36
733,1.2196,1175.553
734,1.221267,1176.745
735,1.222933,1177.415
736,1.2246,1177.415
737,1.226267,1175.106
738,1.227933,1174.435
739,1.2296,1176.223
740,1.231267,1176.223
741,1.232933,1172.349
742,1.2346,1173.913
743,1.236267,1173.913
744,1.237933,1174.212
745,1.2396,1171.231
746,1.24125,1171.38
747,1.242917,1171.38
748,1.244583,1168.698
749,1.24625,1168.996
750,1.247917,1170.784
751,1.249583,1170.784
752,1.25125,1172.274
753,1.252917,1172.423
754,1.254583,1172.349
755,1.25625,1172.349
756,1.257917,1171.827
757,1.259583,1172.721
758,1.261317,1172.349
759,1.2629,1172.349
760,1.264567,1172.051
761,1.266233,1170.412
762,1.2679,1170.412
763,1.269567,1167.804
764,1.271233,1168.549
765,1.2729,1165.867
766,1.274567,1165.867
767,1.276233,1165.122
768,1.2779,1167.282
769,1.279567,1167.879
770,1.281233,1167.879
771,1.2829,1167.58
772,1.284567,1169.071
773,1.286233,1169.369
774,1.2879,1169.369
775,1.289567,1169.816
776,1.29125,1172.498
777,1.2929,1172.498
778,1.294567,1174.212
779,1.296267,1174.212
780,1.2979,1175.553
781,1.299567,1175.553
782,1.301217,1176.67
783,1.302883,1176.67
784,1.30455,1175.255
785,1.306217,1175.255
786,1.307883,1176.074
787,1.30955,1173.541
788,1.311217,1171.976
789,1.312883,1171.976
790,1.31455,1173.243
791,1.316217,1167.879
792,1.317883,1167.879
793,1.31955,1169.369
794,1.321217,1171.38
795,1.322883,1172.572
796,1.32455,1172.572
797,1.326217,1176.894
798,1.327883,1173.765
799,1.3296,1170.337
800,1.331217,1170.337
801,1.3329,1168.698
802,1.334567,1168.847
803,1.336217,1171.38
804,1.337883,1171.38
805,1.33955,1172.572
806,1.341217,1171.082
807,1.342883,1170.263
808,1.34455,1170.263
809,1.346317,1169.22
810,1.347883,1172.125
811,1.34955,1172.125
812,1.351217,1173.913
813,1.352883,1174.435
814,1.35455,1175.031
815,1.356217,1175.031
816,1.357883,1174.286
817,1.35955,1176
818,1.3612,1173.615
819,1.362867,1173.615
820,1.364533,1171.827
821,1.3662,1170.859
822,1.367867,1167.804
823,1.369533,1167.804
824,1.3712,1169.518
825,1.372867,1169.369
826,1.374533,1169.369
827,1.3762,1167.506
828,1.377867,1167.58
829,1.379533,1165.792
830,1.3812,1165.792
831,1.382867,1166.835
832,1.384533,1169.294
833,1.3862,1170.561
834,1.387867,1170.561
835,1.389533,1172.87
836,1.3912,1175.627
837,1.392867,1175.925
838,1.394533,1175.925
839,1.3962,1175.702
840,1.397867,1173.541
841,1.399533,1169.89
842,1.4012,1169.89
843,1.402867,1168.027
844,1.404533,1168.698
845,1.406217,1168.698
846,1.407933,1168.773
847,1.409533,1167.357
848,1.4112,1168.177
849,1.412867,1168.177
850,1.414533,1168.624
851,1.4162,1169.22
852,1.417867,1170.635
853,1.419517,1170.635
854,1.421183,1167.953
855,1.42285,1165.792
856,1.424517,1166.91
857,1.426183,1166.91
858,1.42785,1167.729
859,1.429517,1170.412
860,1.431267,1169.518
861,1.43285,1169.518
862,1.434517,1166.463
863,1.436183,1168.624
864,1.43785,1168.624
865,1.439517,1170.114
866,1.441183,1169.592
867,1.44285,1169.741
868,1.444517,1169.741
869,1.446183,1166.835
870,1.447917,1166.165
871,1.449517,1168.475
872,1.451183,1168.475
873,1.45285,1171.082
874,1.454517,1173.094
875,1.456183,1170.784
876,1.45785,1170.784
877,1.459517,1169.89
878,1.461183,1168.4
879,1.46285,1168.4
880,1.464583,1166.984
881,1.466183,1167.059
882,1.46785,1166.314
883,1.469517,1166.314
884,1.471183,1165.718
885,1.47285,1164.898
886,1.474517,1164.377
887,1.476183,1164.377
888,1.47785,1163.855
889,1.479517,1162.887
890,1.481167,1163.11
891,1.482833,1163.11
892,1.484533,1164.004
893,1.486217,1164.973
894,1.487833,1164.973
895,1.4895,1168.549
896,1.491167,1168.027
897,1.492833,1168.922
898,1.4945,1168.922
899,1.496167,1169.518
900,1.497833,1169.741
901,1.4995,1173.019
902,1.501167,1173.019
903,1.502833,1172.051
904,1.5045,1171.082
905,1.506167,1169.89
906,1.507833,1169.89
907,1.5095,1168.698
908,1.511167,1168.475
909,1.512833,1168.475
910,1.5145,1168.475
911,1.516167,1167.282
912,1.517833,1167.506
913,1.519517,1167.506
914,1.521167,1166.537
915,1.522833,1166.686
916,1.5245,1167.655
917,1.526167,1167.655
918,1.527833,1167.282
919,1.5295,1168.251
