"ID","sea_time","fid_signal"
1,0,1324.117
2,0.001667,1323.968
3,0.003417,1323.968
4,0.004983,1324.266
5,0.00665,1320.615
6,0.008317,1320.615
7,0.009983000000000001,1311.675
8,0.01165,1293.793
9,0.013317,1277.998
10,0.014983,1277.998
11,0.01665,1272.038
12,0.018317,1276.955
13,0.0201,1285.672
14,0.02165,1285.672
15,0.023317,1296.923
16,0.024983,1303.256
17,0.02665,1305.342
18,0.028317,1305.342
19,0.029983,1310.632
20,0.03165,1309.961
21,0.033333,1309.961
22,0.034983,1312.494
23,0.03665,1313.463
24,0.038317,1311.228
25,0.039983,1311.228
26,0.04165,1313.016
27,0.043317,1311.004
28,0.044983,1312.42
29,0.04665,1312.42
30,0.048317,1313.835
31,0.049983,1314.953
32,0.05165,1318.753
33,0.053317,1318.753
34,0.054983,1316.592
35,0.05665,1317.263
36,0.058317,1317.263
37,0.059983,1315.698
38,0.06165,1310.11
39,0.063317,1309.216
40,0.064967,1309.216
41,0.066633,1312.196
42,0.0683,1312.494
43,0.069967,1315.847
44,0.071633,1315.847
45,0.0733,1316.518
46,0.07496700000000001,1318.082
47,0.07663300000000001,1320.764
48,0.07829999999999999,1320.764
49,0.079967,1322.18
50,0.081633,1326.501
51,0.083317,1326.874
52,0.084967,1326.874
53,0.086633,1325.607
54,0.0883,1324.043
55,0.08996700000000001,1324.043
56,0.09163300000000001,1323
57,0.09329999999999999,1324.266
58,0.094967,1325.682
59,0.096633,1325.682
60,0.0983,1328.513
61,0.099967,1326.874
62,0.101633,1321.957
63,0.1033,1321.957
64,0.105033,1322.553
65,0.106633,1318.231
66,0.1083,1317.933
67,0.109967,1317.933
68,0.111633,1318.082
69,0.1133,1315.027
70,0.114967,1315.027
71,0.116633,1317.486
72,0.1183,1317.784
73,0.119967,1317.337
74,0.12165,1317.337
75,0.123283,1317.114
76,0.12495,1314.506
77,0.126617,1316.294
78,0.128283,1316.294
79,0.12995,1317.486
80,0.131617,1322.702
81,0.133283,1323.968
82,0.13495,1323.968
83,0.136617,1322.031
84,0.1384,1323.074
85,0.13995,1319.2
86,0.141617,1319.2
87,0.143283,1318.678
88,0.14495,1322.329
89,0.146617,1322.329
90,0.148283,1323.745
91,0.14995,1325.235
92,0.151617,1325.458
93,0.153283,1325.458
94,0.15495,1320.69
95,0.156617,1315.624
96,0.158283,1315.996
97,0.15995,1315.996
98,0.161617,1313.761
99,0.163283,1314.878
100,0.16495,1318.38
101,0.166617,1318.38
102,0.168283,1315.922
103,0.16995,1315.325
104,0.171617,1315.325
105,0.173283,1315.177
106,0.17495,1313.686
107,0.176617,1314.208
108,0.178283,1314.208
109,0.17995,1317.635
110,0.181617,1320.243
111,0.183283,1320.317
112,0.184933,1320.317
113,0.1866,1324.266
114,0.188267,1321.658
115,0.189933,1320.168
116,0.1916,1320.168
117,0.193267,1317.486
118,0.194933,1317.859
119,0.1966,1320.541
120,0.198267,1320.541
121,0.199933,1320.243
122,0.2016,1322.031
123,0.203267,1322.031
124,0.204933,1315.4
125,0.2066,1313.239
126,0.208267,1312.122
127,0.209933,1312.122
128,0.2116,1312.122
129,0.213267,1312.196
130,0.214933,1317.71
131,0.216617,1317.71
132,0.218267,1321.882
133,0.219933,1324.266
134,0.2216,1325.533
135,0.223267,1325.533
136,0.224933,1322.851
137,0.2266,1317.188
138,0.228267,1317.188
139,0.229933,1313.016
140,0.2316,1313.09
141,0.233267,1313.686
142,0.234933,1313.686
143,0.2366,1317.71
144,0.238267,1318.38
145,0.239967,1319.051
146,0.2416,1319.051
147,0.243267,1316.816
148,0.244917,1317.039
149,0.246583,1316.965
150,0.24825,1316.965
151,0.249917,1314.655
152,0.251567,1313.761
153,0.253233,1313.761
154,0.2549,1310.706
155,0.256667,1311.079
156,0.258233,1311.898
157,0.2599,1311.898
158,0.261567,1312.569
159,0.263233,1311.451
160,0.2649,1312.345
161,0.266567,1312.345
162,0.268233,1313.686
163,0.2699,1319.349
164,0.271567,1321.435
165,0.273233,1321.435
166,0.2749,1324.117
167,0.276567,1325.011
168,0.278233,1318.455
169,0.2799,1318.455
170,0.281567,1318.976
171,0.283233,1315.773
172,0.2849,1315.773
173,0.286567,1314.357
174,0.288233,1315.698
175,0.2899,1316.22
176,0.291567,1316.22
177,0.293233,1315.698
178,0.2949,1315.922
179,0.296567,1312.643
180,0.298233,1312.643
181,0.2999,1307.13
182,0.301567,1308.62
183,0.303233,1310.11
184,0.304883,1310.11
185,0.30655,1313.761
186,0.308217,1317.263
187,0.309883,1317.263
188,0.31155,1315.847
189,0.313217,1315.549
190,0.314883,1314.953
191,0.31655,1314.953
192,0.318217,1315.4
193,0.319883,1313.612
194,0.32155,1312.196
195,0.323217,1312.196
196,0.324883,1311.749
197,0.32655,1309.141
198,0.328217,1310.855
199,0.329883,1310.855
200,0.33155,1312.047
201,0.333217,1313.314
202,0.334883,1316.443
203,0.33655,1316.443
204,0.338217,1320.317
205,0.339883,1319.796
206,0.341617,1319.796
207,0.343217,1321.733
208,0.344883,1323.745
209,0.34655,1324.49
210,0.348217,1324.49
211,0.349883,1327.917
212,0.35155,1324.117
213,0.353217,1321.286
214,0.354883,1321.286
215,0.35655,1319.647
216,0.358217,1316.965
217,0.359883,1321.36
218,0.36155,1321.36
219,0.363217,1323.447
220,0.364867,1325.16
221,0.366533,1325.16
222,0.3682,1329.482
223,0.369867,1334.548
224,0.371533,1344.681
225,0.3732,1344.681
226,0.374983,1350.269
227,0.376533,1358.017
228,0.3782,1364.946
229,0.379867,1364.946
230,0.381533,1370.311
231,0.3832,1381.487
232,0.384867,1391.023
233,0.386533,1391.023
234,0.3882,1400.784
235,0.389867,1413.45
236,0.39155,1426.861
237,0.3932,1426.861
238,0.3949,1440.048
239,0.396533,1456.365
240,0.3982,1456.365
241,0.399867,1472.235
242,0.401533,1484.603
243,0.4032,1498.759
244,0.404867,1498.759
245,0.406533,1515.523
246,0.4082,1525.879
247,0.409867,1543.909
248,0.411533,1543.909
249,0.4132,1562.238
250,0.414867,1575.947
251,0.416533,1595.989
252,0.4182,1595.989
253,0.419867,1616.478
254,0.421533,1630.932
255,0.4232,1630.932
256,0.42485,1648.963
257,0.426517,1663.119
258,0.428183,1670.867
259,0.42985,1670.867
260,0.431517,1679.957
261,0.433183,1686.96
262,0.43485,1696.944
263,0.436517,1696.944
264,0.438183,1704.469
265,0.43985,1714.453
266,0.441517,1717.508
267,0.443183,1717.508
268,0.44485,1714.602
269,0.446517,1715.496
270,0.448183,1715.496
271,0.44985,1712.963
272,0.451517,1712.143
273,0.453183,1711.473
274,0.45485,1711.473
275,0.456517,1707.897
276,0.458183,1703.873
277,0.4599,1692.846
278,0.461517,1692.846
279,0.463183,1685.172
280,0.46485,1673.698
281,0.466517,1659.915
282,0.468183,1659.915
283,0.46985,1650.974
284,0.471517,1639.053
285,0.473183,1627.728
286,0.47485,1627.728
287,0.476517,1615.509
288,0.478183,1604.483
289,0.47985,1604.483
290,0.481517,1595.467
291,0.483167,1586.452
292,0.484833,1581.907
293,0.4865,1581.907
294,0.488167,1579.97
295,0.489833,1577.884
296,0.4915,1572.669
297,0.493267,1572.669
298,0.494833,1569.241
299,0.4965,1563.504
300,0.498167,1556.352
301,0.499833,1556.352
302,0.5014999999999999,1556.799
303,0.503167,1557.842
304,0.504833,1557.842
305,0.5065,1562.014
306,0.508167,1573.116
307,0.509833,1589.656
308,0.5115,1589.656
309,0.513167,1612.455
310,0.514833,1647.77
311,0.5165,1689.494
312,0.518167,1689.494
313,0.519833,1741.722
314,0.5215,1812.354
315,0.523167,1902.655
316,0.524833,1902.655
317,0.5265,2015.531
318,0.5281670000000001,2156.496
319,0.529833,2331.585
320,0.5315,2331.585
321,0.5331669999999999,2540.946
322,0.53485,2793.893
323,0.5365,2793.893
324,0.538167,3097.43
325,0.539833,3449.619
326,0.5415,3855.75
327,0.543133,3855.75
328,0.5448,4323.795
329,0.546467,4849.359
330,0.548133,5437.285
331,0.549817,5437.285
332,0.551467,6089.807
333,0.553133,6808.191
334,0.5548,7589.459
335,0.556467,7589.459
336,0.558133,8431.226000000001
337,0.5598,9334.013000000001
338,0.561467,9334.013000000001
339,0.563133,10293.2
340,0.5648,11312.142
341,0.566483,12385.845
342,0.568133,12385.845
343,0.5698,13508.424
344,0.5714669999999999,14677.271
345,0.573133,15888.661
346,0.5748,15888.661
347,0.576467,17142.668
348,0.578133,18435.047
349,0.5798,19765.645
350,0.581467,19765.645
351,0.583133,21129.549
352,0.5848,22521.838
353,0.586467,23941.994
354,0.588133,23941.994
355,0.5898,25384.203
356,0.591467,26845.559
357,0.593133,26845.559
358,0.5948,28323.754
359,0.596467,29817.744
360,0.598133,31324.699
361,0.5998,31324.699
362,0.60145,32842.234
363,0.603117,34367.664
364,0.604817,35898.609
365,0.60645,35898.609
366,0.608117,37429.184
367,0.609783,38957.598
368,0.61155,40484.293
369,0.613117,40484.293
370,0.614783,42003.617
371,0.6164500000000001,43515.859
372,0.618117,43515.859
373,0.619783,45022.742
374,0.6214499999999999,46516.508
375,0.623117,47996.418
376,0.624783,47996.418
377,0.62645,49464.777
378,0.628117,50923.824
379,0.629783,52369.461
380,0.63145,52369.461
381,0.633117,53795.801
382,0.634783,55210.887
383,0.63645,56605.637
384,0.638117,56605.637
385,0.639783,57987.867
386,0.641467,59362.277
387,0.643117,59362.277
388,0.644783,60717.836
389,0.64645,62055.664
390,0.6481170000000001,63377.246
391,0.649783,63377.246
392,0.65145,64684.973
393,0.6531169999999999,65975.789
394,0.654783,67246.258
395,0.65645,67246.258
396,0.658117,68499.891
397,0.659783,69732.29700000001
398,0.66145,70941.148
399,0.6631,70941.148
400,0.664767,72133.539
401,0.6664330000000001,73308.273
402,0.6681,74467.06299999999
403,0.669767,74467.06299999999
404,0.6714329999999999,75611.469
405,0.6731,76742.25
406,0.674767,76742.25
407,0.67645,77852.82799999999
408,0.6781,78941.508
409,0.679767,80009.031
410,0.681433,80009.031
411,0.6831,81058.148
412,0.684767,82092.43799999999
413,0.686433,83107.281
414,0.6881,83107.281
415,0.689767,84107.148
416,0.691433,85089.656
417,0.6931,86049.211
418,0.694767,86049.211
419,0.6964669999999999,86999.836
420,0.6981000000000001,87931.602
421,0.699767,87931.602
422,0.701433,88834.016
423,0.7030999999999999,89706.109
424,0.704767,90528.57799999999
425,0.706433,90528.57799999999
426,0.7081,91308.281
427,0.709767,92055.20299999999
428,0.711433,92785.359
429,0.713167,92785.359
430,0.714767,93518.719
431,0.716433,94250.81299999999
432,0.7181,94974.484
433,0.719767,94974.484
434,0.721433,95683.266
435,0.7231,96374.977
436,0.72475,97051.266
437,0.726417,97051.266
438,0.728083,97710.93799999999
439,0.729833,98355.336
440,0.731417,98355.336
441,0.733083,98974.17999999999
442,0.73475,99567.625
443,0.736417,100117.625
444,0.738083,100117.625
445,0.73975,100589.398
446,0.741417,100927.352
447,0.743083,100898.297
448,0.74475,100898.297
449,0.746533,99863.039
450,0.7480830000000001,96788.92999999999
451,0.749767,90849.92200000001
452,0.751417,90849.92200000001
453,0.7530829999999999,82037.898
454,0.75475,71346.31299999999
455,0.756417,71346.31299999999
456,0.758083,60430.543
457,0.75975,50758.645
458,0.761417,43038.652
459,0.763083,43038.652
460,0.76475,37266.164
461,0.766417,33072.383
462,0.768083,30021.146
463,0.76975,30021.146
464,0.771417,27750.73
465,0.773083,26001.707
466,0.77475,24595.41
467,0.776417,24595.41
468,0.778083,23425.668
469,0.7797500000000001,22419.021
470,0.781417,21529.57
471,0.783083,21529.57
472,0.784733,20733.551
473,0.7864,20006.598
474,0.788067,20006.598
475,0.789733,19337.684
476,0.7914,18719.063
477,0.793067,18139.557
478,0.79475,18139.557
479,0.7964,17599.463
480,0.798067,17095.133
481,0.799733,16619.34
482,0.8014,16619.34
483,0.803067,16173.273
484,0.804733,15755.222
485,0.8064,15357.584
486,0.808083,15357.584
487,0.809733,14976.412
488,0.8114170000000001,14616.772
489,0.813067,14616.772
490,0.81475,14272.854
491,0.8164,13945.922
492,0.818067,13641.045
493,0.819733,13641.045
494,0.8214,13346.896
495,0.823067,13066.604
496,0.824733,12797.937
497,0.8264,12797.937
498,0.828067,12541.86
499,0.8297330000000001,12297.332
500,0.831483,12059.733
501,0.833067,12059.733
502,0.834717,11833.608
503,0.836383,11617.02
504,0.83805,11617.02
505,0.839717,11407.808
506,0.841383,11205.524
507,0.843033,11010.468
508,0.8447,11010.468
509,0.846367,10822.191
510,0.848117,10641.143
511,0.8497,10467.768
512,0.851367,10467.768
513,0.853033,10299.012
514,0.8547,10132.715
515,0.856367,9975.284
516,0.858033,9975.284
517,0.8597,9823.218000000001
518,0.861367,9677.857
519,0.8630330000000001,9536.893
520,0.8648169999999999,9536.893
521,0.866367,9396.896000000001
522,0.8680330000000001,9260.103999999999
523,0.8697,9260.103999999999
524,0.871367,9125.546
525,0.8730329999999999,8997.246999999999
526,0.8747,8875.950999999999
527,0.876367,8875.950999999999
528,0.878033,8757.114
529,0.8797,8646.174999999999
530,0.881367,8537.694
531,0.883033,8537.694
532,0.8847,8426.011
533,0.886367,8322.075000000001
534,0.888033,8218.587
535,0.88975,8218.587
536,0.891367,8119.419
537,0.893033,8025.169
538,0.8947000000000001,8025.169
539,0.896367,7929.802
540,0.898033,7835.925
541,0.8997000000000001,7744.655
542,0.901367,7744.655
543,0.903033,7654.95
544,0.904683,7568.002
545,0.90635,7483.289
546,0.908017,7483.289
547,0.909683,7399.917
548,0.91135,7317.811
549,0.913017,7238.984
550,0.914683,7238.984
551,0.91635,7162.02
552,0.918017,7084.832
553,0.919683,7015.318
554,0.92135,7015.318
555,0.923017,6946.847
556,0.924683,6880.909
557,0.92635,6880.909
558,0.928017,6815.046
559,0.929683,6750.226
560,0.93135,6686.077
561,0.933017,6686.077
562,0.934683,6620.288
563,0.93635,6556.883
564,0.938017,6495.565
565,0.939683,6495.565
566,0.94135,6435.066
567,0.943017,6379.262
568,0.9446830000000001,6323.457
569,0.94635,6323.457
570,0.948017,6266.013
571,0.949733,6210.953
572,0.95135,6210.953
573,0.953017,6153.956
574,0.9546829999999999,6101.206
575,0.95635,6049.648
576,0.958017,6049.648
577,0.959683,5999.356
578,0.96135,5948.543
579,0.963017,5899.444
580,0.9646670000000001,5899.444
581,0.966367,5851.313
582,0.968,5806.759
583,0.969683,5762.801
584,0.971333,5762.801
585,0.973,5718.544
586,0.974667,5673.021
587,0.976333,5624.443
588,0.978,5624.443
589,0.979667,5581.006
590,0.981333,5537.271
591,0.983,5537.271
592,0.984667,5495.548
593,0.986333,5456.135
594,0.988,5415.678
595,0.989667,5415.678
596,0.991333,5377.159
597,0.993,5342.215
598,0.994667,5306.899
599,0.996333,5306.899
600,0.998,5272.329
601,0.999667,5239.621
602,1.001333,5201.474
603,1.003,5201.474
604,1.004667,5164.892
605,1.006333,5129.501
606,1.008,5129.501
607,1.009667,5091.429
608,1.011333,5054.846
609,1.013,5021.244
610,1.014667,5021.244
611,1.016333,4986.524
612,1.018,4957.169
613,1.019667,4928.634
614,1.021333,4928.634
615,1.023,4898.235
616,1.02465,4865.974
617,1.026317,4831.925
618,1.027983,4831.925
619,1.02965,4801.08
620,1.031317,4771.874
621,1.032983,4771.874
622,1.03465,4741.475
623,1.036333,4711.151
624,1.03805,4680.231
625,1.03965,4680.231
626,1.041317,4649.386
627,1.042983,4620.18
628,1.04465,4594.326
629,1.046317,4594.326
630,1.047983,4573.018
631,1.04965,4549.623
632,1.051317,4525.706
633,1.052983,4525.706
634,1.05465,4499.555
635,1.056317,4471.317
636,1.057983,4445.761
637,1.05965,4445.761
638,1.061317,4422.292
639,1.062983,4396.587
640,1.06465,4396.587
641,1.066317,4370.883
642,1.068067,4344.508
643,1.06965,4323.944
644,1.071317,4323.944
645,1.072983,4304.499
646,1.07465,4283.488
647,1.076317,4262.328
648,1.077983,4262.328
649,1.07965,4236.4
650,1.081317,4211.143
651,1.082983,4188.493
652,1.084633,4188.493
653,1.0863,4164.204
654,1.087967,4143.491
655,1.089633,4143.491
656,1.0913,4124.939
657,1.092967,4107.803
658,1.094633,4090.443
659,1.0963,4090.443
660,1.097967,4073.083
661,1.099633,4054.606
662,1.101417,4031.137
663,1.102967,4031.137
664,1.104633,4011.989
665,1.1063,3992.766
666,1.107967,3969.669
667,1.109667,3969.669
668,1.1113,3954.545
669,1.112967,3935.918
670,1.114633,3917.813
671,1.1163,3917.813
672,1.117967,3905.967
673,1.119633,3886.521
674,1.1213,3886.521
675,1.122967,3868.639
676,1.124617,3851.28
677,1.126283,3831.833
678,1.12795,3831.833
679,1.129617,3817.305
680,1.131283,3801.733
681,1.13295,3782.958
682,1.134617,3782.958
683,1.136283,3765.225
684,1.13795,3749.132
685,1.139617,3733.635
686,1.141283,3733.635
687,1.142933,3719.553
688,1.144617,3703.013
689,1.146267,3703.013
690,1.147933,3686.398
691,1.1496,3668.591
692,1.151267,3655.627
693,1.152933,3655.627
694,1.1546,3644.824
695,1.156267,3632.233
696,1.157933,3619.269
697,1.1596,3619.269
698,1.161267,3604.665
699,1.162933,3590.509
700,1.1646,3573.075
701,1.166267,3573.075
702,1.167933,3561.601
703,1.1696,3546.551
704,1.171267,3532.842
705,1.172933,3532.842
706,1.1746,3521.219
707,1.176267,3504.679
708,1.177933,3504.679
709,1.1796,3488.138
710,1.181267,3473.61
711,1.182933,3461.093
712,1.1846,3461.093
713,1.186317,3450.215
714,1.187933,3442.615
715,1.1896,3428.31
716,1.191267,3428.31
717,1.192933,3412.664
718,1.1946,3401.935
719,1.196267,3388.748
720,1.197933,3388.748
721,1.1996,3377.348
722,1.201267,3365.055
723,1.202917,3365.055
724,1.204583,3352.24
725,1.20625,3339.723
726,1.207917,3328.249
727,1.209583,3328.249
728,1.21125,3318.489
729,1.212917,3308.654
730,1.214583,3296.286
731,1.21625,3296.286
732,1.217917,3288.165
733,1.219717,3276.169
734,1.22125,3262.386
735,1.222917,3262.386
736,1.224583,3252.849
737,1.22625,3239.214
738,1.227917,3239.214
739,1.229583,3229.976
740,1.23125,3218.949
741,1.232917,3206.208
742,1.234583,3206.208
743,1.23625,3193.542
744,1.237917,3179.908
745,1.239583,3168.732
746,1.24125,3168.732
747,1.242917,3157.034
748,1.244583,3147.647
749,1.24625,3138.036
750,1.247917,3138.036
751,1.249583,3127.307
752,1.25125,3118.515
753,1.252917,3109.872
754,1.254583,3109.872
755,1.25625,3102.422
756,1.257917,3097.132
757,1.259583,3097.132
758,1.26125,3087.073
759,1.262917,3077.76
760,1.264567,3068.894
761,1.266233,3068.894
762,1.2679,3056.154
763,1.269567,3048.927
764,1.27125,3037.751
765,1.272933,3037.751
766,1.274567,3027.842
767,1.276233,3018.826
768,1.2779,3008.023
769,1.279567,3008.023
770,1.281233,2999.455
771,1.2829,2993.718
772,1.284567,2993.718
773,1.286233,2985.671
774,1.2879,2978.966
775,1.289567,2972.186
776,1.291233,2972.186
777,1.2929,2959.669
778,1.294567,2951.771
779,1.296233,2945.736
780,1.2979,2945.736
781,1.299567,2936.795
782,1.301233,2931.282
783,1.3029,2924.204
784,1.30465,2924.204
785,1.306233,2914.667
786,1.3079,2910.867
787,1.309567,2904.832
788,1.311233,2904.832
789,1.3129,2901.107
790,1.314567,2896.935
791,1.316233,2896.935
792,1.3179,2889.931
793,1.319583,2875.775
794,1.321217,2860.874
795,1.3229,2860.874
796,1.32455,2851.561
797,1.326217,2839.118
798,1.327883,2836.436
799,1.32955,2836.436
800,1.331217,2832.413
801,1.332883,2824.59
802,1.33455,2819.523
803,1.336217,2819.523
804,1.337967,2810.284
805,1.33955,2802.014
806,1.341217,2802.014
807,1.342883,2794.117
808,1.34455,2788.305
809,1.346217,2784.655
810,1.347883,2784.655
811,1.34955,2779.141
812,1.351217,2772.212
813,1.352883,2766.55
814,1.35455,2766.55
815,1.356217,2756.417
816,1.357883,2749.19
817,1.35955,2744.198
818,1.361217,2744.198
819,1.362883,2738.312
820,1.36455,2733.916
821,1.366217,2726.838
822,1.367883,2726.838
823,1.36955,2716.631
824,1.371217,2708.435
825,1.372883,2708.435
826,1.37455,2702.326
827,1.376217,2697.781
828,1.377883,2694.577
829,1.37955,2694.577
830,1.381217,2689.287
831,1.382867,2683.923
832,1.384533,2679.75
833,1.3862,2679.75
834,1.387867,2671.704
835,1.389533,2665.818
836,1.3912,2659.187
837,1.392867,2659.187
838,1.39455,2648.16
839,1.3962,2642.721
840,1.397867,2642.721
841,1.399533,2637.729
842,1.4012,2632.737
843,1.402867,2629.086
844,1.404533,2629.086
845,1.4062,2623.052
846,1.407867,2613.515
847,1.409533,2607.033
848,1.4112,2607.033
849,1.412867,2600.253
850,1.414533,2595.559
851,1.416183,2590.939
852,1.41785,2590.939
853,1.419517,2585.948
854,1.421183,2583.489
855,1.4229,2579.167
856,1.424517,2579.167
857,1.426183,2570.823
858,1.42785,2564.266
859,1.429517,2564.266
860,1.431183,2556.965
861,1.43285,2553.612
862,1.434517,2551.228
863,1.436183,2551.228
864,1.437883,2544.224
865,1.439517,2542.585
866,1.441183,2537.146
867,1.442833,2537.146
868,1.4445,2532.452
869,1.446167,2528.578
870,1.447833,2519.935
871,1.4495,2519.935
872,1.451167,2513.9
873,1.452833,2511.814
874,1.4545,2511.814
875,1.456283,2504.513
876,1.457833,2501.085
877,1.4595,2494.529
878,1.461167,2494.529
879,1.462833,2488.345
880,1.4645,2485.588
881,1.466167,2479.479
882,1.467833,2479.479
883,1.469517,2478.212
884,1.471167,2471.208
885,1.472833,2468.75
886,1.4745,2468.75
887,1.476167,2463.833
888,1.477833,2457.5
889,1.4795,2457.5
890,1.481167,2452.135
891,1.482833,2445.951
892,1.4845,2443.641
893,1.486167,2443.641
894,1.487833,2435.446
895,1.4895,2433.285
896,1.491167,2426.207
897,1.492833,2426.207
898,1.4945,2418.31
899,1.496167,2417.192
900,1.497833,2412.2
901,1.4995,2412.2
902,1.501167,2410.635
