"ID","sea_time","fid_signal"
1,0,1318.231
2,0.001667,1318.231
3,0.003333,1318.008
4,0.005,1322.404
5,0.006667,1316.518
6,0.008333,1316.518
7,0.01,1300.573
8,0.011683,1285.821
9,0.013333,1285.821
10,0.015017,1273.23
11,0.016667,1272.559
12,0.018333,1283.139
13,0.02,1283.139
14,0.021667,1292.676
15,0.023333,1297.221
16,0.0251,1299.158
17,0.026667,1299.158
18,0.028333,1303.554
19,0.03,1307.204
20,0.031667,1312.122
21,0.033333,1312.122
22,0.035,1313.016
23,0.036667,1312.569
24,0.038333,1314.655
25,0.04,1314.655
26,0.041667,1314.729
27,0.043317,1316.22
28,0.045,1316.22
29,0.04665,1315.474
30,0.048317,1314.58
31,0.049983,1316.518
32,0.05165,1316.518
33,0.053317,1317.114
34,0.054983,1317.784
35,0.05665,1318.157
36,0.058317,1318.157
37,0.059983,1316.518
38,0.06165,1317.933
39,0.063317,1320.913
40,0.064983,1320.913
41,0.06665,1322.627
42,0.068317,1324.117
43,0.069983,1324.117
44,0.07165000000000001,1323.223
45,0.07331699999999999,1323.298
46,0.07498299999999999,1321.807
47,0.07665,1321.807
48,0.078317,1323.223
49,0.079983,1324.415
50,0.08165,1324.713
51,0.083317,1324.713
52,0.084983,1326.725
53,0.08665,1326.799
54,0.08831700000000001,1327.619
55,0.08998299999999999,1327.619
56,0.09165,1325.458
57,0.093317,1324.862
58,0.094983,1324.862
59,0.09665,1324.639
60,0.098317,1326.352
61,0.099983,1325.309
62,0.10165,1325.309
63,0.103317,1326.725
64,0.104983,1324.564
65,0.106633,1321.211
66,0.1083,1321.211
67,0.110033,1321.733
68,0.111633,1319.498
69,0.1133,1319.2
70,0.114967,1319.2
71,0.116633,1322.18
72,0.1183,1322.031
73,0.119967,1324.341
74,0.121633,1324.341
75,0.1233,1323.67
76,0.124967,1320.764
77,0.126633,1320.764
78,0.1283,1321.957
79,0.129967,1321.063
80,0.131633,1323.894
81,0.1333,1323.894
82,0.134967,1324.192
83,0.136633,1322.329
84,0.1383,1324.341
85,0.139967,1324.341
86,0.141633,1320.317
87,0.143417,1319.87
88,0.144967,1319.125
89,0.146633,1319.125
90,0.1483,1315.624
91,0.149967,1316.294
92,0.151633,1316.294
93,0.1533,1314.953
94,0.154967,1316.294
95,0.156633,1315.996
96,0.1583,1315.996
97,0.159967,1317.561
98,0.161633,1320.392
99,0.1633,1323
100,0.164983,1323
101,0.166617,1323
102,0.168283,1322.851
103,0.16995,1322.255
104,0.171617,1322.255
105,0.173283,1320.839
106,0.17495,1321.063
107,0.176617,1320.913
108,0.178283,1320.913
109,0.17995,1320.541
110,0.181617,1318.902
111,0.183283,1318.902
112,0.18495,1317.933
113,0.186617,1317.114
114,0.188283,1316.294
115,0.18995,1316.294
116,0.191617,1320.69
117,0.193283,1320.764
118,0.19495,1318.604
119,0.196617,1318.604
120,0.198283,1320.69
121,0.19995,1320.392
122,0.201617,1321.957
123,0.203283,1321.957
124,0.20495,1323.894
125,0.206617,1321.733
126,0.208283,1321.733
127,0.20995,1316.89
128,0.211617,1318.902
129,0.213283,1319.721
130,0.21495,1319.721
131,0.216617,1319.796
132,0.218283,1319.051
133,0.21995,1316.518
134,0.221617,1316.518
135,0.223283,1316.145
136,0.224933,1315.251
137,0.226617,1316.816
138,0.22835,1316.816
139,0.229933,1315.624
140,0.2316,1314.804
141,0.233267,1315.922
142,0.234933,1315.922
143,0.2366,1315.922
144,0.238267,1314.729
145,0.23995,1314.729
146,0.2416,1316.145
147,0.243267,1314.655
148,0.245,1315.996
149,0.2466,1315.996
150,0.248267,1317.635
151,0.249933,1318.529
152,0.2516,1317.337
153,0.253267,1317.337
154,0.254933,1315.922
155,0.2566,1317.933
156,0.258267,1316.89
157,0.259933,1316.89
158,0.2617,1318.157
159,0.263267,1319.274
160,0.264933,1319.274
161,0.2666,1319.349
162,0.268267,1321.807
163,0.269933,1321.957
164,0.2716,1321.957
165,0.27325,1321.807
166,0.274917,1318.902
167,0.276583,1316.741
168,0.27825,1316.741
169,0.279917,1316.145
170,0.281583,1317.039
171,0.28325,1320.317
172,0.284917,1320.317
173,0.286567,1319.125
174,0.288233,1320.168
175,0.2899,1320.168
176,0.291567,1318.827
177,0.293233,1316.145
178,0.2949,1316.592
179,0.296567,1316.592
180,0.298233,1312.941
181,0.299917,1311.898
182,0.301567,1312.569
183,0.303233,1312.569
184,0.3049,1314.282
185,0.306567,1318.529
186,0.308233,1318.231
187,0.3099,1318.231
188,0.311567,1316.071
189,0.313233,1314.506
190,0.3149,1313.463
191,0.316567,1313.463
192,0.318233,1315.4
193,0.3199,1315.698
194,0.321567,1315.698
195,0.323233,1315.549
196,0.3249,1316.294
197,0.326567,1314.878
198,0.328233,1314.878
199,0.3299,1315.996
200,0.331567,1317.933
201,0.333233,1320.839
202,0.3349,1320.839
203,0.336567,1322.255
204,0.338233,1322.478
205,0.3399,1320.243
206,0.341567,1320.243
207,0.343233,1320.913
208,0.344883,1323
209,0.34655,1323
210,0.348217,1328.96
211,0.349883,1332.238
212,0.35155,1333.058
213,0.353217,1333.058
214,0.354883,1334.697
215,0.35655,1335.74
216,0.358217,1341.328
217,0.359883,1341.328
218,0.36155,1347.14
219,0.363283,1356.229
220,0.364883,1364.425
221,0.36655,1364.425
222,0.368233,1370.162
223,0.369883,1376.644
224,0.37155,1382.083
225,0.373217,1382.083
226,0.374883,1389.31
227,0.37655,1399.219
228,0.378217,1399.219
229,0.37995,1411.512
230,0.38155,1425.669
231,0.383217,1439.303
232,0.384883,1439.303
233,0.38655,1454.204
234,0.388217,1470.521
235,0.389883,1485.199
236,0.39155,1485.199
237,0.393217,1500.323
238,0.394883,1516.491
239,0.396667,1529.232
240,0.398217,1529.232
241,0.399883,1541.6
242,0.40155,1557.171
243,0.403217,1557.171
244,0.404867,1572.073
245,0.406533,1588.911
246,0.4082,1608.059
247,0.409867,1608.059
248,0.41155,1627.132
249,0.4132,1646.727
250,0.414883,1660.958
251,0.416533,1660.958
252,0.4182,1675.412
253,0.419867,1684.129
254,0.421533,1691.878
255,0.4232,1691.878
256,0.424867,1704.469
257,0.426533,1711.547
258,0.4282,1720.637
259,0.429867,1720.637
260,0.431533,1728.907
261,0.4332,1731.664
262,0.434867,1731.664
263,0.436533,1736.954
264,0.4382,1743.883
265,0.439867,1745
266,0.441533,1745
267,0.44325,1748.875
268,0.444867,1749.396
269,0.446533,1746.193
270,0.4482,1746.193
271,0.449867,1744.404
272,0.451533,1741.946
273,0.4532,1736.581
274,0.454867,1736.581
275,0.456533,1728.535
276,0.4582,1720.935
277,0.459867,1720.935
278,0.461533,1711.622
279,0.4632,1703.501
280,0.46485,1693.368
281,0.466517,1693.368
282,0.468183,1684.502
283,0.46985,1674.443
284,0.471517,1664.609
285,0.473183,1664.609
286,0.47485,1660.66
287,0.476517,1653.88
288,0.478183,1647.77
289,0.47985,1647.77
290,0.481533,1644.12
291,0.483183,1639.277
292,0.48485,1639.277
293,0.486517,1639.053
294,0.488183,1639.724
295,0.48985,1640.99
296,0.491517,1640.99
297,0.493183,1646.057
298,0.49485,1651.943
299,0.496517,1662.672
300,0.498217,1662.672
301,0.49985,1682.937
302,0.501517,1705.959
303,0.503183,1741.946
304,0.50485,1741.946
305,0.506517,1790.896
306,0.5081830000000001,1854.151
307,0.50985,1937.822
308,0.511517,1937.822
309,0.5131829999999999,2040.416
310,0.514967,2170.354
311,0.516517,2170.354
312,0.5182,2330.244
313,0.51985,2530.664
314,0.521517,2774.671
315,0.523183,2774.671
316,0.52485,3062.338
317,0.5265,3394.485
318,0.5281670000000001,3777.817
319,0.529833,3777.817
320,0.5315,4214.496
321,0.5331669999999999,4711.971
322,0.534833,5277.246
323,0.5365,5277.246
324,0.538167,5902.946
325,0.539833,6594.881
326,0.5415,6594.881
327,0.543167,7347.315
328,0.544833,8158.311
329,0.5465,9031.370000000001
330,0.548167,9031.370000000001
331,0.549833,9958.968000000001
332,0.5515,10944.903
333,0.553167,11986.047
334,0.554833,11986.047
335,0.5565,13077.035
336,0.558167,14216.975
337,0.559833,15401.84
338,0.5615,15401.84
339,0.563167,16624.703
340,0.564817,17884.746
341,0.566483,19183.605
342,0.56815,19183.605
343,0.569817,20515.994
344,0.571483,21878.928
345,0.57315,21878.928
346,0.574817,23268.982
347,0.576483,24680.496
348,0.5781500000000001,26112.348
349,0.579817,26112.348
350,0.581483,27564.615
351,0.583133,29032.529
352,0.584817,30511.543
353,0.586467,30511.543
354,0.588133,32002.703
355,0.589817,33501.984
356,0.591467,35008.488
357,0.593133,35008.488
358,0.5948,36520.438
359,0.596467,38030.668
360,0.598133,38030.668
361,0.5998,39540.23
362,0.601467,41047.109
363,0.603133,42552.277
364,0.6048,42552.277
365,0.606467,44052.004
366,0.608133,45545.848
367,0.6098,47026.945
368,0.611467,47026.945
369,0.613133,48495.457
370,0.6148,49953.313
371,0.616467,51401.109
372,0.618133,51401.109
373,0.6198,52840.188
374,0.621467,54265.559
375,0.623133,55677.145
376,0.6248,55677.145
377,0.626467,57068.316
378,0.6281330000000001,58444.961
379,0.6298,58444.961
380,0.631467,59804.395
381,0.63325,61149.375
382,0.6348,62481.688
383,0.636467,62481.688
384,0.638133,63798.801
385,0.6398,65100.191
386,0.641467,66384.67200000001
387,0.643133,66384.67200000001
388,0.644783,67652.164
389,0.64645,68901.406
390,0.6481170000000001,70133.133
391,0.649783,70133.133
392,0.65145,71350.258
393,0.6531169999999999,72551.891
394,0.654783,72551.891
395,0.65645,73736.164
396,0.658117,74905.008
397,0.659783,76056.641
398,0.661483,76056.641
399,0.663117,77193.602
400,0.664783,78317.523
401,0.66645,79429.227
402,0.668117,79429.227
403,0.669783,80520.06299999999
404,0.67145,81592.648
405,0.673117,82653.242
406,0.674783,82653.242
407,0.67645,83697.664
408,0.678117,84728.29700000001
409,0.679783,84728.29700000001
410,0.68145,85745.977
411,0.683117,86749.641
412,0.684783,87739.523
413,0.68645,87739.523
414,0.688117,88717.641
415,0.689783,89683.383
416,0.69145,90636.242
417,0.693117,90636.242
418,0.694783,91577.469
419,0.69645,92504.617
420,0.698117,93419.852
421,0.699783,93419.852
422,0.70145,94315.859
423,0.703117,95197.039
424,0.704767,96066.67200000001
425,0.706433,96066.67200000001
426,0.7081,96919.539
427,0.709767,97763.836
428,0.711433,97763.836
429,0.7131,98599.93799999999
430,0.714767,99423.602
431,0.716433,100234.75
432,0.718183,100234.75
433,0.719767,101033.672
434,0.721433,101822.766
435,0.7231,102600.898
436,0.7248,102600.898
437,0.726433,103368.164
438,0.7281,104128.789
439,0.7297670000000001,104873.406
440,0.731433,104873.406
441,0.7331,105581.211
442,0.7347669999999999,106224.719
443,0.736433,106224.719
444,0.7381,106802.211
445,0.739767,107334.781
446,0.741433,107860.117
447,0.7431,107860.117
448,0.744767,108418.617
449,0.746433,109007.953
450,0.7481,109612.945
451,0.749767,109612.945
452,0.751533,110222.398
453,0.7531,110828.805
454,0.754767,111430.883
455,0.756433,111430.883
456,0.7581,112036.688
457,0.759767,112648.609
458,0.761433,113257.539
459,0.7631,113257.539
460,0.764767,113852.469
461,0.766417,114433.766
462,0.768083,114433.766
463,0.76975,114992.109
464,0.771417,115503.07
465,0.773083,115791.414
466,0.77475,115791.414
467,0.776417,114952.922
468,0.778083,111186.203
469,0.7797500000000001,103049.203
470,0.781417,103049.203
471,0.783083,90504.664
472,0.7847499999999999,75174.04700000001
473,0.786417,59885.68
474,0.788083,59885.68
475,0.78975,47012.418
476,0.791417,37425.531
477,0.793083,37425.531
478,0.79475,30822.158
479,0.796417,26447.4
480,0.7981,23563.131
481,0.79975,23563.131
482,0.801417,21613.688
483,0.803083,20233.318
484,0.80475,19203.275
485,0.8064170000000001,19203.275
486,0.808083,18386.469
487,0.809767,17701.387
488,0.8114170000000001,17111.301
489,0.813083,17111.301
490,0.81475,16583.129
491,0.8164169999999999,16099.438
492,0.818083,15656.054
493,0.81975,15656.054
494,0.821417,15242.919
495,0.823083,14854.968
496,0.82475,14854.968
497,0.8264,14493.019
498,0.828067,14151.707
499,0.8297330000000001,13824.775
500,0.8314,13824.775
501,0.833067,13514.533
502,0.8347329999999999,13217.554
503,0.836483,12933.537
504,0.838067,12933.537
505,0.839733,12667.478
506,0.8414,12411.698
507,0.843067,12164.116
508,0.844733,12164.116
509,0.8464,11929.273
510,0.848067,11702.18
511,0.849733,11702.18
512,0.8514,11486.635
513,0.853067,11281.371
514,0.854733,11082.366
515,0.856383,11082.366
516,0.85805,10889.321
517,0.859717,10702.685
518,0.861383,10524.02
519,0.86305,10524.02
520,0.864717,10351.166
521,0.866383,10187.104
522,0.86805,10028.631
523,0.8698,10028.631
524,0.871383,9871.498
525,0.87305,9722.784
526,0.874717,9722.784
527,0.876383,9576.603999999999
528,0.87805,9436.384
529,0.879717,9304.210999999999
530,0.881383,9304.210999999999
531,0.88305,9168.833000000001
532,0.884717,9040.311
533,0.886367,8915.216
534,0.888033,8915.216
535,0.8897,8792.355
536,0.891367,8678.734
537,0.893033,8569.583000000001
538,0.8947000000000001,8569.583000000001
539,0.896367,8456.409
540,0.898033,8349.717000000001
541,0.8997000000000001,8244.365
542,0.901367,8244.365
543,0.903033,8139.61
544,0.9046999999999999,8041.412
545,0.906367,8041.412
546,0.908033,7944.033
547,0.9097,7853.731
548,0.911367,7761.717
549,0.913033,7761.717
550,0.9147,7675.29
551,0.916367,7588.789
552,0.918033,7503.778
553,0.9197,7503.778
554,0.921367,7424.429
555,0.923033,7342.622
556,0.9247,7268.19
557,0.9263670000000001,7268.19
558,0.928033,7188.767
559,0.9297,7110.387
560,0.9313669999999999,7110.387
561,0.933033,7038.116
562,0.9347,6963.983
563,0.9363669999999999,6897.599
564,0.938033,6897.599
565,0.939717,6830.394
566,0.941367,6765.127
567,0.943033,6700.083
568,0.9446830000000001,6700.083
569,0.94635,6634.444
570,0.948017,6574.765
571,0.9496830000000001,6515.831
572,0.95135,6515.831
573,0.953017,6459.43
574,0.954767,6403.178
575,0.95635,6347.597
576,0.958017,6347.597
577,0.959683,6287.023
578,0.96135,6229.058
579,0.963017,6229.058
580,0.964683,6173.104
581,0.96635,6118.268
582,0.968017,6069.765
583,0.969683,6069.765
584,0.97135,6017.089
585,0.973017,5970.299
586,0.974683,5922.317
587,0.9763500000000001,5922.317
588,0.978017,5872.25
589,0.979683,5823.821
590,0.9813499999999999,5772.114
591,0.983017,5772.114
592,0.984683,5724.43
593,0.9863499999999999,5683.675
594,0.988117,5646.87
595,0.989683,5646.87
596,0.99135,5604.699
597,0.993017,5560.294
598,0.994683,5560.294
599,0.99635,5514.175
600,0.998017,5468.875
601,0.999683,5432.74
602,1.00135,5432.74
603,1.003017,5393.252
604,1.004683,5353.54
605,1.006333,5315.84
606,1.008,5315.84
607,1.009667,5277.321
608,1.011333,5246.475
609,1.013,5211.16
610,1.014667,5211.16
611,1.01635,5173.683
612,1.01805,5137.995
613,1.019667,5137.995
614,1.021333,5100.742
615,1.023,5067.885
616,1.024667,5038.008
617,1.026333,5038.008
618,1.028,5004.406
619,1.029667,4970.581
620,1.031333,4940.555
621,1.033,4940.555
622,1.034667,4907.176
623,1.036333,4877.448
624,1.038,4848.093
625,1.039667,4848.093
626,1.041333,4815.012
627,1.043,4783.869
628,1.044667,4783.869
629,1.04635,4752.278
630,1.048,4721.061
631,1.049667,4693.419
632,1.051333,4693.419
633,1.053,4665.106
634,1.054667,4636.496
635,1.056333,4612.133
636,1.058,4612.133
637,1.059683,4585.609
638,1.061333,4562.438
639,1.063,4538.745
640,1.064667,4538.745
641,1.066317,4511.625
642,1.067983,4485.101
643,1.06965,4485.101
644,1.071317,4457.533
645,1.073067,4433.095
646,1.07465,4408.062
647,1.076317,4408.062
648,1.078,4382.283
649,1.07965,4357.025
650,1.081317,4330.501
651,1.082983,4330.501
652,1.08465,4306.659
653,1.086317,4286.245
654,1.087983,4266.128
655,1.08975,4266.128
656,1.091317,4246.458
657,1.092983,4226.938
658,1.09465,4205.927
659,1.096317,4205.927
660,1.097983,4186.034
661,1.09965,4164.726
662,1.101317,4164.726
663,1.102983,4145.205
664,1.10465,4124.12
665,1.106433,4101.396
666,1.107983,4101.396
667,1.10965,4081.354
668,1.111317,4060.715
669,1.112983,4043.132
670,1.11465,4043.132
671,1.116317,4027.784
672,1.117983,4010.871
673,1.11965,3990.754
674,1.121317,3990.754
675,1.1231,3971.532
676,1.12465,3951.713
677,1.126317,3951.713
678,1.127967,3930.032
679,1.129633,3911.033
680,1.1313,3893.301
681,1.132967,3893.301
682,1.134633,3874.823
683,1.1363,3860.965
684,1.137967,3845.915
685,1.139633,3845.915
686,1.1413,3826.842
687,1.142967,3810.749
688,1.144633,3790.855
689,1.1463,3790.855
690,1.14795,3774.166
691,1.149633,3761.202
692,1.151317,3746.45
693,1.15295,3746.45
694,1.154617,3730.58
695,1.156283,3714.562
696,1.15795,3714.562
697,1.159617,3696.457
698,1.161283,3679.842
699,1.16295,3664.643
700,1.164617,3664.643
701,1.166283,3649.369
702,1.16795,3634.468
703,1.169617,3618.225
704,1.171283,3618.225
705,1.17295,3604.814
706,1.174617,3590.137
707,1.176283,3576.353
708,1.17795,3576.353
709,1.179617,3562.123
710,1.181283,3548.19
711,1.18295,3548.19
712,1.184617,3534.183
713,1.186267,3523.156
714,1.187933,3514.29
715,1.1896,3514.29
716,1.191267,3501.624
717,1.192933,3489.628
718,1.1946,3474.057
719,1.196267,3474.057
720,1.197933,3457.219
721,1.1996,3444.925
722,1.201267,3431.141
723,1.202933,3431.141
724,1.2046,3419.072
725,1.206267,3406.629
726,1.208,3394.41
727,1.2096,3394.41
728,1.211267,3382.563
729,1.212933,3372.282
730,1.2146,3372.282
731,1.216267,3361.776
732,1.217933,3349.408
733,1.2196,3339.201
734,1.221317,3339.201
735,1.222933,3329.665
736,1.224667,3317.222
737,1.226267,3307.611
738,1.227933,3307.611
739,1.2296,3297.552
740,1.231267,3284.663
741,1.232933,3273.189
742,1.2346,3273.189
743,1.236267,3261.864
744,1.237933,3249.794
745,1.2396,3249.794
746,1.241367,3237.128
747,1.242933,3226.101
748,1.2446,3216.192
749,1.24625,3216.192
750,1.247917,3209.263
751,1.249583,3201.589
752,1.25125,3195.331
753,1.252917,3195.331
754,1.254583,3186.688
755,1.25625,3174.767
756,1.257917,3164.634
757,1.259583,3164.634
758,1.26125,3154.278
759,1.262917,3141.016
760,1.264583,3141.016
761,1.26625,3130.212
762,1.267917,3118.887
763,1.269583,3109.5
764,1.27125,3109.5
765,1.272917,3102.273
766,1.274583,3094.301
767,1.27625,3088.862
768,1.277917,3088.862
769,1.279583,3079.846
770,1.28125,3070.235
771,1.282917,3061.593
772,1.284583,3061.593
773,1.28625,3050.864
774,1.287917,3039.762
775,1.289583,3031.343
776,1.29125,3031.343
777,1.292917,3020.689
778,1.294583,3009.885
779,1.29625,3009.885
780,1.297917,3004.223
781,1.299583,2995.878
782,1.301267,2987.161
783,1.302917,2987.161
784,1.304583,2977.848
785,1.306233,2966.3
786,1.3079,2955.794
787,1.309567,2955.794
788,1.311233,2948.642
789,1.3129,2944.097
790,1.314567,2937.317
791,1.316233,2937.317
792,1.3179,2930.313
793,1.319567,2921.224
794,1.321233,2921.224
795,1.3229,2911.463
796,1.324567,2903.417
797,1.3263,2893.88
798,1.3279,2893.88
799,1.329567,2884.716
800,1.331233,2876.446
801,1.3329,2867.877
802,1.334567,2867.877
803,1.336233,2863.407
804,1.3379,2860.054
805,1.339567,2853.349
806,1.341233,2853.349
807,1.34295,2847.165
808,1.344567,2837.256
809,1.346233,2827.346
810,1.3479,2827.346
811,1.349567,2818.778
812,1.351233,2813.786
813,1.3529,2813.786
814,1.354567,2807.677
815,1.356233,2800.077
816,1.3579,2793.521
817,1.359667,2793.521
818,1.361233,2784.58
819,1.3629,2779.886
820,1.36455,2773.553
821,1.36625,2773.553
822,1.367883,2769.008
823,1.36955,2763.346
824,1.371217,2756.864
825,1.372883,2756.864
826,1.37455,2752.542
827,1.376217,2745.167
828,1.377883,2745.167
829,1.37955,2739.802
830,1.381217,2732.948
831,1.382883,2726.018
832,1.38455,2726.018
833,1.386217,2720.281
834,1.387883,2712.906
835,1.38955,2705.753
836,1.391217,2705.753
837,1.392883,2698.824
838,1.394567,2691.671
839,1.396217,2686.977
840,1.397883,2686.977
841,1.39955,2680.197
842,1.401217,2673.045
843,1.402883,2669.021
844,1.40455,2669.021
845,1.406217,2663.359
846,1.407883,2656.952
847,1.40955,2656.952
848,1.411217,2650.768
849,1.412883,2644.509
850,1.41455,2637.953
851,1.416217,2637.953
852,1.417883,2632.141
853,1.41955,2628.192
854,1.421217,2620.667
855,1.422883,2620.667
856,1.42455,2613.589
857,1.4262,2610.013
858,1.427867,2602.637
859,1.42955,2602.637
860,1.4312,2596.602
861,1.432867,2588.555
862,1.434533,2588.555
863,1.4362,2581.85
864,1.437867,2576.113
865,1.439517,2570.003
866,1.441183,2570.003
867,1.44285,2568.215
868,1.444533,2561.51
869,1.446183,2556.741
870,1.44785,2556.741
871,1.449517,2551.749
872,1.451183,2546.385
873,1.45285,2544.522
874,1.454517,2544.522
875,1.456183,2540.872
876,1.45785,2538.934
877,1.459517,2538.934
878,1.461217,2533.495
879,1.46285,2528.354
880,1.464517,2523.661
881,1.466183,2523.661
882,1.46785,2517.104
883,1.469517,2512.559
884,1.471183,2508.313
885,1.47285,2508.313
886,1.474517,2502.128
887,1.476183,2499.968
888,1.477917,2495.572
889,1.479517,2495.572
890,1.481183,2488.047
891,1.482867,2482.832
892,1.4845,2476.647
893,1.486167,2476.647
894,1.487833,2470.613
895,1.4895,2469.793
896,1.491167,2469.793
897,1.492833,2468.228
898,1.4945,2463.46
899,1.496167,2458.319
900,1.497833,2458.319
901,1.4995,2450.719
902,1.501167,2445.951
903,1.502833,2443.194
904,1.504517,2443.194
905,1.506167,2440.81
