"ID","sea_time","fid_signal"
1,0,1169.071
2,0.001667,1169.071
3,0.003333,1166.835
4,0.005,1165.196
5,0.006733,1167.059
6,0.008333,1167.059
7,0.01,1164.749
8,0.01165,1167.879
9,0.013317,1172.87
10,0.014983,1172.87
11,0.01665,1174.659
12,0.018317,1174.807
13,0.019983,1174.807
14,0.02165,1174.286
15,0.023317,1172.349
16,0.024983,1172.125
17,0.02665,1172.125
18,0.028317,1174.584
19,0.029983,1173.019
20,0.03165,1172.125
21,0.033317,1172.125
22,0.034983,1172.796
23,0.03665,1171.902
24,0.038317,1172.572
25,0.039983,1172.572
26,0.04165,1170.859
27,0.043317,1171.157
28,0.044983,1173.019
29,0.04665,1173.019
30,0.048317,1173.69
31,0.049983,1173.168
32,0.05165,1173.168
33,0.053333,1172.87
34,0.054983,1170.337
35,0.05665,1169.443
36,0.058317,1169.443
37,0.059983,1170.933
38,0.06165,1171.38
39,0.063317,1171.38
40,0.064983,1171.38
41,0.06665,1172.051
42,0.068317,1174.51
43,0.069983,1172.349
44,0.07165000000000001,1172.349
45,0.0733,1172.647
46,0.07496700000000001,1170.412
47,0.07663300000000001,1170.412
48,0.07829999999999999,1166.388
49,0.079967,1168.027
50,0.081633,1171.082
51,0.0833,1171.082
52,0.084967,1172.647
53,0.086633,1173.765
54,0.0883,1173.466
55,0.08996700000000001,1173.466
56,0.091667,1175.106
57,0.09329999999999999,1175.329
58,0.094967,1177.639
59,0.096633,1177.639
60,0.0983,1176.223
61,0.099967,1170.337
62,0.101633,1169.965
63,0.1033,1169.965
64,0.104967,1172.647
65,0.106633,1174.957
66,0.108333,1174.957
67,0.109967,1177.639
68,0.111633,1179.576
69,0.1133,1177.49
70,0.114967,1177.49
71,0.116633,1176.298
72,0.1183,1176.819
73,0.119967,1177.192
74,0.121633,1177.192
75,0.1233,1176.298
76,0.125067,1176.149
77,0.126633,1175.404
78,0.1283,1175.404
79,0.129967,1172.274
80,0.13165,1169.22
81,0.1333,1169.22
82,0.134967,1169.369
83,0.136617,1170.188
84,0.138283,1173.019
85,0.13995,1173.019
86,0.141617,1175.106
87,0.143283,1172.125
88,0.14495,1170.114
89,0.146617,1170.114
90,0.148283,1168.996
91,0.14995,1166.761
92,0.151617,1169.369
93,0.153283,1169.369
94,0.15495,1169.965
95,0.156617,1170.561
96,0.158283,1174.063
97,0.15995,1174.063
98,0.161617,1175.106
99,0.163283,1175.478
100,0.16495,1175.478
101,0.166617,1172.945
102,0.168283,1170.71
103,0.16995,1170.635
104,0.171617,1170.635
105,0.173283,1170.486
106,0.17495,1172.572
107,0.176617,1174.733
108,0.178283,1174.733
109,0.17995,1175.329
110,0.181617,1176.149
111,0.183283,1174.286
112,0.18495,1174.286
113,0.186617,1172.349
114,0.188283,1172.125
115,0.18995,1172.125
116,0.1916,1172.572
117,0.193267,1174.286
118,0.194933,1172.945
119,0.196633,1172.945
120,0.198267,1168.922
121,0.199933,1165.792
122,0.2016,1164.973
123,0.203267,1164.973
124,0.204933,1166.388
125,0.2066,1169.145
126,0.208267,1169.592
127,0.21005,1169.592
128,0.2116,1168.326
129,0.213267,1169.741
130,0.214933,1169.741
131,0.2166,1167.655
132,0.218267,1168.326
133,0.219933,1171.604
134,0.2216,1171.604
135,0.223267,1170.114
136,0.224917,1172.647
137,0.226583,1171.529
138,0.22825,1171.529
139,0.229917,1167.208
140,0.231583,1166.314
141,0.23325,1166.612
142,0.234917,1166.612
143,0.236583,1172.349
144,0.23825,1176.372
145,0.239917,1176.372
146,0.241583,1176.372
147,0.243317,1175.851
148,0.244917,1171.082
149,0.246583,1171.082
150,0.24825,1169.145
151,0.249917,1168.996
152,0.251567,1167.432
153,0.253233,1167.432
154,0.2549,1167.282
155,0.256567,1166.239
156,0.258233,1166.984
157,0.2599,1166.984
158,0.261567,1168.922
159,0.263233,1169.592
160,0.2649,1169.369
161,0.266567,1169.369
162,0.268233,1169.369
163,0.2699,1168.624
164,0.271583,1168.624
165,0.273233,1167.506
166,0.2749,1170.114
167,0.276567,1170.337
168,0.278233,1170.337
169,0.2799,1169.965
170,0.281567,1171.455
171,0.283233,1171.38
172,0.2849,1171.38
173,0.286567,1172.349
174,0.288233,1167.729
175,0.2899,1165.792
176,0.291567,1165.792
177,0.293233,1166.165
178,0.2949,1165.718
179,0.296567,1169.816
180,0.298233,1169.816
181,0.2999,1170.784
182,0.301567,1168.102
183,0.303233,1168.102
184,0.3049,1169.22
185,0.306567,1171.827
186,0.308233,1173.615
187,0.3099,1173.615
188,0.31155,1173.019
189,0.313217,1171.902
190,0.314883,1172.423
191,0.31655,1172.423
192,0.318217,1171.455
193,0.319883,1176.074
194,0.32155,1176.521
195,0.323217,1176.521
196,0.324883,1173.765
197,0.32655,1176.819
198,0.328317,1179.352
199,0.329883,1179.352
200,0.33155,1182.631
201,0.333217,1189.932
202,0.334883,1189.932
203,0.33655,1195.744
204,0.338217,1199.245
205,0.339883,1210.57
206,0.34155,1210.57
207,0.343233,1218.244
208,0.344883,1229.495
209,0.34655,1246.929
210,0.348217,1246.929
211,0.349883,1261.756
212,0.35155,1283.064
213,0.353217,1307.13
214,0.354883,1307.13
215,0.35655,1332.089
216,0.358217,1366.585
217,0.359883,1366.585
218,0.36165,1404.732
219,0.363233,1448.989
220,0.364883,1499.727
221,0.36655,1499.727
222,0.368217,1556.426
223,0.369883,1619.905
224,0.371533,1687.706
225,0.3732,1687.706
226,0.374867,1766.905
227,0.376533,1846.626
228,0.3782,1936.331
229,0.379867,1936.331
230,0.381533,2038.628
231,0.3832,2146.736
232,0.384867,2146.736
233,0.386533,2267.659
234,0.3882,2398.789
235,0.389867,2538.636
236,0.391533,2538.636
237,0.3932,2689.809
238,0.394867,2853.87
239,0.396533,3036.559
240,0.3982,3036.559
241,0.399867,3239.661
242,0.401533,3477.633
243,0.4032,3759.563
244,0.404867,3759.563
245,0.406533,4103.258
246,0.4082,4538.372
247,0.409867,4538.372
248,0.411533,5099.476
249,0.4132,5843.192
250,0.414867,6831.438
251,0.416533,6831.438
252,0.4182,8142.069
253,0.419867,9864.567999999999
254,0.421533,12090.43
255,0.4232,12090.43
256,0.424867,14907.047
257,0.426533,18402.563
258,0.4282,22637.248
259,0.429867,22637.248
260,0.431533,27634.725
261,0.433183,33373.609
262,0.43485,39752.5
263,0.436517,39752.5
264,0.438183,46610.832
265,0.43985,53736.867
266,0.441517,53736.867
267,0.443183,60879.141
268,0.44485,67779.04700000001
269,0.44655,74183.344
270,0.448183,74183.344
271,0.44985,79879.31299999999
272,0.451517,84694.54700000001
273,0.453183,88506.56299999999
274,0.45485,88506.56299999999
275,0.456517,91252.031
276,0.458183,92904.04700000001
277,0.45985,93486.977
278,0.461517,93486.977
279,0.463183,93071.758
280,0.46485,91756.281
281,0.466517,91756.281
282,0.468183,89658.273
283,0.46985,86909.67999999999
284,0.471517,83647.148
285,0.473183,83647.148
286,0.47485,80004.258
287,0.476517,76107.461
288,0.478183,72074.31299999999
289,0.4799,72074.31299999999
290,0.481517,67998.469
291,0.483183,63959.434
292,0.48485,60024.484
293,0.486517,60024.484
294,0.488183,56239.219
295,0.48985,52640.141
296,0.491533,49247.219
297,0.493167,49247.219
298,0.494833,46072.008
299,0.4965,43114.648
300,0.498167,43114.648
301,0.499833,40373.727
302,0.5014999999999999,37840.457
303,0.503167,35511.328
304,0.504833,35511.328
305,0.5065,33372.938
306,0.508167,31412.467
307,0.509833,29618.367
308,0.5115,29618.367
309,0.513167,27972.832
310,0.514833,26464.238
311,0.516483,25080.07
312,0.51815,25080.07
313,0.519817,23807.064
314,0.521483,22632.256
315,0.52315,22632.256
316,0.524817,21550.953
317,0.526483,20552.055
318,0.52815,19624.904
319,0.529817,19624.904
320,0.531483,18763.84
321,0.53315,17959.848
322,0.534817,17201.752
323,0.536483,17201.752
324,0.538167,16493.723
325,0.539817,15829.205
326,0.541483,15200.898
327,0.543167,15200.898
328,0.544817,14611.557
329,0.5464830000000001,14055.297
330,0.54815,14055.297
331,0.549817,13526.529
332,0.551467,13030.991
333,0.553133,12560.412
334,0.5548,12560.412
335,0.556467,12112.781
336,0.558133,11688.173
337,0.5598,11282.042
338,0.561467,11282.042
339,0.563167,10897.89
340,0.56485,10528.415
341,0.5664670000000001,10175.705
342,0.568133,10175.705
343,0.5698,9836.331
344,0.5714669999999999,9508.804
345,0.573133,9199.307000000001
346,0.5748,9199.307000000001
347,0.576467,8902.102999999999
348,0.578133,8614.659
349,0.5798,8614.659
350,0.581467,8338.839
351,0.583133,8077.1
352,0.5848,7826.984
353,0.586467,7826.984
354,0.588133,7591.024
355,0.5898,7362.962
356,0.591467,7140.413
357,0.593133,7140.413
358,0.5948,6926.432
359,0.596467,6719.753
360,0.598233,6522.983
361,0.5998,6522.983
362,0.601467,6333.515
363,0.603133,6152.987
364,0.6048,6152.987
365,0.606467,5975.291
366,0.608133,5806.759
367,0.6098,5645.454
368,0.61145,5645.454
369,0.613117,5487.427
370,0.614783,5338.862
371,0.6164500000000001,5193.129
372,0.618117,5193.129
373,0.619783,5055.666
374,0.6214499999999999,4926.92
375,0.623117,4801.377
376,0.624783,4801.377
377,0.62645,4681.87
378,0.628117,4564.896
379,0.629783,4449.859
380,0.63145,4449.859
381,0.6331329999999999,4344.136
382,0.634833,4241.02
383,0.63645,4241.02
384,0.638117,4141.629
385,0.639783,4047.975
386,0.64145,3952.906
387,0.643117,3952.906
388,0.644783,3861.785
389,0.64645,3772.825
390,0.6481170000000001,3685.43
391,0.649783,3685.43
392,0.65145,3603.92
393,0.6531169999999999,3527.85
394,0.654783,3453.046
395,0.65645,3453.046
396,0.658117,3384.65
397,0.659783,3318.265
398,0.66145,3318.265
399,0.663117,3253.073
400,0.664783,3191.009
401,0.66645,3129.169
402,0.668117,3129.169
403,0.669783,3072.247
404,0.67145,3017.187
405,0.6731,2963.319
406,0.674767,2963.319
407,0.676433,2909.452
408,0.6781,2856.627
409,0.679767,2807.677
410,0.681433,2807.677
411,0.683167,2761.409
412,0.684767,2716.854
413,0.686433,2672.225
414,0.6881,2672.225
415,0.689767,2626.628
416,0.691433,2586.618
417,0.6931,2586.618
418,0.694767,2546.161
419,0.696433,2509.654
420,0.6981000000000001,2474.487
421,0.699767,2474.487
422,0.701433,2434.775
423,0.7030999999999999,2401.471
424,0.7048,2367.571
425,0.706433,2367.571
426,0.7081,2333.224
427,0.709767,2305.21
428,0.711433,2272.651
429,0.7131,2272.651
430,0.714767,2241.284
431,0.716533,2211.705
432,0.7181,2211.705
433,0.719767,2181.083
434,0.721433,2157.837
435,0.7231,2132.803
436,0.7247670000000001,2132.803
437,0.726433,2110.079
438,0.7281,2085.045
439,0.7297670000000001,2059.117
440,0.731433,2059.117
441,0.7332,2034.307
442,0.73475,2010.837
443,0.736417,1989.677
444,0.738083,1989.677
445,0.73975,1969.859
446,0.741417,1950.711
447,0.743083,1929.7
448,0.74475,1929.7
449,0.746417,1913.831
450,0.7480830000000001,1895.875
451,0.74975,1895.875
452,0.751417,1876.652
453,0.7530829999999999,1861.379
454,0.75475,1846.105
455,0.756417,1846.105
456,0.758083,1829.267
457,0.75975,1817.048
458,0.761417,1803.115
459,0.763083,1803.115
460,0.76475,1789.182
461,0.766433,1773.983
462,0.768083,1757.592
463,0.76975,1757.592
464,0.771417,1742.542
465,0.773083,1725.107
466,0.77475,1725.107
467,0.776433,1711.92
468,0.778133,1698.509
469,0.7797500000000001,1687.035
470,0.781417,1687.035
471,0.783083,1676.753
472,0.7847499999999999,1668.11
473,0.786417,1659.393
474,0.788083,1659.393
475,0.78975,1648.888
476,0.791417,1637.265
477,0.793067,1627.877
478,0.794733,1627.877
479,0.7964,1618.266
480,0.798067,1609.474
481,0.799733,1609.474
482,0.8014,1602.396
483,0.803067,1591.295
484,0.804733,1580.641
485,0.8064,1580.641
486,0.80805,1569.018
487,0.809717,1560.152
488,0.811383,1552.552
489,0.8130500000000001,1552.552
490,0.814717,1545.846
491,0.816383,1539.066
492,0.818083,1529.53
493,0.819717,1529.53
494,0.821383,1521.558
495,0.8230499999999999,1513.287
496,0.824717,1506.731
497,0.826383,1506.731
498,0.82805,1501.068
499,0.829717,1493.469
500,0.831383,1493.469
501,0.83305,1487.061
502,0.8348,1479.536
503,0.836383,1472.16
504,0.83805,1472.16
505,0.839717,1466.051
506,0.841383,1461.282
507,0.84305,1455.322
508,0.8447170000000001,1455.322
509,0.846383,1452.938
510,0.84805,1448.169
511,0.8497169999999999,1441.911
512,0.85145,1441.911
513,0.853033,1438.782
514,0.854733,1433.715
515,0.856367,1433.715
516,0.858033,1429.468
517,0.8597,1424.924
518,0.861367,1420.304
519,0.8630330000000001,1420.304
520,0.8647,1413.301
521,0.866367,1407.787
522,0.8680330000000001,1404.732
523,0.8697,1404.732
524,0.871367,1402.05
525,0.8730329999999999,1397.729
526,0.8747,1393.78
527,0.876367,1393.78
528,0.878033,1389.012
529,0.8797,1383.126
530,0.881367,1378.357
531,0.883033,1378.357
532,0.8847,1373.813
533,0.886367,1371.801
534,0.888033,1371.801
535,0.8897,1365.915
536,0.891367,1361.817
537,0.893033,1358.166
538,0.8947000000000001,1358.166
539,0.896367,1353.696
540,0.898033,1352.951
541,0.8997000000000001,1351.088
542,0.901367,1351.088
543,0.903033,1350.12
544,0.9046999999999999,1346.692
545,0.906367,1345.053
546,0.908033,1345.053
547,0.9097,1341.999
548,0.91135,1336.634
549,0.913017,1336.634
550,0.914683,1333.356
551,0.91635,1330.003
552,0.918017,1326.501
553,0.919733,1326.501
554,0.921383,1324.937
555,0.923017,1324.266
556,0.924683,1321.51
557,0.92635,1321.51
558,0.928017,1318.231
559,0.929683,1315.102
560,0.93135,1309.663
561,0.933017,1309.663
562,0.934683,1307.353
563,0.9363669999999999,1307.279
564,0.938017,1305.565
565,0.939683,1305.565
566,0.941367,1307.055
567,0.943017,1306.534
568,0.9446830000000001,1306.534
569,0.94635,1303.852
570,0.948017,1300.722
571,0.9496830000000001,1298.04
572,0.95135,1298.04
573,0.953067,1292.75
574,0.9546829999999999,1291.335
575,0.95635,1291.856
576,0.958017,1291.856
577,0.959683,1291.037
578,0.96135,1291.484
579,0.963017,1291.335
580,0.964683,1291.335
581,0.96635,1287.684
582,0.968017,1282.245
583,0.96975,1278.743
584,0.971333,1278.743
585,0.973,1275.167
586,0.974667,1276.433
587,0.976333,1276.433
588,0.978,1273.9
589,0.979667,1271.591
590,0.981333,1271.069
591,0.983,1271.069
592,0.984667,1269.132
593,0.986333,1272.112
594,0.988,1273.006
595,0.989667,1273.006
596,0.991333,1268.238
597,0.9930330000000001,1265.109
598,0.994667,1265.109
599,0.996333,1260.117
600,0.998,1256.466
601,0.999667,1257.881
602,1.001333,1257.881
603,1.003,1256.54
604,1.004667,1254.305
605,1.006333,1256.391
606,1.008,1256.391
607,1.009667,1254.901
608,1.011333,1255.274
609,1.013,1255.721
610,1.014667,1255.721
611,1.016333,1251.549
612,1.018,1249.537
613,1.019667,1248.866
614,1.021333,1248.866
615,1.023,1249.164
616,1.024667,1251.996
617,1.026333,1251.996
618,1.028,1251.25
619,1.029667,1246.929
620,1.031333,1244.843
621,1.032983,1244.843
622,1.03465,1241.341
623,1.036317,1240.596
624,1.037983,1240.373
625,1.03965,1240.373
626,1.041317,1239.031
627,1.042983,1238.436
628,1.04465,1237.467
629,1.046317,1237.467
630,1.047983,1236.722
631,1.04965,1237.765
632,1.051317,1237.765
633,1.052983,1237.467
634,1.0547,1238.212
635,1.056317,1239.628
636,1.057983,1239.628
637,1.05965,1239.702
638,1.061317,1239.33
639,1.063017,1239.404
640,1.064667,1239.404
641,1.066317,1235.157
642,1.067983,1233.965
643,1.06965,1230.538
644,1.071317,1230.538
645,1.072983,1230.612
646,1.07465,1233.667
647,1.076317,1232.326
648,1.077983,1232.326
649,1.07965,1232.326
650,1.081317,1230.463
651,1.082983,1230.463
652,1.08465,1227.707
653,1.086317,1228.75
654,1.08805,1231.953
655,1.08965,1231.953
656,1.091317,1232.401
657,1.092967,1231.283
658,1.094633,1227.856
659,1.0963,1227.856
660,1.09795,1223.385
661,1.099617,1221.15
662,1.101283,1221.672
663,1.10295,1221.672
664,1.104617,1221.374
665,1.106283,1221.15
666,1.10795,1221.15
667,1.109617,1218.692
668,1.111283,1216.531
669,1.11295,1214.594
670,1.114617,1214.594
671,1.1163,1214.519
672,1.11795,1215.86
673,1.119617,1217.723
674,1.121283,1217.723
675,1.12295,1218.766
676,1.124617,1218.17
677,1.126283,1216.829
678,1.12795,1216.829
679,1.129617,1215.041
680,1.1313,1216.158
681,1.13295,1217.276
682,1.134617,1217.276
683,1.136283,1217.201
684,1.13795,1216.605
685,1.139617,1216.605
686,1.141283,1217.201
687,1.142967,1213.327
688,1.144617,1210.57
689,1.146283,1210.57
690,1.14795,1211.613
691,1.1496,1209.751
692,1.151267,1214.37
693,1.152933,1214.37
694,1.1546,1216.233
695,1.156267,1217.648
696,1.157933,1216.978
697,1.1596,1216.978
698,1.161267,1215.115
699,1.162933,1215.19
700,1.1646,1215.19
701,1.166267,1212.582
702,1.167933,1210.645
703,1.1696,1210.049
704,1.171267,1210.049
705,1.172983,1211.688
706,1.1746,1211.539
707,1.176267,1211.092
708,1.177933,1211.092
709,1.1796,1208.112
710,1.181267,1203.79
711,1.182933,1203.12
712,1.1846,1203.12
713,1.186267,1204.386
714,1.187933,1208.186
715,1.189633,1211.315
716,1.191267,1211.315
717,1.192933,1213.402
718,1.1946,1215.339
719,1.196267,1215.339
720,1.197933,1213.253
721,1.1996,1212.359
722,1.201283,1209.527
723,1.202933,1209.527
724,1.2046,1206.92
725,1.206367,1206.1
726,1.207933,1204.386
727,1.2096,1204.386
728,1.21125,1203.865
729,1.212917,1203.12
730,1.214583,1201.779
731,1.21625,1201.779
732,1.217917,1201.034
733,1.219583,1199.767
734,1.22125,1199.767
735,1.222917,1198.351
736,1.224583,1199.916
737,1.22625,1200.512
738,1.227917,1200.512
739,1.229583,1200.959
740,1.23125,1201.63
741,1.232917,1200.661
742,1.234583,1200.661
743,1.236267,1199.469
744,1.237917,1200.661
745,1.239583,1201.332
746,1.24125,1201.332
747,1.242917,1201.481
748,1.244583,1204.088
749,1.24625,1204.088
750,1.247917,1205.057
751,1.249583,1205.727
752,1.25125,1202.598
753,1.252917,1202.598
754,1.254583,1197.383
755,1.25625,1195.818
756,1.257917,1196.489
757,1.259583,1196.489
758,1.26125,1201.481
759,1.262917,1202.375
760,1.264583,1199.693
761,1.26625,1199.693
762,1.267917,1198.053
763,1.269583,1194.924
764,1.27125,1197.308
765,1.2729,1197.308
766,1.2746,1198.873
767,1.276233,1197.159
768,1.2779,1197.159
769,1.279567,1197.755
770,1.281233,1197.085
771,1.2829,1197.532
772,1.284567,1197.532
773,1.286233,1198.128
774,1.2879,1195.893
775,1.289567,1192.093
776,1.2913,1192.093
777,1.2929,1188.442
778,1.294567,1190.603
779,1.296233,1192.242
780,1.2979,1192.242
781,1.299567,1193.807
782,1.301233,1195.148
783,1.3029,1195.148
784,1.304567,1193.434
785,1.306233,1191.273
786,1.3079,1191.124
787,1.309567,1191.124
788,1.311233,1191.497
789,1.3129,1191.795
790,1.314567,1192.242
791,1.316233,1192.242
792,1.3179,1192.465
793,1.319567,1192.242
794,1.321233,1191.348
795,1.3229,1191.348
796,1.324667,1193.359
797,1.326233,1195.967
798,1.3279,1199.022
799,1.329567,1199.022
800,1.331233,1197.904
801,1.332883,1197.755
802,1.33455,1197.755
803,1.336217,1195.669
804,1.337883,1192.465
805,1.33955,1190.603
806,1.341217,1190.603
807,1.342883,1190.007
808,1.344567,1188.889
809,1.346217,1187.026
810,1.347883,1187.026
811,1.34955,1188.964
812,1.351217,1186.43
813,1.352883,1188.442
814,1.35455,1188.442
815,1.356217,1191.571
816,1.357883,1189.783
817,1.35955,1189.783
818,1.361217,1189.932
819,1.362883,1187.995
820,1.36455,1188.144
821,1.366217,1188.144
822,1.367883,1188.889
823,1.36955,1189.187
824,1.371217,1190.677
825,1.372883,1190.677
826,1.37455,1189.411
827,1.376217,1191.199
828,1.377883,1192.167
829,1.37955,1192.167
830,1.381217,1190.975
831,1.382883,1192.54
832,1.38455,1192.54
833,1.386217,1189.709
834,1.387883,1188.74
835,1.389533,1188.517
836,1.391183,1188.517
837,1.39285,1186.877
838,1.394517,1185.387
839,1.3962,1185.834
840,1.39785,1185.834
841,1.399517,1187.623
842,1.401183,1185.909
843,1.40285,1189.038
844,1.404517,1189.038
845,1.406183,1187.324
846,1.40785,1184.195
847,1.409567,1184.568
848,1.411183,1184.568
849,1.41285,1183.376
850,1.414517,1187.324
851,1.416183,1187.324
852,1.41785,1188.74
853,1.419517,1191.571
854,1.421183,1189.709
855,1.42285,1189.709
856,1.424517,1185.909
857,1.426183,1183.376
858,1.42785,1177.937
859,1.429517,1177.937
860,1.431183,1181.96
861,1.43285,1182.407
862,1.434517,1187.25
863,1.436183,1187.25
864,1.43785,1190.975
865,1.439517,1189.932
866,1.441183,1189.932
867,1.442933,1189.262
868,1.444517,1186.579
869,1.446183,1185.536
870,1.44785,1185.536
871,1.449517,1185.611
872,1.451167,1185.834
873,1.452833,1185.536
874,1.4545,1185.536
875,1.456167,1187.25
876,1.457833,1188.219
877,1.4595,1191.795
878,1.461167,1191.795
879,1.462833,1192.987
880,1.4645,1191.348
881,1.466167,1187.846
882,1.467833,1187.846
883,1.4695,1180.992
884,1.471167,1179.054
885,1.472833,1179.054
886,1.4745,1180.545
887,1.476167,1183.227
888,1.477833,1186.654
889,1.4795,1186.654
890,1.481167,1184.27
891,1.48285,1182.035
892,1.4845,1178.98
893,1.486167,1178.98
894,1.487833,1179.203
895,1.4895,1182.184
896,1.491167,1181.588
897,1.492833,1181.588
898,1.4945,1183.376
899,1.496167,1180.246
900,1.497833,1180.246
901,1.4995,1179.054
902,1.501167,1180.917
903,1.502833,1178.831
904,1.5045,1178.831
905,1.506167,1181.513
906,1.507833,1183.376
907,1.5095,1181.588
908,1.51115,1181.588
909,1.512817,1183.45
910,1.514483,1183.674
