"ID","sea_time","fid_signal"
1,0,38.439
2,0.001667,38.438
3,0.003333,38.438
4,0.005,38.444
5,0.0067,38.378
6,0.008333,38.2
7,0.01,38.2
8,0.011667,37.974
9,0.013333,37.813
10,0.015033,37.788
11,0.016667,37.788
12,0.018333,37.941
13,0.02,38.145
14,0.021667,38.273
15,0.023367,38.273
16,0.025,38.347
17,0.026667,38.34
18,0.028333,38.34
19,0.03,38.338
20,0.03165,38.332
21,0.033317,38.324
22,0.034983,38.324
23,0.03665,38.36
24,0.038317,38.406
25,0.040083,38.443
26,0.04165,38.443
27,0.043317,38.413
28,0.044983,38.408
29,0.04665,38.38
30,0.048317,38.38
31,0.049983,38.372
32,0.05165,38.409
33,0.053317,38.389
34,0.054983,38.389
35,0.05665,38.356
36,0.058317,38.362
37,0.06,38.362
38,0.06165,38.365
39,0.063317,38.402
40,0.064983,38.429
41,0.06665,38.429
42,0.068317,38.42
43,0.069983,38.416
44,0.07165000000000001,38.407
45,0.07331699999999999,38.407
46,0.07498299999999999,38.421
47,0.07665,38.416
48,0.078317,38.411
49,0.079983,38.411
50,0.08165,38.414
51,0.083317,38.4
52,0.084983,38.4
53,0.08666699999999999,38.408
54,0.08831700000000001,38.403
55,0.08998299999999999,38.406
56,0.09163300000000001,38.406
57,0.09329999999999999,38.438
58,0.094967,38.446
59,0.096633,38.482
60,0.0983,38.482
61,0.099967,38.475
62,0.101633,38.426
63,0.1033,38.413
64,0.104967,38.413
65,0.106633,38.378
66,0.1083,38.371
67,0.109967,38.371
68,0.111633,38.411
69,0.1133,38.421
70,0.114967,38.42
71,0.116633,38.42
72,0.1183,38.429
73,0.119967,38.407
74,0.121633,38.393
75,0.1233,38.393
76,0.125033,38.368
77,0.126633,38.347
78,0.1283,38.353
79,0.129967,38.353
80,0.131633,38.355
81,0.1333,38.377
82,0.134967,38.417
83,0.136633,38.417
84,0.1383,38.415
85,0.139983,38.424
86,0.141633,38.424
87,0.1433,38.424
88,0.144967,38.412
89,0.146633,38.449
90,0.1483,38.449
91,0.14995,38.436
92,0.151617,38.442
93,0.153283,38.431
94,0.15495,38.431
95,0.156617,38.401
96,0.1584,38.414
97,0.15995,38.432
98,0.161617,38.432
99,0.163283,38.438
100,0.164983,38.429
101,0.166617,38.429
102,0.168283,38.397
103,0.16995,38.38
104,0.171617,38.408
105,0.173283,38.408
106,0.17495,38.414
107,0.176617,38.428
108,0.178283,38.402
109,0.17995,38.402
110,0.181617,38.35
111,0.183283,38.33
112,0.18495,38.344
113,0.186617,38.344
114,0.188283,38.355
115,0.18995,38.38
116,0.191617,38.406
117,0.193283,38.406
118,0.19495,38.375
119,0.196617,38.376
120,0.198283,38.376
121,0.19995,38.352
122,0.201617,38.318
123,0.203283,38.324
124,0.20495,38.324
125,0.206617,38.3
126,0.208283,38.283
127,0.209933,38.281
128,0.2116,38.281
129,0.213267,38.28
130,0.214933,38.298
131,0.2166,38.298
132,0.218267,38.298
133,0.219933,38.319
134,0.2216,38.312
135,0.223283,38.312
136,0.224933,38.322
137,0.2266,38.33
138,0.228267,38.335
139,0.22995,38.335
140,0.2316,38.377
141,0.233267,38.398
142,0.234933,38.421
143,0.2366,38.421
144,0.238267,38.423
145,0.239917,38.417
146,0.241583,38.41
147,0.243317,38.41
148,0.244917,38.42
149,0.246583,38.403
150,0.24825,38.379
151,0.249917,38.379
152,0.251583,38.359
153,0.25325,38.33
154,0.254917,38.33
155,0.256583,38.308
156,0.25825,38.297
157,0.259917,38.275
158,0.261583,38.275
159,0.26325,38.289
160,0.264917,38.322
161,0.266583,38.344
162,0.26825,38.344
163,0.269917,38.378
164,0.271567,38.393
165,0.273233,38.382
166,0.2749,38.382
167,0.2767,38.388
168,0.278233,38.354
169,0.2799,38.354
170,0.281567,38.324
171,0.283233,38.312
172,0.2849,38.314
173,0.286567,38.314
174,0.288233,38.318
175,0.2899,38.312
176,0.291567,38.349
177,0.293233,38.349
178,0.2949,38.344
179,0.296567,38.354
180,0.298233,38.367
181,0.2999,38.367
182,0.301567,38.341
183,0.303283,38.345
184,0.3049,38.345
185,0.306567,38.369
186,0.308233,38.415
187,0.3099,38.439
188,0.311567,38.439
189,0.313233,38.437
190,0.3149,38.404
191,0.316567,38.352
192,0.318233,38.352
193,0.3199,38.312
194,0.321567,38.292
195,0.323233,38.309
196,0.3249,38.309
197,0.326567,38.332
198,0.328233,38.365
199,0.329883,38.394
200,0.33155,38.394
201,0.333217,38.43
202,0.334883,38.428
203,0.33655,38.428
204,0.338217,38.414
205,0.339883,38.376
206,0.34155,38.316
207,0.343217,38.316
208,0.344883,38.323
209,0.34655,38.365
210,0.348217,38.391
211,0.349883,38.391
212,0.35155,38.445
213,0.353217,38.42
214,0.354883,38.39
215,0.35655,38.39
216,0.358217,38.396
217,0.359883,38.377
218,0.3616,38.409
219,0.363217,38.409
220,0.364883,38.409
221,0.36655,38.441
222,0.368217,38.441
223,0.369883,38.445
224,0.37155,38.435
225,0.373233,38.453
226,0.374933,38.453
227,0.37655,38.452
228,0.378217,38.485
229,0.379883,38.529
230,0.38155,38.529
231,0.383217,38.553
232,0.384883,38.569
233,0.38655,38.613
234,0.388217,38.613
235,0.389867,38.642
236,0.391533,38.703
237,0.3932,38.703
238,0.395,38.766
239,0.396533,38.841
240,0.3982,38.932
241,0.399867,38.932
242,0.401533,39.035
243,0.4032,39.172
244,0.404867,39.306
245,0.406533,39.306
246,0.4082,39.479
247,0.409867,39.655
248,0.411533,39.875
249,0.4132,39.875
250,0.414867,40.14
251,0.416533,40.476
252,0.4182,40.476
253,0.419867,40.898
254,0.421533,41.371
255,0.4232,41.916
256,0.424867,41.916
257,0.426533,42.53
258,0.4282,43.202
259,0.429867,43.988
260,0.431533,43.988
261,0.4332,44.893
262,0.434867,45.951
263,0.436533,47.182
264,0.4382,47.182
265,0.439867,48.564
266,0.441533,50.114
267,0.443233,51.874
268,0.444867,51.874
269,0.446533,53.886
270,0.4482,56.154
271,0.449867,56.154
272,0.451517,58.778
273,0.453217,61.7
274,0.45485,64.989
275,0.456517,64.989
276,0.458183,68.72799999999999
277,0.45985,72.922
278,0.461517,77.667
279,0.4632,77.667
280,0.46485,82.97499999999999
281,0.466517,88.913
282,0.468183,95.55
283,0.46985,95.55
284,0.471517,102.958
285,0.473183,111.208
286,0.47485,111.208
287,0.476517,120.369
288,0.478183,130.5
289,0.47985,141.638
290,0.481517,141.638
291,0.483183,153.866
292,0.48485,167.184
293,0.486517,181.673
294,0.488183,181.673
295,0.48985,197.373
296,0.491517,214.288
297,0.493183,232.476
298,0.49485,232.476
299,0.496617,251.901
300,0.498183,272.539
301,0.49985,294.423
302,0.501517,294.423
303,0.503183,317.512
304,0.50485,341.734
305,0.506517,341.734
306,0.5081830000000001,367.081
307,0.50985,393.407
308,0.5115,420.661
309,0.5132330000000001,420.661
310,0.514833,448.766
311,0.5165,477.631
312,0.518167,507.184
313,0.519833,507.184
314,0.5215,537.308
315,0.523167,567.8630000000001
316,0.524833,598.796
317,0.5265,598.796
318,0.5281670000000001,629.942
319,0.529833,661.204
320,0.531483,661.204
321,0.53315,692.496
322,0.534817,723.705
323,0.536483,754.769
324,0.53815,754.769
325,0.539817,785.583
326,0.541483,816.066
327,0.54315,846.0890000000001
328,0.544817,846.0890000000001
329,0.5464830000000001,875.6
330,0.54815,904.457
331,0.549817,932.707
332,0.5514829999999999,932.707
333,0.55315,960.234
334,0.554817,986.996
335,0.5564829999999999,986.996
336,0.55815,1012.959
337,0.559817,1037.98
338,0.561483,1062.05
339,0.56315,1062.05
340,0.564817,1085.17
341,0.566483,1107.379
342,0.56815,1128.586
343,0.5698,1128.586
344,0.5714669999999999,1148.871
345,0.573133,1168.172
346,0.5748,1186.458
347,0.576467,1186.458
348,0.578133,1203.76
349,0.5798,1219.999
350,0.581467,1235.242
351,0.583133,1235.242
352,0.5848,1249.521
353,0.586467,1262.826
354,0.588133,1262.826
355,0.5898,1275.263
356,0.591467,1286.761
357,0.593133,1297.314
358,0.5948,1297.314
359,0.596467,1307.015
360,0.598183,1315.805
361,0.5998,1323.763
362,0.601467,1323.763
363,0.603133,1330.926
364,0.6048,1337.271
365,0.606467,1342.854
366,0.608133,1342.854
367,0.6098,1347.656
368,0.611467,1351.724
369,0.613133,1351.724
370,0.61485,1355.145
371,0.616467,1357.85
372,0.618133,1359.928
373,0.6198,1359.928
374,0.621467,1361.43
375,0.623133,1362.325
376,0.6248,1362.678
377,0.626467,1362.678
378,0.62815,1362.526
379,0.629783,1361.905
380,0.6315499999999999,1360.759
381,0.633117,1360.759
382,0.634783,1359.164
383,0.63645,1357.138
384,0.638133,1354.586
385,0.639783,1354.586
386,0.64145,1351.676
387,0.643117,1348.454
388,0.644783,1348.454
389,0.64645,1344.842
390,0.648167,1340.921
391,0.649783,1336.706
392,0.65145,1336.706
393,0.6531169999999999,1332.171
394,0.654783,1327.331
395,0.65645,1322.252
396,0.658117,1322.252
397,0.659783,1316.937
398,0.66145,1311.401
399,0.663117,1305.667
400,0.664783,1305.667
401,0.66645,1299.745
402,0.668117,1293.621
403,0.669783,1293.621
404,0.67145,1287.27
405,0.673117,1280.808
406,0.674783,1274.184
407,0.67645,1274.184
408,0.678117,1267.403
409,0.679783,1260.568
410,0.68145,1253.62
411,0.683117,1253.62
412,0.684783,1246.579
413,0.68645,1239.429
414,0.688117,1232.166
415,0.689767,1232.166
416,0.691433,1224.809
417,0.6931,1217.352
418,0.694767,1217.352
419,0.696433,1209.836
420,0.6981000000000001,1202.238
421,0.699767,1194.566
422,0.701433,1194.566
423,0.7030999999999999,1186.873
424,0.704767,1179.138
425,0.706433,1171.42
426,0.7081,1171.42
427,0.709767,1163.661
428,0.711433,1155.88
429,0.7131,1148.099
430,0.7147829999999999,1148.099
431,0.716433,1140.279
432,0.7181,1132.482
433,0.719767,1124.687
434,0.721433,1124.687
435,0.723133,1116.895
436,0.7247670000000001,1109.084
437,0.726433,1109.084
438,0.7281,1101.273
439,0.7297670000000001,1093.462
440,0.731433,1085.642
441,0.73315,1085.642
442,0.7347669999999999,1077.852
443,0.736433,1070.122
444,0.7381,1062.411
445,0.739767,1062.411
446,0.741433,1054.757
447,0.7431,1047.133
448,0.744767,1039.53
449,0.746433,1039.53
450,0.7481,1031.949
451,0.749817,1024.386
452,0.751417,1024.386
453,0.7530829999999999,1016.835
454,0.75475,1009.288
455,0.756417,1001.838
456,0.758083,1001.838
457,0.75975,994.433
458,0.761417,987.115
459,0.763083,979.83
460,0.76475,979.83
461,0.76655,972.574
462,0.768083,965.359
463,0.76975,958.158
464,0.771417,958.158
465,0.773083,950.9930000000001
466,0.77475,943.86
467,0.776417,936.7859999999999
468,0.778083,936.7859999999999
469,0.7797500000000001,929.771
470,0.781417,922.826
471,0.783083,922.826
472,0.7847499999999999,915.965
473,0.786417,909.133
474,0.788083,902.312
475,0.78975,902.312
476,0.791417,895.553
477,0.793083,888.798
478,0.794767,882.082
479,0.7964830000000001,882.082
480,0.798083,875.4450000000001
481,0.79975,868.841
482,0.801417,862.279
483,0.803083,862.279
484,0.80475,855.828
485,0.8064170000000001,849.409
486,0.808083,849.409
487,0.809733,843.034
488,0.8114,836.712
489,0.813067,830.365
490,0.814733,830.365
491,0.8164,824.08
492,0.818067,817.883
493,0.819733,811.749
494,0.8214,811.749
495,0.8230499999999999,805.6799999999999
496,0.824717,799.676
497,0.826383,793.679
498,0.82805,793.679
499,0.829717,787.722
500,0.831383,781.837
501,0.83305,776
502,0.83475,776
503,0.836383,770.248
504,0.83805,764.553
505,0.839717,764.553
506,0.841383,758.905
507,0.84305,753.292
508,0.8447170000000001,747.699
509,0.846383,747.699
510,0.84805,742.133
511,0.8497169999999999,736.625
512,0.851433,731.159
513,0.85305,731.159
514,0.8547169999999999,725.768
515,0.856383,720.452
516,0.85805,715.183
517,0.859717,715.183
518,0.861383,709.967
519,0.86305,704.763
520,0.864717,704.763
521,0.8663999999999999,699.576
522,0.86815,694.448
523,0.8697,689.34
524,0.871367,689.34
525,0.8730329999999999,684.271
526,0.8747,679.258
527,0.876367,674.275
528,0.878033,674.275
529,0.8797,669.397
530,0.881367,664.54
531,0.883033,659.756
532,0.88475,659.756
533,0.886367,654.966
534,0.888033,650.189
535,0.8897,650.189
536,0.891367,645.494
537,0.893033,640.8099999999999
538,0.8947000000000001,636.21
539,0.896367,636.21
540,0.898033,631.659
541,0.8997000000000001,627.129
542,0.901367,622.6420000000001
543,0.903033,622.6420000000001
544,0.9046999999999999,618.174
545,0.906367,613.717
546,0.908033,609.35
547,0.9097,609.35
548,0.911367,605.044
549,0.913033,600.764
550,0.9147,596.544
551,0.916367,596.544
552,0.918033,592.323
553,0.9197,588.119
554,0.921367,588.119
555,0.923033,584.003
556,0.9247,579.922
557,0.9263670000000001,575.9
558,0.928033,575.9
559,0.929683,571.912
560,0.93135,567.894
561,0.933017,563.9299999999999
562,0.934683,563.9299999999999
563,0.9363669999999999,559.989
564,0.938067,556.073
565,0.939683,552.237
566,0.94135,552.237
567,0.943017,548.402
568,0.9446830000000001,544.62
569,0.94635,544.62
570,0.948017,540.872
571,0.9496830000000001,537.15
572,0.95135,533.457
573,0.953017,533.457
574,0.9546829999999999,529.795
575,0.95635,526.1849999999999
576,0.958017,522.62
577,0.959683,522.62
578,0.96135,519.093
579,0.963017,515.578
580,0.964683,512.104
581,0.96635,512.104
582,0.968017,508.634
583,0.969767,505.184
584,0.97135,501.782
585,0.973017,501.782
586,0.974683,498.378
587,0.9763500000000001,495.017
588,0.978017,495.017
589,0.979683,491.72
590,0.9813499999999999,488.443
591,0.983017,485.233
592,0.984683,485.233
593,0.9863499999999999,482.009
594,0.988017,478.799
595,0.989667,475.58
596,0.991333,475.58
597,0.993,472.368
598,0.994667,469.26
599,0.996333,466.21
600,0.998,466.21
601,0.999667,463.215
602,1.001333,460.232
603,1.0031,457.25
604,1.004667,457.25
605,1.006333,454.268
606,1.008,451.313
607,1.009667,451.313
608,1.011367,448.392
609,1.013033,445.464
610,1.014667,442.553
611,1.016333,442.553
612,1.018,439.684
613,1.019667,436.868
614,1.021333,434.066
615,1.023,434.066
616,1.024667,431.304
617,1.026333,428.554
618,1.028,425.769
619,1.029667,425.769
620,1.031333,423.041
621,1.033,420.336
622,1.034667,420.336
623,1.036333,417.639
624,1.038,415.023
625,1.039667,412.44
626,1.041333,412.44
627,1.043,409.862
628,1.044667,407.299
629,1.046333,404.741
630,1.047983,404.741
631,1.049667,402.164
632,1.051317,399.624
633,1.052983,397.108
634,1.05465,397.108
635,1.056317,394.604
636,1.057983,392.139
637,1.05965,392.139
638,1.061317,389.7
639,1.062983,387.336
640,1.06465,384.99
641,1.066317,384.99
642,1.067983,382.669
643,1.06965,380.329
644,1.071317,377.978
645,1.072983,377.978
646,1.0747,375.664
647,1.076317,373.336
648,1.077983,371.098
649,1.07965,371.098
650,1.081317,368.835
651,1.082983,366.565
652,1.08465,364.365
653,1.086317,364.365
654,1.088033,362.158
655,1.08965,359.994
656,1.091317,359.994
657,1.092983,357.871
658,1.094667,355.738
659,1.096317,353.624
660,1.097983,353.624
661,1.09965,351.527
662,1.101317,349.417
663,1.102983,347.325
664,1.10465,347.325
665,1.106317,345.207
666,1.107967,343.136
667,1.10965,341.085
668,1.1113,341.085
669,1.11295,339.113
670,1.114617,337.168
671,1.116283,337.168
672,1.11795,335.206
673,1.119617,333.271
674,1.121367,331.304
675,1.12295,331.304
676,1.124617,329.384
677,1.126283,327.456
678,1.12795,325.572
679,1.129617,325.572
680,1.131283,323.676
681,1.13295,321.766
682,1.134617,319.912
683,1.136283,319.912
684,1.13795,318.043
685,1.139617,316.216
686,1.141283,316.216
687,1.14295,314.401
688,1.144617,312.61
689,1.146283,310.841
690,1.14795,310.841
691,1.149633,309.093
692,1.151283,307.351
693,1.15295,305.615
694,1.154617,305.615
695,1.156283,303.921
696,1.15795,302.211
697,1.159617,300.533
698,1.161283,300.533
699,1.16295,298.863
700,1.164617,297.184
701,1.166283,295.531
702,1.16795,295.531
703,1.169617,293.902
704,1.171267,292.28
705,1.172933,292.28
706,1.1746,290.635
707,1.176267,289.049
708,1.177933,287.466
709,1.1796,287.466
710,1.181267,285.902
711,1.182933,284.354
712,1.1846,282.779
713,1.186267,282.779
714,1.187933,281.193
715,1.1896,279.627
716,1.191267,278.114
717,1.192933,278.114
718,1.1946,276.591
719,1.196267,275.11
720,1.197933,275.11
721,1.1996,273.609
722,1.201267,272.126
723,1.202933,270.676
724,1.2046,270.676
725,1.206333,269.203
726,1.207933,267.754
727,1.2096,266.301
728,1.211267,266.301
729,1.212933,264.832
730,1.2146,263.426
731,1.216267,262.033
732,1.217933,262.033
733,1.2196,260.653
734,1.221267,259.295
735,1.22295,257.92
736,1.2246,257.92
737,1.226283,256.567
738,1.227933,255.206
739,1.229583,255.206
740,1.23125,253.878
741,1.232917,252.57
742,1.234583,251.275
743,1.23625,251.275
744,1.237917,249.988
745,1.2397,248.702
746,1.24125,247.409
747,1.242917,247.409
748,1.244583,246.105
749,1.24625,244.802
750,1.247917,243.527
751,1.249583,243.527
752,1.25125,242.264
753,1.252917,241.002
754,1.254583,241.002
755,1.25625,239.801
756,1.257917,238.59
757,1.259583,237.389
758,1.26125,237.389
759,1.262917,236.194
760,1.264583,234.97
761,1.26625,233.765
762,1.267917,233.765
763,1.2696,232.578
764,1.27125,231.411
765,1.272917,230.246
766,1.274583,230.246
767,1.27625,229.079
768,1.277917,227.913
769,1.279583,226.773
770,1.28125,226.773
771,1.282917,225.652
772,1.284583,224.542
773,1.28625,224.542
774,1.287917,223.434
775,1.289567,222.325
776,1.291233,221.247
777,1.2929,221.247
778,1.294567,220.167
779,1.296233,219.085
780,1.2979,218.038
781,1.299617,218.038
782,1.301233,216.955
783,1.3029,215.893
784,1.304567,214.849
785,1.306233,214.849
786,1.3079,213.767
787,1.309567,212.746
788,1.31125,212.746
789,1.3129,211.691
790,1.314567,210.646
791,1.316233,209.669
792,1.3179,209.669
793,1.319567,208.672
794,1.321233,207.708
795,1.3229,206.741
796,1.3246,206.741
797,1.326233,205.734
798,1.3279,204.71
799,1.329567,203.734
800,1.331233,203.734
801,1.3329,202.822
802,1.334567,201.876
803,1.336233,201.876
804,1.3379,200.933
805,1.339567,199.977
806,1.34135,198.986
807,1.3429,198.986
808,1.344567,198.058
809,1.346233,197.151
810,1.3479,196.245
811,1.34955,196.245
812,1.351217,195.343
813,1.352883,194.459
814,1.35455,193.579
815,1.356217,193.579
816,1.357967,192.701
817,1.35955,191.836
818,1.361217,190.95
819,1.362883,190.95
820,1.36455,190.072
821,1.366217,189.195
822,1.367883,189.195
823,1.36955,188.342
824,1.371217,187.504
825,1.372883,186.665
826,1.37455,186.665
827,1.376217,185.857
828,1.377883,184.996
829,1.37955,184.157
830,1.381217,184.157
831,1.382883,183.307
832,1.38455,182.474
833,1.386217,181.677
834,1.387883,181.677
835,1.38955,180.864
836,1.391217,180.066
837,1.392883,180.066
838,1.39455,179.279
839,1.396217,178.479
840,1.397883,177.696
841,1.39955,177.696
842,1.401217,176.938
843,1.402883,176.118
844,1.404533,175.374
845,1.4062,175.374
846,1.407867,174.616
847,1.409517,173.854
848,1.411183,173.108
849,1.41285,173.108
850,1.414517,172.354
851,1.416183,171.624
852,1.41785,170.914
853,1.419517,170.914
854,1.421183,170.238
855,1.42285,169.504
856,1.424517,169.504
857,1.426183,168.759
858,1.42785,168.025
859,1.429517,167.277
860,1.431183,167.277
861,1.43285,166.552
862,1.434517,165.874
863,1.436183,165.153
864,1.43785,165.153
865,1.439517,164.44
866,1.441183,163.735
867,1.4429,163.013
868,1.444533,163.013
869,1.446183,162.348
870,1.44785,161.675
871,1.449517,161.675
872,1.451183,160.997
873,1.45285,160.325
874,1.454517,159.647
875,1.456183,159.647
876,1.45785,158.987
877,1.459617,158.367
878,1.461183,157.73
879,1.46285,157.73
880,1.464517,157.072
881,1.466183,156.448
882,1.467833,155.792
883,1.4695,155.792
884,1.471167,155.136
885,1.472833,154.524
886,1.4745,154.524
887,1.476267,153.89
888,1.477833,153.281
889,1.4795,152.705
890,1.481167,152.705
891,1.482833,152.105
892,1.4845,151.519
893,1.486167,150.92
894,1.487833,150.92
895,1.4895,150.298
896,1.491167,149.688
897,1.49285,149.079
898,1.4945,149.079
899,1.496167,148.518
900,1.497833,147.965
901,1.4995,147.398
902,1.501167,147.398
903,1.502833,146.815
904,1.5045,146.212
905,1.506167,146.212
906,1.507833,145.637
907,1.5095,145.09
908,1.511167,144.54
909,1.512833,144.54
910,1.514517,144.002
911,1.516167,143.421
912,1.517833,142.852
913,1.5195,142.852
914,1.521167,142.281
915,1.522833,141.705
916,1.5245,141.174
917,1.526167,141.174
918,1.527833,140.624
919,1.529483,140.098
920,1.53115,140.098
921,1.532817,139.582
922,1.534483,139.055
923,1.53615,138.549
924,1.537817,138.549
925,1.539483,138.04
926,1.54115,137.516
927,1.542817,136.994
928,1.544483,136.994
929,1.54615,136.45
930,1.547817,135.93
931,1.549483,135.408
932,1.55115,135.408
933,1.552817,134.892
934,1.554483,134.391
935,1.55615,133.902
936,1.557817,133.902
937,1.559483,133.416
938,1.561183,132.923
939,1.562817,132.923
940,1.564483,132.429
941,1.56615,131.936
942,1.567817,131.474
943,1.569483,131.474
944,1.57115,131.018
945,1.572817,130.561
946,1.574483,130.091
947,1.57615,130.091
948,1.577833,129.633
949,1.579483,129.19
950,1.58115,128.739
951,1.582817,128.739
952,1.5845,128.308
953,1.58615,127.83
954,1.587817,127.83
955,1.589483,127.33
956,1.591133,126.85
957,1.5928,126.362
958,1.594517,126.362
959,1.596133,125.901
960,1.5978,125.466
961,1.599467,125.058
962,1.601133,125.058
963,1.6028,124.679
