"ID","sea_time","fid_signal"
1,0,1211.166
2,0.001667,1209.676
3,0.003333,1207.963
4,0.005,1204.163
5,0.006667,1204.163
6,0.008333,1197.904
7,0.01,1192.763
8,0.011667,1193.062
9,0.013333,1193.062
10,0.015,1190.603
11,0.016733,1190.081
12,0.018333,1192.018
13,0.02,1192.018
14,0.021667,1191.944
15,0.023333,1196.116
16,0.025,1196.116
17,0.026667,1199.916
18,0.028333,1204.237
19,0.03,1202.673
20,0.031667,1202.673
21,0.033383,1201.257
22,0.035,1199.767
23,0.03665,1197.532
24,0.038317,1197.532
25,0.039983,1198.798
26,0.04165,1201.108
27,0.043317,1203.12
28,0.044983,1203.12
29,0.04665,1202.077
30,0.048317,1202.449
31,0.050067,1199.469
32,0.05165,1199.469
33,0.053317,1197.383
34,0.054983,1197.308
35,0.05665,1197.308
36,0.058317,1194.775
37,0.059983,1194.626
38,0.06165,1194.999
39,0.063317,1194.999
40,0.064983,1194.104
41,0.06665,1196.638
42,0.068317,1198.873
43,0.07000000000000001,1198.873
44,0.07165000000000001,1196.489
45,0.07331699999999999,1196.861
46,0.07498299999999999,1196.712
47,0.07665,1196.712
48,0.078317,1193.21
49,0.079983,1194.403
50,0.081667,1194.403
51,0.083317,1192.54
52,0.084983,1189.187
53,0.08665,1191.273
54,0.08833299999999999,1191.273
55,0.08998299999999999,1193.136
56,0.09165,1195.669
57,0.093317,1197.904
58,0.094983,1197.904
59,0.096633,1196.414
60,0.0983,1194.626
61,0.099967,1194.626
62,0.101633,1194.626
63,0.1033,1194.552
64,0.104967,1195.446
65,0.106633,1195.446
66,0.1083,1195.297
67,0.109967,1195.669
68,0.111633,1195.371
69,0.1133,1195.371
70,0.114967,1194.85
71,0.116633,1195.297
72,0.1183,1197.234
73,0.119967,1197.234
74,0.121633,1197.681
75,0.1233,1195.52
76,0.124967,1192.391
77,0.126633,1192.391
78,0.1283,1190.305
79,0.129967,1189.336
80,0.131633,1189.336
81,0.1333,1191.199
82,0.134967,1193.732
83,0.136633,1194.403
84,0.1383,1194.403
85,0.139967,1193.583
86,0.141633,1191.72
87,0.1433,1191.795
88,0.144967,1191.795
89,0.146633,1190.081
90,0.1483,1191.124
91,0.149967,1191.05
92,0.1517,1191.05
93,0.1533,1191.497
94,0.154967,1192.987
95,0.156617,1193.583
96,0.158283,1193.583
97,0.159983,1195.371
98,0.161617,1196.265
99,0.163283,1196.265
100,0.16495,1193.732
101,0.166617,1193.807
102,0.1684,1191.944
103,0.16995,1191.944
104,0.171617,1187.474
105,0.173283,1187.921
106,0.17495,1185.76
107,0.176617,1185.76
108,0.178283,1185.611
109,0.17995,1186.952
110,0.181617,1187.324
111,0.183283,1187.324
112,0.18495,1186.952
113,0.186617,1186.579
114,0.188283,1186.579
115,0.18995,1186.654
116,0.191617,1186.952
117,0.193283,1188.293
118,0.19495,1188.293
119,0.196617,1190.007
120,0.198283,1191.199
121,0.19995,1191.646
122,0.201617,1191.646
123,0.203283,1190.379
124,0.20495,1191.646
125,0.206617,1192.018
126,0.208283,1192.018
127,0.20995,1188.591
128,0.211617,1186.579
129,0.213283,1185.76
130,0.21495,1185.76
131,0.216617,1183.972
132,0.218267,1183.674
133,0.219933,1183.674
134,0.2216,1187.623
135,0.223267,1187.474
136,0.224933,1185.685
137,0.2266,1185.685
138,0.228267,1186.281
139,0.229933,1184.493
140,0.231633,1182.482
141,0.233267,1182.482
142,0.234933,1183.823
143,0.2366,1184.419
144,0.238267,1183.674
145,0.239933,1183.674
146,0.2416,1186.132
147,0.243267,1185.983
148,0.244933,1185.983
149,0.2466,1185.462
150,0.248267,1182.78
151,0.249933,1180.321
152,0.2516,1180.321
153,0.253267,1181.513
154,0.254933,1184.94
155,0.2566,1189.485
156,0.258267,1189.485
157,0.259933,1190.826
158,0.2616,1191.348
159,0.263267,1190.677
160,0.264933,1190.677
161,0.266583,1188.815
162,0.26825,1188.442
163,0.269933,1187.026
164,0.271583,1187.026
165,0.27325,1186.505
166,0.274917,1187.101
167,0.276567,1187.101
168,0.278233,1184.568
169,0.2799,1187.474
170,0.281567,1184.866
171,0.283233,1184.866
172,0.2849,1186.952
173,0.286683,1192.167
174,0.288233,1189.634
175,0.2899,1189.634
176,0.291567,1190.677
177,0.293233,1191.944
178,0.2949,1190.156
179,0.296567,1190.156
180,0.298233,1188.74
181,0.2999,1188.815
182,0.301567,1188.815
183,0.303283,1185.089
184,0.3049,1182.109
185,0.306567,1183.078
186,0.308233,1183.078
187,0.3099,1185.089
188,0.311567,1187.921
189,0.313233,1188.666
190,0.3149,1188.666
191,0.316567,1187.772
192,0.318233,1185.462
193,0.3199,1185.015
194,0.321567,1185.015
195,0.323233,1187.772
196,0.3249,1190.975
197,0.326567,1190.975
198,0.328233,1194.85
199,0.3299,1194.775
200,0.331567,1193.583
201,0.333233,1193.583
202,0.3349,1195.669
203,0.33655,1197.383
204,0.338217,1204.982
205,0.339883,1204.982
206,0.34155,1218.244
207,0.343217,1232.624
208,0.344883,1247.302
209,0.34655,1247.302
210,0.348217,1267.865
211,0.349883,1288.205
212,0.35155,1308.62
213,0.353217,1308.62
214,0.354883,1335.144
215,0.35655,1362.711
216,0.358217,1362.711
217,0.359883,1397.58
218,0.36155,1439.303
219,0.363217,1487.732
220,0.364883,1487.732
221,0.36655,1541.525
222,0.368217,1603.216
223,0.369883,1670.867
224,0.371617,1670.867
225,0.373217,1744.479
226,0.374883,1824.126
227,0.37655,1910.776
228,0.378217,1910.776
229,0.379883,2006.441
230,0.38155,2114.4
231,0.383217,2114.4
232,0.384883,2234.429
233,0.38655,2361.164
234,0.388217,2501.458
235,0.389883,2501.458
236,0.39155,2651.066
237,0.393217,2816.245
238,0.394883,3002.51
239,0.396533,3002.51
240,0.3982,3214.926
241,0.399867,3468.32
242,0.401533,3781.095
243,0.4032,3781.095
244,0.404983,4184.991
245,0.406533,4726.5
246,0.4082,5471.259
247,0.409867,5471.259
248,0.411533,6505.772
249,0.4132,7940.978
250,0.414867,7940.978
251,0.416533,9907.334999999999
252,0.4182,12546.107
253,0.419867,16018.078
254,0.421533,16018.078
255,0.4232,20486.713
256,0.424867,26093.498
257,0.426533,32925.828
258,0.4282,32925.828
259,0.429867,40985.867
260,0.431533,50163.863
261,0.4332,60240.551
262,0.434867,60240.551
263,0.436533,70911.648
264,0.4382,81813.484
265,0.439867,81813.484
266,0.441533,92560.125
267,0.4432,102769.586
268,0.444867,112098.75
269,0.446567,112098.75
270,0.4482,120250.734
271,0.449867,126986.281
272,0.451533,132143.422
273,0.4532,132143.422
274,0.454867,135634.906
275,0.456517,137439.141
276,0.458183,137612.75
277,0.45985,137612.75
278,0.461517,136276.563
279,0.463183,133594.203
280,0.46485,129766.609
281,0.466517,129766.609
282,0.468183,125010.383
283,0.46985,119538.305
284,0.471517,119538.305
285,0.473183,113552.359
286,0.47485,107237.25
287,0.476517,100762.773
288,0.478183,100762.773
289,0.47985,94270.70299999999
290,0.481517,87884.07000000001
291,0.483183,81705.30499999999
292,0.484867,81705.30499999999
293,0.486517,75805.781
294,0.488183,70235.656
295,0.489917,65022.336
296,0.491517,65022.336
297,0.493183,60181.32
298,0.49485,55712.609
299,0.496517,55712.609
300,0.498183,51608.605
301,0.49985,47857.465
302,0.501517,44439.734
303,0.503183,44439.734
304,0.50485,41334.184
305,0.506517,38518.684
306,0.5081830000000001,35972.445
307,0.50985,35972.445
308,0.511517,33666.043
309,0.5131829999999999,31579.361
310,0.514833,29687.137
311,0.516517,29687.137
312,0.5182,27967.99
313,0.519833,26404.932
314,0.5215,26404.932
315,0.5233,24977.625
316,0.524833,23674.518
317,0.5265,22480.041
318,0.5281670000000001,22480.041
319,0.529833,21382.197
320,0.5315,20369.738
321,0.5331669999999999,19433.871
322,0.534833,19433.871
323,0.5365,18565.58
324,0.538167,17761.514
325,0.539833,17011.166
326,0.5415,17011.166
327,0.543167,16308.8
328,0.544833,15652.105
329,0.5465,15033.186
330,0.548167,15033.186
331,0.549833,14453.381
332,0.5515,13903.528
333,0.553167,13903.528
334,0.554833,13380.722
335,0.5565,12884.811
336,0.55815,12414.53
337,0.559817,12414.53
338,0.561483,11967.495
339,0.56315,11547.432
340,0.564817,11149.421
341,0.566483,11149.421
342,0.56815,10768.622
343,0.569817,10409.728
344,0.571483,10061.86
345,0.573133,10061.86
346,0.5748,9729.267
347,0.576467,9410.68
348,0.578133,9410.68
349,0.5798,9107.067999999999
350,0.581467,8817.389999999999
351,0.583133,8534.862999999999
352,0.584817,8534.862999999999
353,0.586467,8269.398999999999
354,0.588167,8010.566
355,0.5898,7763.58
356,0.591467,7763.58
357,0.593133,7531.419
358,0.5948,7302.761
359,0.596467,7082.298
360,0.598133,7082.298
361,0.5998,6871.969
362,0.601467,6670.729
363,0.603133,6477.386
364,0.6048,6477.386
365,0.606467,6293.133
366,0.6082,6116.405
367,0.6098,6116.405
368,0.611467,5943.552
369,0.613133,5778.745
370,0.6148,5621.835
371,0.616467,5621.835
372,0.618133,5470.067
373,0.6198,5324.483
374,0.621467,5183.741
375,0.623133,5183.741
376,0.62485,5047.023
377,0.626467,4917.234
378,0.6281330000000001,4789.755
379,0.6298,4789.755
380,0.631467,4668.087
381,0.6331329999999999,4555.658
382,0.634783,4555.658
383,0.63645,4440.993
384,0.638117,4334.375
385,0.639783,4231.781
386,0.641583,4231.781
387,0.643117,4127.473
388,0.644783,4034.862
389,0.64645,3944.486
390,0.6481170000000001,3944.486
391,0.649783,3855.75
392,0.65145,3772.378
393,0.6531169999999999,3687.143
394,0.654783,3687.143
395,0.65645,3606.528
396,0.658117,3530.83
397,0.6598000000000001,3460.646
398,0.661483,3460.646
399,0.663117,3392.324
400,0.664783,3323.108
401,0.66645,3323.108
402,0.668117,3255.308
403,0.669783,3189.072
404,0.67145,3128.052
405,0.673117,3128.052
406,0.674783,3071.129
407,0.67645,3019.124
408,0.678117,2967.864
409,0.679783,2967.864
410,0.68145,2917.275
411,0.683117,2868.101
412,0.684783,2817.735
413,0.68645,2817.735
414,0.688117,2770.647
415,0.689783,2723.485
416,0.69145,2723.485
417,0.693117,2679.303
418,0.694783,2637.133
419,0.696433,2594.218
420,0.6981000000000001,2594.218
421,0.699767,2554.879
422,0.701433,2515.167
423,0.7030999999999999,2480.671
424,0.704767,2480.671
425,0.706433,2445.057
426,0.7081,2409.816
427,0.709767,2376.214
428,0.711433,2376.214
429,0.7131,2341.941
430,0.714767,2313.331
431,0.716433,2313.331
432,0.7181,2284.199
433,0.719767,2258.122
434,0.72145,2228.618
435,0.72315,2228.618
436,0.7247670000000001,2197.4
437,0.726433,2173.111
438,0.7281,2145.842
439,0.7297670000000001,2145.842
440,0.731433,2121.776
441,0.7331,2100.17
442,0.7347669999999999,2073.72
443,0.736433,2073.72
444,0.7381,2049.729
445,0.739767,2026.036
446,0.741433,2001.226
447,0.74315,2001.226
448,0.744767,1982.078
449,0.746433,1964.793
450,0.7481,1964.793
451,0.749767,1946.762
452,0.751433,1927.614
453,0.7531,1908.317
454,0.754767,1908.317
455,0.756417,1888.35
456,0.758083,1872.405
457,0.759867,1858.622
458,0.761417,1858.622
459,0.763083,1841.858
460,0.76475,1828.894
461,0.766417,1813.322
462,0.768083,1813.322
463,0.76975,1798.719
464,0.771417,1784.787
465,0.773083,1784.787
466,0.77475,1768.842
467,0.776517,1754.537
468,0.778083,1741.052
469,0.7797500000000001,1741.052
470,0.781417,1728.609
471,0.783083,1714.602
472,0.7847499999999999,1700.521
473,0.786417,1700.521
474,0.788083,1685.619
475,0.78975,1672.581
476,0.791417,1663.268
477,0.793083,1663.268
478,0.79475,1653.88
479,0.796417,1646.876
480,0.7981,1636.371
481,0.7998,1636.371
482,0.801417,1624.301
483,0.803083,1615.882
484,0.80475,1615.882
485,0.8064170000000001,1605.824
486,0.808083,1598.969
487,0.80975,1591.817
488,0.8114170000000001,1591.817
489,0.813067,1585.036
490,0.814733,1575.649
491,0.8164,1565.442
492,0.818067,1565.442
493,0.819733,1556.054
494,0.8214,1545.623
495,0.823067,1540.035
496,0.824733,1540.035
497,0.8264,1535.565
498,0.828067,1528.859
499,0.8297330000000001,1528.859
500,0.8314,1522.601
501,0.833067,1514.107
502,0.8347329999999999,1506.656
503,0.8364,1506.656
504,0.838067,1502.708
505,0.839733,1494.959
506,0.8414,1488.626
507,0.843067,1488.626
508,0.844783,1483.038
509,0.8464,1474.991
510,0.848067,1472.011
511,0.8497169999999999,1472.011
512,0.851383,1466.349
513,0.85305,1459.867
514,0.8547169999999999,1455.173
515,0.856383,1455.173
516,0.85805,1448.765
517,0.859717,1445.04
518,0.861433,1445.04
519,0.86305,1438.484
520,0.864717,1433.268
521,0.866383,1429.692
522,0.86805,1429.692
523,0.869717,1423.21
524,0.8714,1421.794
525,0.87305,1419.41
526,0.874717,1419.41
527,0.876367,1415.312
528,0.87815,1415.089
529,0.8797,1409.65
530,0.881367,1409.65
531,0.883033,1403.019
532,0.8847,1397.654
533,0.886367,1397.654
534,0.888033,1392.812
535,0.8897,1386.777
536,0.891367,1383.796
537,0.893033,1383.796
538,0.8947000000000001,1377.91
539,0.896367,1370.609
540,0.898033,1370.385
541,0.8997000000000001,1370.385
542,0.901367,1368.821
543,0.903033,1365.095
544,0.9046999999999999,1363.382
545,0.906367,1363.382
546,0.908033,1360.774
547,0.9097,1356.378
548,0.911367,1356.378
549,0.913033,1356.378
550,0.9147,1354.292
551,0.916367,1349.822
552,0.918033,1349.822
553,0.9197,1348.108
554,0.921367,1343.34
555,0.923033,1339.093
556,0.9247,1339.093
557,0.9263670000000001,1333.877
558,0.928033,1326.874
559,0.9297,1324.341
560,0.9313669999999999,1324.341
561,0.933033,1323.074
562,0.9347,1324.49
563,0.93635,1323.968
564,0.938017,1323.968
565,0.939683,1321.435
566,0.94135,1319.125
567,0.943017,1319.125
568,0.9446830000000001,1316.294
569,0.946367,1316.667
570,0.948017,1313.314
571,0.9496830000000001,1313.314
572,0.95135,1310.632
573,0.953017,1305.044
574,0.9546829999999999,1299.307
575,0.95635,1299.307
576,0.958017,1300.946
577,0.959683,1297.519
578,0.96135,1298.189
579,0.963017,1298.189
580,0.964683,1296.923
581,0.96635,1292.75
582,0.968017,1292.75
583,0.969683,1293.272
584,0.97135,1294.464
585,0.973017,1298.04
586,0.974683,1298.04
587,0.9763500000000001,1300.424
588,0.978017,1300.35
589,0.9797,1293.421
590,0.9813499999999999,1293.421
591,0.983017,1286.566
592,0.984683,1281.276
593,0.9863499999999999,1276.135
594,0.988017,1276.135
595,0.989683,1277.253
596,0.99135,1279.563
597,0.993017,1277.924
598,0.994683,1277.924
599,0.996367,1276.508
600,0.998,1275.763
601,0.999667,1275.763
602,1.001333,1273.23
603,1.003,1275.539
604,1.004667,1277.7
605,1.006333,1277.7
606,1.008,1278.296
607,1.009667,1276.731
608,1.011333,1270.995
609,1.013,1270.995
610,1.014667,1268.908
611,1.016333,1264.811
612,1.018,1263.246
613,1.019683,1263.246
614,1.021333,1263.171
