"ID","sea_time","fid_signal"
1,0,1200.736
2,0.001667,1197.159
3,0.003333,1195.669
4,0.005,1195.669
5,0.006667,1193.434
6,0.008333,1189.187
7,0.010067,1182.333
8,0.011667,1182.333
9,0.013333,1181.066
10,0.015,1179.427
11,0.016667,1179.501
12,0.018333,1179.501
13,0.02,1183.972
14,0.021667,1183.972
15,0.023333,1183.972
16,0.025,1184.717
17,0.026717,1188.889
18,0.028333,1190.23
19,0.03,1190.23
20,0.031667,1190.752
21,0.033317,1193.285
22,0.034983,1191.571
23,0.03665,1191.571
24,0.03835,1190.305
25,0.039983,1192.167
26,0.04165,1191.422
27,0.043417,1191.422
28,0.044983,1194.328
29,0.04665,1196.191
30,0.048317,1196.191
31,0.049983,1196.563
32,0.05165,1195.073
33,0.053317,1192.242
34,0.054983,1192.242
35,0.05665,1193.285
36,0.058317,1192.391
37,0.059983,1191.646
38,0.06165,1191.646
39,0.063317,1191.795
40,0.064983,1191.571
41,0.06665,1190.603
42,0.068317,1190.603
43,0.069983,1192.838
44,0.07165000000000001,1193.062
45,0.07331699999999999,1195.595
46,0.07498299999999999,1195.595
47,0.07665,1199.618
48,0.078317,1198.947
49,0.079983,1198.947
50,0.08165,1200.512
51,0.083317,1197.01
52,0.084983,1197.383
53,0.08665,1197.383
54,0.08831700000000001,1198.053
55,0.08998299999999999,1196.861
56,0.09165,1198.724
57,0.09329999999999999,1198.724
58,0.094983,1194.626
59,0.096633,1195.52
60,0.0983,1194.626
61,0.099983,1194.626
62,0.101633,1191.571
63,0.1033,1190.454
64,0.104967,1190.454
65,0.106633,1189.485
66,0.108317,1190.23
67,0.109967,1189.783
68,0.111633,1189.783
69,0.1133,1189.709
70,0.114967,1188.219
71,0.116633,1187.25
72,0.1183,1187.25
73,0.119967,1190.901
74,0.121633,1194.179
75,0.1233,1193.807
76,0.124967,1193.807
77,0.126633,1194.701
78,0.128333,1193.732
79,0.129967,1192.838
80,0.131633,1192.838
81,0.1333,1195.446
82,0.134967,1196.34
83,0.13665,1196.34
84,0.1383,1194.999
85,0.139967,1196.936
86,0.141633,1197.308
87,0.1433,1197.308
88,0.14505,1197.01
89,0.146633,1196.787
90,0.1483,1194.477
91,0.149967,1194.477
92,0.151633,1192.763
93,0.153283,1191.422
94,0.154933,1193.434
95,0.1566,1193.434
96,0.158267,1192.838
97,0.159933,1193.359
98,0.161717,1193.956
99,0.163267,1193.956
100,0.164933,1192.987
101,0.1666,1194.924
102,0.168267,1194.924
103,0.169933,1195.148
104,0.1716,1193.881
105,0.173267,1192.242
106,0.174933,1192.242
107,0.1766,1189.113
108,0.178367,1189.262
109,0.17995,1190.826
110,0.1816,1190.826
111,0.183267,1193.062
112,0.184933,1195.446
113,0.1866,1195.446
114,0.188267,1194.775
115,0.189933,1194.924
116,0.1916,1194.477
117,0.193267,1194.477
118,0.194933,1192.54
119,0.1966,1193.285
120,0.198267,1193.21
121,0.199933,1193.21
122,0.2016,1191.571
123,0.203267,1191.199
124,0.204933,1190.975
125,0.2066,1190.975
126,0.208267,1189.634
127,0.209933,1191.273
128,0.2116,1191.72
129,0.213267,1191.72
130,0.214917,1192.167
131,0.216583,1193.583
132,0.21825,1193.583
133,0.219917,1194.03
134,0.221583,1196.042
135,0.22325,1195.148
136,0.224917,1195.148
137,0.226583,1196.787
138,0.22825,1193.732
139,0.229917,1192.763
140,0.231583,1192.763
141,0.23325,1194.552
142,0.234917,1192.838
143,0.236583,1196.191
144,0.23825,1196.191
145,0.239917,1196.936
146,0.241583,1195.52
147,0.24325,1195.52
148,0.244917,1195.595
149,0.2466,1195.744
150,0.24825,1197.01
151,0.249917,1197.01
152,0.251583,1199.245
153,0.25325,1197.234
154,0.254917,1194.999
155,0.256583,1194.999
156,0.25825,1193.657
157,0.259917,1190.752
158,0.261583,1192.987
159,0.263283,1192.987
160,0.264917,1193.807
161,0.266583,1194.477
162,0.26825,1194.924
163,0.269917,1194.924
164,0.271583,1193.881
165,0.27325,1194.328
166,0.274917,1194.328
167,0.276567,1192.987
168,0.278233,1194.328
169,0.27995,1193.359
170,0.281567,1193.359
171,0.283233,1194.03
172,0.2849,1192.912
173,0.286567,1190.901
174,0.288233,1190.901
175,0.2899,1192.465
176,0.291567,1188.74
177,0.293233,1190.007
178,0.2949,1190.007
179,0.296667,1190.156
180,0.298233,1188.219
181,0.2999,1188.219
182,0.301567,1194.85
183,0.303233,1197.532
184,0.3049,1197.979
185,0.306567,1197.979
186,0.308233,1201.481
187,0.3099,1194.775
188,0.311567,1194.254
189,0.31325,1194.254
190,0.3149,1194.477
191,0.316567,1191.646
192,0.318233,1192.093
193,0.3199,1192.093
194,0.321567,1190.975
195,0.32325,1191.124
196,0.3249,1191.124
197,0.326567,1190.23
198,0.328233,1192.838
199,0.3299,1192.242
200,0.33155,1192.242
201,0.333217,1192.093
202,0.334883,1194.552
203,0.33655,1195.222
204,0.338217,1195.222
205,0.339883,1195.893
206,0.34155,1196.265
207,0.343217,1197.755
208,0.344883,1197.755
209,0.34655,1196.414
210,0.348217,1194.104
211,0.349883,1192.391
212,0.35155,1192.391
213,0.353217,1189.783
214,0.354883,1191.422
215,0.35655,1191.422
216,0.358217,1194.03
217,0.359883,1196.34
218,0.36155,1197.383
219,0.363217,1197.383
220,0.364883,1196.861
221,0.36655,1197.681
222,0.368217,1197.159
223,0.369883,1197.159
224,0.37155,1197.904
225,0.373217,1200.363
226,0.374883,1202.673
227,0.37655,1202.673
228,0.378217,1204.014
229,0.379883,1206.473
230,0.381617,1204.982
231,0.383217,1204.982
232,0.384883,1203.418
233,0.38655,1203.12
234,0.388217,1203.12
235,0.389883,1201.481
236,0.391533,1204.461
237,0.393233,1206.026
238,0.394917,1206.026
239,0.396533,1208.708
240,0.398283,1212.954
241,0.399867,1214.743
242,0.401533,1214.743
243,0.4032,1218.766
244,0.404867,1219.139
245,0.406533,1218.99
246,0.4082,1218.99
247,0.409867,1217.276
248,0.411533,1214.668
249,0.4132,1214.668
250,0.414983,1218.244
251,0.416533,1218.99
252,0.4182,1220.182
253,0.419867,1220.182
254,0.421533,1222.417
255,0.4232,1221.597
256,0.424867,1222.566
257,0.426533,1222.566
258,0.4282,1225.695
259,0.429867,1224.503
260,0.431533,1226.738
261,0.4332,1226.738
262,0.434867,1229.122
263,0.436533,1230.091
264,0.4382,1230.091
265,0.439867,1234.487
266,0.441533,1234.561
267,0.4432,1230.463
268,0.444867,1230.463
269,0.446517,1227.26
270,0.448183,1223.311
271,0.44985,1220.629
272,0.451517,1220.629
273,0.453183,1221.746
274,0.454833,1220.554
275,0.4565,1222.938
276,0.458167,1222.938
277,0.459833,1225.471
278,0.4615,1224.503
279,0.463167,1228.005
280,0.464833,1228.005
281,0.466517,1228.079
282,0.468233,1226.366
283,0.469833,1226.366
284,0.4715,1229.048
285,0.473167,1227.26
286,0.474833,1226.664
287,0.4765,1226.664
288,0.478167,1225.471
289,0.479833,1223.311
290,0.4815,1221.597
291,0.483167,1221.597
292,0.484833,1219.437
293,0.4865,1219.437
294,0.488167,1217.723
295,0.489833,1217.723
296,0.4915,1219.213
297,0.493167,1219.362
298,0.494833,1219.362
299,0.4965,1219.734
300,0.498167,1220.927
301,0.499833,1223.385
302,0.5014999999999999,1223.385
303,0.503183,1225.471
304,0.504833,1224.726
305,0.5065,1222.342
306,0.508167,1222.342
307,0.509833,1219.586
308,0.5115,1217.648
309,0.51315,1218.17
310,0.514817,1218.17
311,0.5165,1218.766
312,0.51815,1220.48
313,0.519817,1220.48
314,0.521483,1218.99
315,0.52315,1217.723
316,0.524817,1218.095
317,0.526483,1218.095
318,0.52815,1214.072
319,0.529817,1216.829
320,0.531483,1217.946
321,0.53325,1217.946
322,0.534817,1216.754
323,0.536483,1216.829
324,0.53815,1213.998
325,0.539817,1213.998
326,0.541517,1211.464
327,0.543167,1209.527
328,0.544817,1207.218
329,0.5464830000000001,1207.218
330,0.54815,1206.622
331,0.549817,1203.865
332,0.5514829999999999,1203.865
333,0.55315,1206.994
334,0.554817,1208.857
335,0.5564829999999999,1209.453
336,0.55815,1209.453
337,0.559817,1210.794
338,0.561483,1208.335
339,0.56315,1204.833
340,0.564817,1204.833
341,0.566483,1202.449
342,0.56815,1200.959
343,0.569817,1200.363
344,0.571483,1200.363
345,0.573133,1205.876
346,0.5748,1208.335
347,0.576467,1208.335
348,0.578133,1209.527
349,0.5798,1209.974
350,0.581467,1207.069
351,0.583133,1207.069
352,0.5848,1208.186
353,0.586467,1210.943
354,0.588133,1213.253
355,0.5898,1213.253
356,0.591467,1216.978
357,0.593133,1216.829
358,0.5948,1217.872
359,0.596467,1217.872
360,0.598133,1219.213
361,0.5998,1218.692
362,0.601467,1218.84
363,0.603133,1218.84
364,0.6048,1218.095
365,0.606467,1215.637
366,0.608133,1215.637
367,0.6098,1214.743
368,0.611467,1211.986
369,0.613133,1212.359
370,0.6148,1212.359
371,0.616467,1212.507
372,0.618183,1213.625
373,0.6198,1215.786
374,0.621483,1215.786
375,0.623133,1215.264
376,0.6248,1215.264
377,0.626467,1211.092
378,0.6281330000000001,1211.092
379,0.6298,1209.602
380,0.631467,1207.441
381,0.633117,1207.441
382,0.634783,1206.398
383,0.63645,1207.814
384,0.638117,1207.665
385,0.639783,1207.665
386,0.64145,1208.037
387,0.643117,1207.367
388,0.644783,1208.261
389,0.64645,1208.261
390,0.6481170000000001,1205.802
391,0.649783,1207.069
392,0.651583,1205.131
393,0.6531169999999999,1205.131
394,0.654783,1201.257
395,0.65645,1201.704
396,0.658117,1197.83
397,0.659783,1197.83
398,0.66145,1199.767
399,0.663117,1201.183
400,0.664783,1201.183
401,0.66645,1200.438
402,0.668117,1200.289
403,0.669783,1200.14
404,0.67145,1200.14
405,0.673117,1199.693
406,0.674783,1199.842
407,0.67645,1201.779
408,0.678117,1201.779
409,0.679783,1203.716
410,0.68145,1205.876
411,0.683117,1209.08
412,0.684783,1209.08
413,0.68645,1212.507
414,0.688117,1214.519
415,0.689783,1214.519
416,0.69145,1217.723
417,0.6931,1219.213
418,0.694767,1220.554
419,0.696433,1220.554
420,0.6981000000000001,1222.566
421,0.699767,1223.534
422,0.701433,1228.824
423,0.7030999999999999,1228.824
424,0.704767,1232.773
425,0.706433,1238.734
426,0.7081,1249.537
427,0.7097830000000001,1249.537
428,0.711433,1259.67
429,0.7131,1271.889
430,0.714767,1287.982
431,0.716433,1287.982
432,0.7181,1304.969
433,0.719767,1323.596
434,0.721433,1323.596
435,0.7231,1344.308
436,0.7247670000000001,1367.182
437,0.726433,1392.588
438,0.7281,1392.588
439,0.7297670000000001,1423.657
440,0.73145,1460.016
441,0.7331,1500.472
442,0.7347669999999999,1500.472
443,0.7365,1542.717
444,0.738083,1588.613
445,0.73975,1643.524
446,0.741417,1643.524
447,0.743083,1700.521
448,0.74475,1765.117
449,0.746417,1765.117
450,0.7480830000000001,1835.525
451,0.74975,1907.274
452,0.7514,1985.058
453,0.753067,1985.058
454,0.754733,2068.356
455,0.7564,2155.229
456,0.758067,2247.989
457,0.759733,2247.989
458,0.7614,2343.357
459,0.7630670000000001,2440.363
460,0.764733,2544.82
461,0.7664,2544.82
462,0.7680670000000001,2652.63
463,0.769733,2767.965
464,0.7714,2767.965
465,0.7730669999999999,2891.645
466,0.774733,3015.176
467,0.7764,3142.878
468,0.778067,3142.878
469,0.779733,3272.519
470,0.7814,3400.073
471,0.783067,3531.575
472,0.784733,3531.575
473,0.7864,3665.76
474,0.788067,3804.639
475,0.789733,3948.659
476,0.7914,3948.659
477,0.793067,4091.263
478,0.794733,4237.369
479,0.7964,4383.921
480,0.798083,4383.921
481,0.799733,4532.263
482,0.8014,4682.243
483,0.803067,4682.243
484,0.804733,4831.105
485,0.8064,4980.713
486,0.808067,5129.576
487,0.809733,5129.576
488,0.8114,5282.685
489,0.8130500000000001,5435.943
490,0.814717,5587.116
491,0.816383,5587.116
492,0.8180500000000001,5739.704
493,0.819717,5891.994
494,0.821417,6043.315
495,0.8230499999999999,6043.315
496,0.824717,6196.499
497,0.826383,6348.267
498,0.82805,6348.267
499,0.829717,6495.714
500,0.831383,6643.087
501,0.83305,6789.192
502,0.834717,6789.192
503,0.836383,6935.075
504,0.83805,7081.181
505,0.839717,7226.989
506,0.841383,7226.989
507,0.84305,7372.722
508,0.8447170000000001,7514.283
509,0.846383,7655.621
510,0.84805,7655.621
511,0.8497169999999999,7793.233
512,0.851383,7927.641
513,0.85305,8064.21
514,0.8547169999999999,8064.21
515,0.856383,8196.384
516,0.85805,8328.110000000001
517,0.859717,8328.110000000001
518,0.861383,8457.675999999999
519,0.86305,8584.187
520,0.864717,8708.313
521,0.866383,8708.313
522,0.86805,8829.161
523,0.869717,8949.040999999999
524,0.871433,9065.718000000001
525,0.87305,9065.718000000001
526,0.8747,9179.637000000001
527,0.8764,9290.799999999999
528,0.878033,9392.798000000001
529,0.8797,9392.798000000001
530,0.881367,9488.314
531,0.883033,9582.043
532,0.8847,9582.043
533,0.886367,9669.438
534,0.88815,9756.833000000001
535,0.8897,9840.429
536,0.891383,9840.429
537,0.893033,9921.118
538,0.8947000000000001,9995.923000000001
539,0.896367,10066.106
540,0.898033,10066.106
541,0.8997000000000001,10130.182
542,0.901367,10186.583
543,0.903033,10240.227
544,0.9046999999999999,10240.227
545,0.906383,10285.303
546,0.908033,10323.972
547,0.9097,10351.315
548,0.911367,10351.315
549,0.913033,10372.326
550,0.9147,10381.192
551,0.916367,10381.192
552,0.918033,10384.396
553,0.9197,10382.384
554,0.921367,10365.77
555,0.923033,10365.77
556,0.9247,10342.971
557,0.9263670000000001,10309.145
558,0.928033,10264.292
559,0.9297,10264.292
560,0.9313669999999999,10211.17
561,0.933017,10145.307
562,0.934683,10065.437
563,0.93635,10065.437
564,0.938017,9976.625
565,0.939683,9879.245999999999
566,0.94135,9879.245999999999
567,0.943017,9774.789000000001
568,0.9446830000000001,9661.093999999999
569,0.94635,9539.127
570,0.948017,9539.127
571,0.9496830000000001,9408.370000000001
572,0.95135,9270.832
573,0.953017,9128.525
574,0.9546829999999999,9128.525
575,0.95635,8980.334000000001
576,0.958017,8831.248
577,0.959683,8675.157999999999
578,0.96135,8675.157999999999
579,0.963017,8518.397000000001
580,0.964683,8359.924000000001
581,0.96635,8359.924000000001
582,0.968017,8197.874
583,0.969683,8042.157
584,0.97135,7882.863
585,0.973033,7882.863
586,0.974683,7729.605
587,0.9763500000000001,7579.029
588,0.978017,7429.272
589,0.979683,7429.272
590,0.9813499999999999,7290.989
591,0.983017,7152.632
592,0.984683,7020.384
593,0.9863499999999999,7020.384
594,0.988017,6895.512
595,0.989767,6773.844
596,0.99135,6655.082
597,0.993017,6655.082
598,0.994683,6538.48
599,0.996333,6426.275
600,0.998,6426.275
601,0.999667,6318.092
602,1.001333,6215.796
603,1.003,6119.833
604,1.004667,6119.833
605,1.006417,6023.72
606,1.008,5935.058
607,1.009667,5850.643
608,1.011333,5850.643
609,1.013,5770.549
610,1.014667,5695
611,1.016333,5615.801
612,1.018,5615.801
613,1.019667,5543.307
614,1.021333,5469.546
615,1.023117,5399.585
616,1.024667,5399.585
617,1.026333,5335.286
618,1.028,5270.988
619,1.02965,5270.988
620,1.031317,5213.842
621,1.033,5159.08
622,1.03465,5104.393
623,1.036317,5104.393
624,1.037983,5049.333
625,1.03965,4995.614
626,1.041317,4944.354
627,1.042983,4944.354
628,1.04465,4890.71
629,1.046317,4843.101
630,1.047983,4793.406
631,1.04965,4793.406
632,1.051317,4746.765
633,1.052983,4706.83
634,1.054633,4706.83
635,1.0563,4665.628
636,1.057967,4623.83
637,1.059633,4581.958
638,1.0613,4581.958
639,1.062967,4540.011
640,1.064633,4500.374
641,1.0663,4464.76
642,1.067967,4464.76
643,1.069633,4426.241
644,1.0713,4388.69
645,1.072967,4349.873
646,1.074633,4349.873
647,1.0763,4311.875
648,1.077967,4280.657
649,1.079633,4280.657
650,1.081317,4247.129
651,1.082967,4215.464
652,1.084633,4187.822
653,1.0863,4187.822
654,1.087967,4155.562
655,1.089633,4127.1
656,1.091333,4097
657,1.092967,4097
658,1.094633,4065.782
659,1.0963,4035.458
660,1.097967,4006.028
661,1.099633,4006.028
662,1.101317,3979.132
663,1.102967,3950.223
664,1.104633,3950.223
665,1.1063,3923.252
666,1.108033,3900.006
667,1.109633,3875.419
668,1.111283,3875.419
669,1.11295,3854.707
670,1.114617,3832.206
671,1.116283,3808.141
672,1.11795,3808.141
673,1.119617,3786.087
674,1.121283,3759.786
675,1.12295,3736.541
676,1.124683,3736.541
677,1.126283,3710.985
678,1.12795,3685.057
679,1.129617,3664.866
680,1.131283,3664.866
681,1.13295,3644.004
682,1.134617,3624.856
683,1.136283,3624.856
684,1.13795,3605.857
685,1.139617,3583.953
686,1.141383,3566.146
687,1.14295,3566.146
688,1.144617,3544.837
689,1.146283,3525.168
690,1.14795,3509.67
691,1.149617,3509.67
692,1.151283,3491.566
693,1.15295,3479.719
694,1.154617,3466.01
695,1.156283,3466.01
696,1.15795,3447.309
697,1.159617,3427.193
698,1.161283,3427.193
699,1.16295,3406.256
700,1.164617,3387.034
701,1.166283,3368.631
702,1.16795,3368.631
703,1.169617,3351.644
704,1.171283,3336.742
705,1.172933,3320.724
706,1.1746,3320.724
707,1.176267,3305.748
708,1.177933,3291.667
709,1.1796,3275.499
710,1.181267,3275.499
711,1.182933,3261.939
712,1.1846,3248.453
713,1.186267,3236.607
714,1.18795,3236.607
715,1.1896,3220.588
716,1.191267,3206.283
717,1.192933,3206.283
718,1.1946,3192.127
719,1.196267,3176.555
720,1.197933,3165.677
721,1.1996,3165.677
722,1.201267,3153.011
723,1.202933,3141.09
724,1.2046,3125.667
725,1.206267,3125.667
726,1.207933,3109.872
727,1.2096,3094.748
728,1.211267,3081.113
729,1.212933,3081.113
730,1.2146,3068.745
731,1.216267,3058.985
732,1.217933,3058.985
733,1.2196,3049.076
734,1.221267,3035.739
735,1.222933,3027.99
736,1.2246,3027.99
737,1.226283,3016.815
738,1.227933,3007.427
739,1.2296,2994.463
740,1.231267,2994.463
741,1.232917,2980.232
742,1.234583,2967.194
743,1.23625,2951.771
744,1.237917,2951.771
745,1.239583,2941.266
746,1.24125,2930.611
747,1.242933,2919.137
748,1.244583,2919.137
749,1.24625,2907.365
750,1.247917,2897.754
751,1.249583,2897.754
752,1.25125,2887.622
753,1.252917,2878.606
754,1.254583,2869.889
755,1.25625,2869.889
756,1.257917,2859.011
757,1.259683,2850.89
758,1.26125,2841.055
759,1.262917,2841.055
760,1.264583,2831.146
761,1.26625,2823.844
762,1.267917,2812.743
763,1.269583,2812.743
764,1.27125,2804.25
765,1.272917,2795.905
766,1.274583,2795.905
767,1.27625,2783.76
768,1.277917,2774
769,1.279583,2765.954
770,1.28125,2765.954
771,1.282917,2757.385
772,1.284583,2750.754
773,1.28625,2740.845
774,1.287917,2740.845
775,1.289583,2729.148
776,1.29125,2718.493
777,1.292917,2709.18
778,1.294567,2709.18
779,1.296233,2700.537
780,1.2979,2692.64
781,1.299567,2684.444
782,1.301233,2684.444
783,1.3029,2675.503
784,1.304567,2669.394
785,1.306233,2669.394
786,1.3079,2664.7
787,1.309583,2657.399
788,1.311233,2650.395
789,1.3129,2650.395
790,1.314567,2642.646
791,1.316233,2634.227
792,1.3179,2625.137
793,1.31955,2625.137
794,1.321217,2617.91
795,1.322883,2612.323
796,1.32455,2602.339
797,1.326217,2602.339
798,1.327883,2601.221
799,1.32955,2594.665
800,1.331217,2594.665
801,1.332883,2587.661
802,1.33455,2579.689
803,1.336217,2569.258
804,1.337883,2569.258
805,1.33955,2562.478
806,1.341217,2555.177
807,1.342883,2550.408
808,1.34455,2550.408
809,1.346217,2541.915
810,1.347883,2532.527
811,1.34955,2525.225
812,1.351217,2525.225
813,1.3529,2520.755
814,1.354533,2517.775
815,1.3562,2517.775
816,1.357867,2515.54
817,1.359533,2510.846
818,1.3612,2501.831
819,1.362867,2501.831
820,1.364533,2494.082
821,1.3662,2486.929
822,1.367867,2477.989
823,1.369533,2477.989
824,1.3712,2475.008
825,1.372867,2468.005
826,1.374533,2462.566
827,1.3762,2462.566
828,1.377983,2457.798
829,1.379533,2449.974
830,1.3812,2448.261
831,1.382867,2448.261
832,1.384533,2442.524
833,1.386217,2437.383
834,1.387867,2437.383
835,1.389533,2430.901
836,1.3912,2420.321
837,1.392867,2413.094
838,1.394533,2413.094
839,1.3962,2405.718
840,1.397867,2401.024
841,1.399533,2398.342
842,1.4012,2398.342
843,1.402867,2394.542
844,1.404533,2390.444
845,1.4062,2382.547
846,1.407867,2382.547
847,1.409533,2376.81
848,1.4112,2371.147
849,1.41285,2371.147
850,1.414517,2366.379
851,1.416183,2365.41
852,1.41785,2359.301
853,1.419517,2359.301
854,1.421183,2352.744
855,1.42285,2345.294
856,1.424517,2337.098
857,1.426183,2337.098
858,1.42785,2333.671
859,1.429517,2332.106
860,1.431183,2329.126
861,1.43285,2329.126
862,1.434517,2323.091
863,1.436183,2319.217
864,1.43785,2313.48
865,1.439517,2313.48
866,1.441183,2309.158
867,1.44285,2304.912
868,1.444517,2304.912
869,1.446183,2295.524
870,1.44785,2288.371
871,1.449517,2283.976
872,1.451183,2283.976
873,1.45285,2283.529
874,1.454517,2281.964
875,1.456183,2280.399
876,1.45785,2280.399
877,1.459517,2274.513
878,1.461183,2269.372
879,1.462917,2265.125
880,1.464517,2265.125
881,1.466183,2260.73
882,1.46785,2258.569
883,1.469517,2258.569
884,1.471183,2251.714
885,1.472833,2249.032
886,1.4745,2243.891
887,1.476167,2243.891
888,1.477833,2239.272
889,1.4795,2234.504
890,1.481167,2228.171
891,1.482833,2228.171
892,1.484517,2223.626
893,1.486167,2216.995
894,1.487833,2217.516
895,1.4895,2217.516
896,1.491167,2215.505
897,1.492833,2209.619
898,1.4945,2204.254
899,1.49625,2204.254
900,1.497833,2196.506
901,1.4995,2190.322
902,1.501167,2190.322
903,1.502833,2187.043
904,1.5045,2185.851
905,1.506167,2184.883
906,1.507833,2184.883
907,1.5095,2184.436
908,1.511167,2183.318
909,1.512833,2181.306
