"ID","sea_time","fid_signal"
1,0,144.228
2,0.00165,144.057
3,0.003317,144.057
4,0.004983,144.243
5,0.006667,143.93
6,0.008333,143.64
7,0.009983000000000001,143.64
8,0.01165,143.17
9,0.013317,142.753
10,0.014983,142.895
11,0.01665,142.895
12,0.018317,143.074
13,0.019983,143.386
14,0.02165,143.714
15,0.023317,143.714
16,0.024983,143.863
17,0.026717,143.774
18,0.028317,143.655
19,0.029983,143.655
20,0.03165,143.588
21,0.033317,143.282
22,0.034983,143.282
23,0.03665,143.744
24,0.038317,143.871
25,0.039983,143.908
26,0.04165,143.908
27,0.043317,144.213
28,0.044983,144.02
29,0.04665,144.102
30,0.048317,144.102
31,0.049983,144.251
32,0.05165,144.236
33,0.053317,144.28
34,0.054983,144.28
35,0.05665,144.161
36,0.058317,143.841
37,0.060083,143.617
38,0.061633,143.617
39,0.0633,143.304
40,0.064967,143.148
41,0.066633,143.148
42,0.0683,143.014
43,0.069967,143.148
44,0.071633,143.282
45,0.0733,143.282
46,0.07498299999999999,143.342
47,0.07663300000000001,143.364
48,0.07829999999999999,143.476
49,0.079967,143.476
50,0.081633,143.625
51,0.0833,143.908
52,0.084967,144.385
53,0.086633,144.385
54,0.0883,144.377
55,0.08996700000000001,144.459
56,0.09163300000000001,144.459
57,0.09329999999999999,144.333
58,0.094967,144.228
59,0.096633,144.422
60,0.0983,144.422
61,0.099967,144.079
62,0.101633,144.251
63,0.1033,143.997
64,0.10495,143.997
65,0.106617,143.833
66,0.108283,144.221
67,0.10995,144.005
68,0.111617,144.005
69,0.113283,144.206
70,0.11495,143.982
71,0.116617,143.982
72,0.118283,144.02
73,0.119933,143.923
74,0.1216,143.714
75,0.123267,143.714
76,0.124933,143.774
77,0.1266,143.483
78,0.128267,143.714
79,0.129933,143.714
80,0.1316,143.61
81,0.133267,143.453
82,0.134933,143.431
83,0.1366,143.431
84,0.138267,143.23
85,0.139933,143.573
86,0.1416,143.573
87,0.143267,143.498
88,0.145,143.662
89,0.1466,143.543
90,0.148267,143.543
91,0.149933,143.58
92,0.1516,143.893
93,0.153267,143.833
94,0.154933,143.833
95,0.1566,143.886
96,0.158267,143.506
97,0.159933,143.297
98,0.1616,143.297
99,0.163267,143.126
100,0.164933,143.141
101,0.1666,143.252
102,0.168267,143.252
103,0.169933,143.372
104,0.1716,143.565
105,0.173267,143.565
106,0.174933,143.774
107,0.1766,143.833
108,0.178267,143.722
109,0.179917,143.722
110,0.181583,143.498
111,0.18325,143.327
112,0.184917,143.275
113,0.186583,143.275
114,0.18825,143.439
115,0.189917,143.521
116,0.191583,143.521
117,0.19325,143.521
118,0.194917,143.424
119,0.196583,143.431
120,0.19825,143.431
121,0.199917,143.707
122,0.201583,143.945
123,0.20325,144.05
124,0.204917,144.05
125,0.206583,144.064
126,0.20825,143.811
127,0.209917,143.602
128,0.211583,143.602
129,0.21325,143.58
130,0.214917,143.319
131,0.216583,143.483
132,0.21825,143.483
133,0.219933,143.617
134,0.221583,143.722
135,0.22325,143.751
136,0.224917,143.751
137,0.226583,143.476
138,0.22825,143.275
139,0.229917,143.275
140,0.231583,142.999
141,0.23325,143.178
142,0.234917,143.148
143,0.236583,143.148
144,0.23825,143.036
145,0.2399,143.215
146,0.241567,143.439
147,0.243233,143.439
148,0.2449,143.766
149,0.246567,144.213
150,0.248233,144.146
151,0.2499,144.146
152,0.251567,143.908
153,0.253233,143.692
154,0.2549,143.692
155,0.256567,143.312
156,0.258233,143.245
157,0.2599,142.999
158,0.261567,142.999
159,0.263283,143.252
160,0.2649,143.357
161,0.266567,143.588
162,0.268233,143.588
163,0.2699,143.714
164,0.271567,143.304
165,0.273233,143.334
166,0.2749,143.334
167,0.276567,143.103
168,0.278233,143.364
169,0.2799,143.558
170,0.281567,143.558
171,0.283233,143.729
172,0.2849,144.027
173,0.286567,144.027
174,0.288233,143.901
175,0.2899,143.819
176,0.291567,143.61
177,0.293233,143.61
178,0.2949,143.364
179,0.296667,143.2
180,0.298233,143.431
181,0.299883,143.431
182,0.30155,143.342
183,0.303217,143.483
184,0.304883,143.61
185,0.30655,143.61
186,0.308217,143.401
187,0.309883,143.431
188,0.31155,143.431
189,0.313333,143.744
190,0.314883,143.93
191,0.31655,144.064
192,0.318217,144.064
193,0.319883,144.802
194,0.32155,145.473
195,0.323217,146.598
196,0.324883,146.598
197,0.32655,148.162
198,0.328217,149.786
199,0.329883,151.709
200,0.33155,151.709
201,0.333217,154.577
202,0.334883,158.124
203,0.33655,162.564
204,0.338217,162.564
205,0.339883,168.577
206,0.34155,175.595
207,0.343217,175.595
208,0.344883,184.484
209,0.34655,195.421
210,0.348217,208.259
211,0.349883,208.259
212,0.35155,223.51
213,0.353217,241.66
214,0.354883,262.64
215,0.35655,262.64
216,0.358217,287.123
217,0.359867,315.659
218,0.361533,347.957
219,0.363233,347.957
220,0.364867,384.741
221,0.366533,425.816
222,0.3682,425.816
223,0.369867,471.815
224,0.371533,522.9640000000001
225,0.3732,579.3200000000001
226,0.374867,579.3200000000001
227,0.376533,641.383
228,0.3782,709.355
229,0.379867,783.779
230,0.381533,783.779
231,0.3832,864.5359999999999
232,0.384867,952.221
233,0.386533,1046.695
234,0.3882,1046.695
235,0.389867,1148.38
236,0.391533,1258.388
237,0.3932,1258.388
238,0.394867,1376.763
239,0.396517,1504.578
240,0.398233,1642.078
241,0.39985,1642.078
242,0.401517,1789.972
243,0.403183,1949.988
244,0.40485,2122.752
245,0.406517,2122.752
246,0.408183,2310.686
247,0.40985,2516.255
248,0.411517,2741.545
249,0.413183,2741.545
250,0.414867,2990.298
251,0.416517,3266.118
252,0.418183,3572.158
253,0.419833,3572.158
254,0.4215,3912.888
255,0.423167,4292.294
256,0.424833,4292.294
257,0.4265,4713.99
258,0.428167,5181.692
259,0.429833,5698.278
260,0.431617,5698.278
261,0.433167,6265.171
262,0.434833,6882.936
263,0.4365,7550.321
264,0.4382,7550.321
265,0.439833,8263.596
266,0.4415,9017.468000000001
267,0.443167,9803.638000000001
268,0.444833,9803.638000000001
269,0.4465,10612.495
270,0.448167,11432.066
271,0.449833,11432.066
272,0.4515,12248.665
273,0.453167,13048.284
274,0.454833,13815.753
275,0.4565,13815.753
276,0.458167,14537.379
277,0.459833,15200.86
278,0.4615,15795.79
279,0.463183,15795.79
280,0.464833,16313.739
281,0.4665,16748.346
282,0.468167,17095.871
283,0.469833,17095.871
284,0.4715,17354.436
285,0.473167,17525.076
286,0.474833,17611.316
287,0.4765,17611.316
288,0.47815,17617.449
289,0.479817,17549.857
290,0.481483,17549.857
291,0.48315,17415.516
292,0.484817,17222.494
293,0.486483,16978.801
294,0.488167,16978.801
295,0.489817,16691.879
296,0.491483,16369.209
297,0.49315,16016.588
298,0.494817,16016.588
299,0.496483,15640.55
300,0.49815,15247.792
301,0.499833,14843.956
302,0.501483,14843.956
303,0.503183,14433.138
304,0.504817,14019.095
305,0.506483,14019.095
306,0.50815,13604.462
307,0.509817,13190.731
308,0.511483,12780.264
309,0.51315,12780.264
310,0.514817,12374.781
311,0.516483,11975.035
312,0.51815,11582.396
313,0.519817,11582.396
314,0.521483,11197.775
315,0.52315,10821.976
316,0.524817,10455.116
317,0.526483,10455.116
318,0.52815,10097.519
319,0.529817,9749.494000000001
320,0.531483,9749.494000000001
321,0.5331669999999999,9411.156000000001
322,0.534817,9083.063
323,0.536483,8765.719999999999
324,0.53815,8765.719999999999
325,0.5397999999999999,8459.157999999999
326,0.541467,8162.729
327,0.543133,7876.843
328,0.5448,7876.843
329,0.546467,7600.605
330,0.548133,7333.375
331,0.549867,7075.779
332,0.551467,7075.779
333,0.553133,6827.347
334,0.5548,6587.967
335,0.556467,6357.334
336,0.558133,6357.334
337,0.5598,6134.875
338,0.561467,5920.112
339,0.563133,5920.112
340,0.5648,5712.695
341,0.5664670000000001,5513.012
342,0.568133,5320.363
343,0.5698,5320.363
344,0.5714669999999999,5134.858
345,0.573133,4956.558
346,0.5748,4785.299
347,0.576467,4785.299
348,0.578133,4621.133
349,0.579817,4463.33
350,0.581467,4311.755
351,0.583133,4311.755
352,0.5848,4166.186
353,0.586467,4026.309
354,0.588133,4026.309
355,0.5898,3891.684
356,0.591467,3762.461
357,0.593133,3637.962
358,0.5948,3637.962
359,0.596467,3517.717
360,0.598117,3402.039
361,0.599783,3290.84
362,0.60145,3290.84
363,0.603117,3183.596
364,0.604783,3080.778
365,0.60645,2982.281
366,0.608117,2982.281
367,0.609783,2887.346
368,0.61145,2796.479
369,0.613117,2709.173
370,0.614783,2709.173
371,0.6164500000000001,2625.361
372,0.618117,2544.448
373,0.619783,2544.448
374,0.6214499999999999,2466.313
375,0.623117,2391.197
376,0.624783,2318.434
377,0.62645,2318.434
378,0.628117,2248.839
379,0.629783,2182.141
380,0.631467,2117.664
381,0.633117,2117.664
382,0.634817,2055.384
383,0.63645,1995.534
384,0.638117,1937.762
385,0.639783,1937.762
386,0.64145,1882.218
387,0.643117,1828.954
388,0.644783,1828.954
389,0.64645,1777.53
390,0.6481170000000001,1727.872
391,0.649783,1679.927
392,0.6515,1679.927
393,0.6531169999999999,1633.465
394,0.654783,1588.74
395,0.65645,1545.615
396,0.658117,1545.615
397,0.659767,1504.146
398,0.661433,1464.657
399,0.6631,1425.952
400,0.664767,1425.952
401,0.6664330000000001,1388.766
402,0.668233,1352.467
403,0.669767,1317.225
404,0.6714329999999999,1317.225
405,0.6731,1283.444
406,0.674767,1250.796
407,0.676433,1250.796
408,0.6781,1219.429
409,0.679767,1189.172
410,0.681433,1160.16
411,0.6831,1160.16
412,0.684767,1131.84
413,0.686433,1104.511
414,0.688083,1078.144
415,0.68975,1078.144
416,0.6914169999999999,1052.7
417,0.693083,1028.18
418,0.69475,1004.651
419,0.696417,1004.651
420,0.698083,981.867
421,0.69975,959.292
422,0.701417,959.292
423,0.703083,937.603
424,0.70475,916.272
425,0.706417,895.5599999999999
426,0.708083,895.5599999999999
427,0.70975,875.592
428,0.711417,856.3099999999999
429,0.713083,837.982
430,0.71475,837.982
431,0.716417,819.951
432,0.718083,802.681
433,0.719733,785.835
434,0.7214,785.835
435,0.723067,769.3099999999999
436,0.7247670000000001,753.701
437,0.7264,753.701
438,0.728067,738.628
439,0.729733,724.047
440,0.7314000000000001,709.854
441,0.733067,709.854
442,0.734733,695.6609999999999
443,0.7364000000000001,682.049
444,0.738067,668.7569999999999
445,0.739733,668.7569999999999
446,0.7413999999999999,655.793
447,0.743067,643.775
448,0.744733,631.9059999999999
449,0.7464,631.9059999999999
450,0.748067,620.134
451,0.749733,608.9059999999999
452,0.7514,598.013
453,0.75315,598.013
454,0.754733,587.083
455,0.7564,576.824
456,0.758067,576.824
457,0.759733,566.885
458,0.7614,556.439
459,0.7630670000000001,546.582
460,0.764733,546.582
461,0.7664,537.351
462,0.7680670000000001,528.015
463,0.769733,519.38
464,0.7714,519.38
465,0.7730669999999999,511.229
466,0.774733,502.72
467,0.7764,494.979
468,0.778067,494.979
469,0.779717,487.417
470,0.781383,479.572
471,0.78305,479.572
472,0.784717,472.009
473,0.786517,464.506
474,0.78805,457.123
475,0.789717,457.123
476,0.7913829999999999,450.462
477,0.79305,443.943
478,0.794717,437.796
479,0.796383,437.796
480,0.79805,431.739
481,0.799767,425.585
482,0.801383,419.959
483,0.80305,419.959
484,0.804717,413.932
485,0.806383,408.128
486,0.80805,402.324
487,0.809717,402.324
488,0.811383,396.445
489,0.8130500000000001,391.148
490,0.814717,391.148
491,0.816383,386.186
492,0.8180500000000001,381.507
493,0.819717,376.88
494,0.821383,376.88
495,0.8230499999999999,372.194
496,0.824717,367.559
497,0.826383,362.813
498,0.82805,362.813
499,0.829717,358.418
500,0.831383,353.977
501,0.83305,349.618
502,0.834717,349.618
503,0.836383,345.685
504,0.83805,341.654
505,0.8397,341.654
506,0.841367,337.988
507,0.843033,334.434
508,0.8447,330.754
509,0.846367,330.754
510,0.848033,327.222
511,0.8497,323.802
512,0.851367,320.241
513,0.853033,320.241
514,0.8547,317.112
515,0.856367,313.766
516,0.858033,310.473
517,0.8597,310.473
518,0.861367,307.351
519,0.8630330000000001,304.028
520,0.864717,301.003
521,0.8663999999999999,301.003
522,0.8680330000000001,298.09
523,0.8697,295.43
524,0.871417,295.43
525,0.8730329999999999,292.733
526,0.8747,290.148
527,0.876367,287.384
528,0.878033,287.384
529,0.8797,284.761
530,0.881367,282.422
531,0.883033,280.105
532,0.8847,280.105
533,0.886367,277.974
534,0.888033,275.604
535,0.8897,273.25
536,0.891367,273.25
537,0.893033,270.806
538,0.8947000000000001,268.273
539,0.896367,268.273
540,0.898033,266.023
541,0.899683,263.713
542,0.90135,261.791
543,0.903017,261.791
544,0.904817,259.981
545,0.90635,257.939
546,0.908017,256.278
547,0.909683,256.278
548,0.91135,254.206
549,0.913017,252.455
550,0.914683,250.697
551,0.91635,250.697
552,0.918017,248.827
553,0.919683,247.128
554,0.92135,245.228
555,0.923017,245.228
556,0.924683,243.485
557,0.92635,241.622
558,0.928017,241.622
559,0.929683,239.998
560,0.93135,238.769
561,0.933017,237.674
562,0.934683,237.674
563,0.93635,236.407
564,0.938017,235.006
565,0.939683,232.928
566,0.941367,232.928
567,0.943017,231.341
568,0.9447,229.724
569,0.94635,228.129
570,0.948017,228.129
571,0.9496830000000001,226.982
572,0.95135,225.417
573,0.953017,225.417
574,0.9546829999999999,224.397
575,0.95635,223.316
576,0.958017,222.281
577,0.959667,222.281
578,0.961333,221.275
579,0.963,220.075
580,0.9646670000000001,219.062
581,0.966333,219.062
582,0.968,217.855
583,0.9696669999999999,216.566
584,0.971333,215.113
585,0.973,215.113
586,0.974667,213.929
587,0.976333,212.856
588,0.978,212.856
589,0.97965,212.14
590,0.981317,211.492
591,0.9829830000000001,210.688
592,0.98465,210.688
593,0.986317,209.577
594,0.9879829999999999,208.125
595,0.989717,207.402
596,0.991317,207.402
597,0.9929829999999999,206.701
598,0.99465,206.165
599,0.996317,205.457
600,0.997983,205.457
601,0.99965,204.332
602,1.001317,203.297
603,1.002983,202.373
604,1.00465,202.373
605,1.006317,201.479
606,1.008017,200.659
607,1.009667,200.659
608,1.011317,199.683
609,1.012983,198.714
610,1.01465,198.148
611,1.016317,198.148
612,1.017967,197.358
613,1.019633,196.688
614,1.0213,195.98
615,1.02305,195.98
616,1.024633,195.019
617,1.0263,194.311
618,1.027967,193.506
619,1.029633,193.506
620,1.0313,193.022
621,1.032967,192.419
622,1.034633,192.419
623,1.0363,191.785
624,1.037967,191.242
625,1.039633,190.802
626,1.0413,190.802
627,1.042967,190.504
628,1.044633,189.885
629,1.0463,189.103
630,1.047967,189.103
631,1.049633,188.239
632,1.0513,187.747
633,1.052967,187.464
634,1.054633,187.464
635,1.0563,186.972
636,1.057967,186.339
637,1.059633,185.497
638,1.0613,185.497
639,1.062967,184.819
640,1.064633,184.387
641,1.0663,184.387
642,1.067967,183.888
643,1.069633,183.545
644,1.0713,183.24
645,1.072967,183.24
646,1.074633,182.748
647,1.0763,182.413
648,1.077967,181.787
649,1.079617,181.787
650,1.081283,181.079
651,1.08295,180.431
652,1.084617,179.827
653,1.086283,179.827
654,1.08795,179.44
655,1.089617,178.717
656,1.091283,178.717
657,1.092967,178.464
658,1.094617,178.069
659,1.096283,177.845
660,1.09795,177.845
661,1.099617,177.763
662,1.101283,177.57
663,1.10295,177.339
664,1.104617,177.339
665,1.106283,176.698
666,1.107967,176.035
667,1.109617,175.305
668,1.111283,175.305
669,1.11295,175.096
670,1.114617,175.118
671,1.116283,175.007
672,1.11795,175.007
673,1.119633,174.984
674,1.121283,174.433
675,1.12295,174.433
676,1.1247,173.785
677,1.126283,173.457
678,1.12795,172.891
679,1.129617,172.891
680,1.131283,172.526
681,1.13295,172.198
682,1.134617,171.848
683,1.136283,171.848
684,1.13795,171.587
685,1.1396,171.311
686,1.14135,171.036
687,1.142933,171.036
688,1.1446,170.879
689,1.146267,170.782
690,1.147933,170.782
691,1.1496,170.656
692,1.151267,170.365
693,1.152933,169.933
694,1.154617,169.933
695,1.156267,169.471
696,1.157933,169.039
697,1.1596,168.815
698,1.161267,168.815
699,1.162933,168.785
700,1.1646,168.54
701,1.166267,168.055
702,1.167933,168.055
703,1.1696,167.66
704,1.171267,167.191
705,1.172933,167.191
706,1.1746,166.908
707,1.176267,166.684
708,1.177933,166.64
709,1.1796,166.64
710,1.181267,166.453
711,1.182933,166.111
712,1.1846,166.118
713,1.186267,166.118
714,1.187933,165.649
715,1.1896,165.239
716,1.191267,165.105
717,1.192933,165.105
718,1.1946,164.658
719,1.196267,164.524
720,1.197933,164.479
721,1.1996,164.479
722,1.20125,164.255
723,1.202917,164.121
724,1.204583,164.121
725,1.20625,164.032
726,1.207917,164.032
727,1.209583,163.92
728,1.21125,163.92
729,1.212917,163.712
730,1.214583,163.347
731,1.21625,162.885
732,1.217933,162.885
733,1.219583,162.728
734,1.22125,162.758
735,1.222917,162.639
736,1.224583,162.639
737,1.22625,162.616
738,1.227917,162.177
739,1.229583,162.177
740,1.23125,161.879
741,1.232917,161.909
742,1.234583,161.447
743,1.23625,161.447
744,1.237917,161.402
745,1.239583,161.424
746,1.24125,161.298
747,1.242967,161.298
748,1.244583,161.432
749,1.24625,161.342
750,1.247917,161.104
751,1.249583,161.104
752,1.25125,160.746
753,1.252917,160.538
754,1.254583,160.381
755,1.25625,160.381
756,1.257917,160.202
757,1.25965,160.098
758,1.261233,160.098
759,1.2629,160.113
760,1.2646,160.068
761,1.266233,159.726
762,1.2679,159.726
763,1.269567,159.495
764,1.271217,158.951
765,1.272883,158.854
766,1.27455,158.854
767,1.2763,158.906
768,1.277883,158.913
769,1.27955,158.861
770,1.281217,158.861
771,1.282883,158.787
772,1.28455,158.653
773,1.286217,158.653
774,1.287883,158.451
775,1.28955,158.481
776,1.291217,158.459
777,1.2929,158.459
778,1.294567,158.302
779,1.296217,158.094
780,1.297883,157.684
781,1.29955,157.684
782,1.301217,157.155
783,1.302883,156.932
784,1.30455,156.872
785,1.306217,156.872
786,1.307883,156.797
787,1.30955,156.775
788,1.311217,156.648
789,1.312883,156.648
790,1.31455,156.432
791,1.316217,156.417
792,1.317883,156.417
793,1.319533,156.283
794,1.3212,156.149
795,1.322867,156.112
796,1.324533,156.112
797,1.3262,156
798,1.327867,155.836
799,1.329533,155.911
800,1.3312,155.911
801,1.332867,155.889
802,1.334533,155.672
803,1.3362,155.397
804,1.337867,155.397
805,1.339533,155.233
806,1.3412,154.905
807,1.342867,154.905
808,1.344533,155.054
809,1.346217,155.121
810,1.347867,154.875
811,1.349533,154.875
812,1.3512,155.129
813,1.352867,155.032
814,1.354533,155.315
815,1.3562,155.315
816,1.357867,155.583
817,1.359533,155.471
818,1.361217,155.628
819,1.362867,155.628
820,1.364533,155.225
821,1.3662,155.024
822,1.367867,155.024
823,1.369533,154.957
824,1.3712,154.369
825,1.372867,154.309
826,1.374533,154.309
827,1.3762,154.063
828,1.377933,153.825
829,1.379517,153.922
830,1.381183,153.922
831,1.38285,153.966
832,1.384517,153.966
833,1.386183,154.011
834,1.38785,154.011
835,1.389517,153.832
836,1.391183,153.475
837,1.39285,153.571
838,1.394633,153.571
839,1.396183,153.229
840,1.39785,153.43
841,1.399517,153.43
842,1.401183,153.75
843,1.40285,153.311
844,1.404517,153.393
845,1.406183,153.393
846,1.40785,153.027
847,1.409517,152.729
848,1.411183,152.677
849,1.41285,152.677
850,1.414517,152.573
851,1.416183,152.677
852,1.41785,152.595
853,1.419517,152.595
854,1.421183,152.916
855,1.42285,152.744
856,1.424517,152.744
857,1.426183,152.789
858,1.42785,152.804
859,1.429517,152.484
860,1.431183,152.484
861,1.432883,152.528
862,1.434583,152.223
863,1.436183,152.171
864,1.437833,152.171
865,1.4395,152.029
866,1.441167,151.925
867,1.442833,152.2
868,1.4445,152.2
869,1.446167,152.253
870,1.447833,152.066
871,1.4495,151.902
872,1.451167,151.902
873,1.452833,151.366
874,1.4545,151.113
875,1.456167,151.113
876,1.457833,151.441
877,1.4595,151.567
878,1.461167,151.858
879,1.462833,151.858
880,1.4645,151.776
881,1.466167,151.351
882,1.467833,151.366
883,1.4695,151.366
884,1.471167,151.291
885,1.472833,151.388
886,1.4745,151.537
887,1.476167,151.537
888,1.477833,151.284
889,1.4795,150.986
890,1.481167,150.986
891,1.482833,150.889
892,1.4845,150.807
893,1.486167,150.807
894,1.487833,150.807
895,1.4895,150.636
896,1.491167,150.636
897,1.492833,150.703
898,1.4945,150.703
899,1.496217,150.777
900,1.497817,150.926
901,1.4995,150.673
902,1.50115,150.673
903,1.502817,150.204
904,1.504483,149.801
905,1.50615,149.794
906,1.507817,149.794
907,1.5095,149.697
908,1.5112,149.928
909,1.51295,150.114
910,1.514483,150.114
911,1.51615,150.129
912,1.517817,150.129
913,1.519483,150.129
914,1.52115,150.032
915,1.522833,150.122
916,1.524483,150.07
917,1.52615,150.07
918,1.527817,149.935
919,1.529483,149.988
920,1.53115,149.921
921,1.532817,149.921
922,1.534483,149.57
923,1.53615,149.585
924,1.537817,149.585
925,1.539483,149.541
926,1.54115,149.563
927,1.542817,149.57
928,1.544483,149.57
929,1.54615,149.757
930,1.547817,150.01
931,1.549483,149.794
932,1.55115,149.794
933,1.552817,149.786
934,1.554483,149.518
935,1.55615,149.012
936,1.557817,149.012
937,1.559483,149.012
938,1.561133,149.131
939,1.562783,149.131
