"ID","sea_time","fid_signal"
1,0,1215.115
2,0.001683,1217.797
3,0.003333,1218.542
4,0.005,1218.095
5,0.006667,1218.095
6,0.008333,1214.817
7,0.0101,1207.59
8,0.011667,1202.673
9,0.013333,1202.673
10,0.015,1202.449
11,0.016667,1204.684
12,0.018333,1209.527
13,0.02,1209.527
14,0.021667,1209.9
15,0.023333,1207.963
16,0.025,1207.963
17,0.026767,1206.174
18,0.028333,1206.174
19,0.03,1206.473
20,0.031667,1206.473
21,0.033333,1207.441
22,0.035,1210.421
23,0.036667,1211.39
24,0.038333,1211.39
25,0.04,1215.264
26,0.041667,1216.978
27,0.043433,1216.978
28,0.045,1216.978
29,0.04665,1216.456
30,0.048317,1216.233
31,0.049983,1216.233
32,0.05165,1214.519
33,0.053317,1211.539
34,0.054983,1208.559
35,0.05665,1208.559
36,0.058333,1206.771
37,0.059983,1208.037
38,0.06165,1209.229
39,0.063317,1209.229
40,0.064983,1209.155
41,0.06665,1210.719
42,0.068317,1209.006
43,0.069983,1209.006
44,0.07165000000000001,1208.186
45,0.07331699999999999,1210.049
46,0.075,1207.143
47,0.07665,1207.143
48,0.078317,1209.825
49,0.079983,1211.613
50,0.08165,1211.613
51,0.083317,1212.656
52,0.084983,1213.402
53,0.08665,1213.849
54,0.08831700000000001,1213.849
55,0.08998299999999999,1214.594
56,0.09165,1211.315
57,0.093317,1210.421
58,0.094983,1210.421
59,0.09665,1207.516
60,0.098317,1203.865
61,0.099983,1205.876
62,0.10165,1205.876
63,0.103317,1205.802
64,0.104983,1206.026
65,0.106633,1206.026
66,0.1083,1208.559
67,0.109967,1209.676
68,0.111633,1212.284
69,0.1133,1212.284
70,0.114967,1215.562
71,0.116633,1217.201
72,0.1183,1212.656
73,0.119967,1212.656
74,0.121633,1211.539
75,0.1233,1208.112
76,0.124967,1205.504
77,0.126633,1205.504
78,0.128367,1208.037
79,0.129967,1208.037
80,0.131633,1208.037
81,0.1333,1210.943
82,0.134967,1211.688
83,0.136633,1213.402
84,0.1383,1213.402
85,0.139967,1213.178
86,0.141633,1211.986
87,0.1433,1210.57
88,0.145017,1210.57
89,0.146633,1205.429
90,0.1483,1202.822
91,0.149967,1199.916
92,0.151633,1199.916
93,0.1533,1200.512
94,0.154967,1200.959
95,0.156633,1201.257
96,0.1583,1201.257
97,0.159967,1203.865
98,0.1617,1205.802
99,0.1633,1205.802
100,0.164967,1209.08
101,0.166617,1210.794
102,0.168283,1210.943
103,0.16995,1210.943
104,0.171617,1209.229
105,0.173283,1210.272
106,0.17495,1212.209
107,0.176617,1212.209
108,0.178283,1210.496
109,0.17995,1212.806
110,0.181617,1210.794
111,0.183283,1210.794
112,0.18495,1207.143
113,0.186617,1204.833
114,0.188283,1204.833
115,0.18995,1202.226
116,0.191617,1200.959
117,0.193283,1202.449
118,0.19495,1202.449
119,0.196617,1205.802
120,0.198283,1206.473
121,0.19995,1208.633
122,0.201617,1208.633
123,0.203283,1208.633
124,0.20495,1208.037
125,0.206617,1207.665
126,0.208283,1207.665
127,0.20995,1204.014
128,0.211617,1206.174
129,0.213283,1207.441
130,0.214933,1207.441
131,0.2166,1204.312
132,0.218267,1204.908
133,0.219933,1204.908
134,0.221617,1202.077
135,0.223267,1201.257
136,0.224917,1203.79
137,0.226583,1203.79
138,0.22825,1204.833
139,0.229917,1202.747
140,0.231583,1201.257
141,0.233267,1201.257
142,0.234917,1201.555
143,0.236583,1203.12
144,0.23825,1206.1
145,0.239917,1206.1
146,0.241583,1205.206
147,0.24325,1204.461
148,0.244917,1204.461
149,0.2466,1202.896
150,0.24825,1199.171
151,0.249917,1201.779
152,0.251583,1201.779
153,0.25325,1203.045
154,0.254917,1205.206
155,0.256583,1209.751
156,0.25825,1209.751
157,0.259917,1208.41
158,0.261583,1209.676
159,0.2633,1207.292
160,0.264917,1207.292
161,0.266583,1202.598
162,0.26825,1202.3
163,0.269917,1199.916
164,0.271583,1199.916
165,0.27325,1202.524
166,0.274917,1205.653
167,0.276583,1205.653
168,0.27825,1202.673
169,0.280017,1202.747
170,0.281583,1200.214
171,0.28325,1200.214
172,0.2849,1199.469
173,0.286567,1200.661
174,0.288233,1199.022
175,0.2899,1199.022
176,0.2916,1197.383
177,0.293233,1197.457
178,0.2949,1198.947
179,0.296567,1198.947
180,0.298233,1203.343
181,0.2999,1207.665
182,0.301567,1207.665
183,0.303233,1211.539
184,0.3049,1216.307
185,0.306567,1221.15
186,0.308233,1221.15
187,0.3099,1224.726
188,0.311567,1228.303
189,0.31325,1229.271
190,0.3149,1229.271
191,0.316567,1232.624
192,0.318233,1237.839
193,0.3199,1246.035
194,0.321567,1246.035
195,0.323233,1260.638
196,0.3249,1277.402
197,0.326567,1277.402
198,0.328233,1297.221
199,0.3299,1318.008
200,0.331567,1341.924
201,0.333233,1341.924
202,0.3349,1365.617
203,0.336567,1396.835
204,0.338233,1436.472
205,0.3399,1436.472
206,0.341567,1478.866
207,0.343233,1527.146
208,0.344883,1578.182
209,0.34655,1578.182
210,0.348217,1629.74
211,0.349883,1687.333
212,0.35155,1754.537
213,0.353217,1754.537
214,0.354883,1828.596
215,0.35655,1912.564
216,0.358217,1912.564
217,0.359883,2006.143
218,0.36155,2105.981
219,0.363217,2220.124
220,0.364967,2220.124
221,0.36655,2350.584
222,0.368217,2503.172
223,0.369883,2689.287
224,0.37155,2689.287
225,0.373217,2910.867
226,0.374883,3186.315
227,0.37655,3532.171
228,0.378217,3532.171
229,0.379883,3968.626
230,0.38155,4526.6
231,0.383217,4526.6
232,0.384883,5228.966
233,0.38655,6107.986
234,0.388217,7195.994
235,0.389883,7195.994
236,0.39155,8537.843999999999
237,0.393217,10178.983
238,0.394883,12175.217
239,0.39655,12175.217
240,0.398317,14604.554
241,0.399883,17546.266
242,0.40155,21086.41
243,0.403217,21086.41
244,0.404883,25301.947
245,0.406533,30226.484
246,0.4082,35858.973
247,0.409867,35858.973
248,0.411533,42150.84
249,0.4132,49002.172
250,0.414867,49002.172
251,0.416533,56280.27
252,0.4182,63823.313
253,0.419867,71453.30499999999
254,0.421533,71453.30499999999
255,0.4232,78993.367
256,0.424867,86264.758
257,0.426533,93101.711
258,0.4282,93101.711
259,0.4299,99356.25
260,0.431533,104895.313
261,0.4332,109617.266
262,0.434867,109617.266
263,0.436533,113438.961
264,0.4382,116312.875
265,0.439867,116312.875
266,0.441533,118213.148
267,0.4432,119133.148
268,0.444867,119092.539
269,0.446533,119092.539
270,0.4482,118123.445
271,0.449867,116278.602
272,0.451533,113626.945
273,0.4532,113626.945
274,0.454867,110250.188
275,0.456533,106236.563
276,0.4582,101682.992
277,0.459867,101682.992
278,0.461533,96688.57000000001
279,0.463183,91353.508
280,0.46485,85775.406
281,0.466517,85775.406
282,0.468183,80043.602
283,0.46985,74253.008
284,0.471517,74253.008
285,0.473183,68492.891
286,0.47485,62839.465
287,0.476517,57363.883
288,0.478183,57363.883
289,0.47985,52124.859
290,0.481517,47163.219
291,0.483183,42519.27
292,0.48485,42519.27
293,0.486517,38222.223
294,0.488183,34284.145
295,0.48985,30710.623
296,0.491517,30710.623
297,0.493183,27492.717
298,0.49485,24617.166
299,0.496517,24617.166
300,0.498183,22061.467
301,0.499867,19799.992
302,0.501517,17808.824
303,0.503183,17808.824
304,0.50485,16048.774
305,0.5065,14496.445
306,0.508167,13121.366
307,0.509833,13121.366
308,0.5115,11896.417
309,0.513167,10812.953
310,0.514833,9841.323
311,0.516617,9841.323
312,0.518167,8972.734
313,0.519833,8196.905000000001
314,0.5215,8196.905000000001
315,0.52315,7495.88
316,0.524817,6868.69
317,0.526483,6311.313
318,0.52815,6311.313
319,0.529817,5808.324
320,0.531483,5359.575
321,0.53315,4959.479
322,0.534817,4959.479
323,0.536483,4598.424
324,0.53815,4276.782
325,0.539817,3991.648
326,0.541483,3991.648
327,0.54315,3736.243
328,0.544817,3506.616
329,0.5464830000000001,3304.928
330,0.54815,3304.928
331,0.549817,3122.762
332,0.5514829999999999,2963.617
333,0.55315,2963.617
334,0.554817,2821.311
335,0.5564829999999999,2695.769
336,0.55815,2586.543
337,0.559817,2586.543
338,0.561483,2483.353
339,0.563183,2392.456
340,0.564817,2309.531
341,0.566483,2309.531
342,0.56815,2232.343
343,0.569833,2167.299
344,0.571483,2106.503
345,0.57315,2106.503
346,0.574817,2050.623
347,0.576483,2000.853
348,0.5781500000000001,2000.853
349,0.579817,1954.287
350,0.581483,1913.98
351,0.5831499999999999,1876.429
352,0.5848,1876.429
353,0.586467,1841.784
354,0.588133,1809.448
355,0.5898,1780.689
356,0.591467,1780.689
357,0.593133,1756.847
358,0.5948,1731.738
359,0.596467,1710.355
360,0.598133,1710.355
361,0.5998,1689.941
362,0.601533,1668.483
363,0.603133,1653.507
364,0.6048,1653.507
365,0.606467,1639.724
366,0.608133,1624.748
367,0.6098,1624.748
368,0.611467,1611.263
369,0.613133,1598.448
370,0.6148,1585.707
371,0.616467,1585.707
372,0.618133,1573.935
373,0.6198,1562.685
374,0.621467,1551.434
375,0.623133,1551.434
376,0.6248,1539.513
377,0.626467,1529.232
378,0.6281330000000001,1521.26
379,0.6298,1521.26
380,0.631467,1511.797
381,0.6331329999999999,1504.868
382,0.634917,1500.472
383,0.636467,1500.472
384,0.638133,1493.171
385,0.6398,1485.571
386,0.64145,1485.571
387,0.643133,1477.45
388,0.644783,1470.372
389,0.646483,1465.604
390,0.648133,1465.604
391,0.649783,1461.506
392,0.65145,1457.334
393,0.6531169999999999,1450.255
394,0.654783,1450.255
395,0.65645,1443.997
396,0.658117,1437.217
397,0.659783,1434.833
398,0.66145,1434.833
399,0.663117,1431.555
400,0.664783,1427.084
401,0.66645,1427.084
402,0.668117,1421.124
403,0.669783,1414.642
404,0.67145,1408.458
405,0.673117,1408.458
406,0.674783,1406.595
407,0.67645,1405.776
408,0.678117,1400.709
409,0.679783,1400.709
410,0.68145,1396.835
411,0.683117,1392.365
412,0.684783,1390.129
413,0.68645,1390.129
414,0.688117,1388.639
415,0.6898,1390.129
416,0.69145,1390.129
417,0.693117,1388.192
418,0.694783,1386.106
419,0.69645,1382.679
420,0.698117,1382.679
421,0.699783,1376.718
422,0.70145,1368.821
423,0.7030999999999999,1362.19
424,0.704783,1362.19
425,0.706433,1356.304
426,0.7081,1353.547
427,0.709767,1353.92
428,0.71145,1353.92
429,0.713133,1353.621
430,0.714767,1354.516
431,0.716433,1354.516
432,0.7181,1352.727
433,0.7198329999999999,1352.802
434,0.721433,1354.441
435,0.7231,1354.441
436,0.7247670000000001,1353.994
437,0.726433,1353.621
438,0.7281,1349.3
439,0.7297670000000001,1349.3
440,0.731433,1342.371
441,0.7331,1337.975
442,0.7347669999999999,1336.485
443,0.73645,1336.485
444,0.7381,1334.623
445,0.739767,1334.995
446,0.741433,1333.356
447,0.7431,1333.356
448,0.744767,1333.952
449,0.746433,1334.474
450,0.7481,1334.474
451,0.749767,1331.717
452,0.751433,1328.96
453,0.753167,1325.011
454,0.754767,1325.011
455,0.756433,1322.329
456,0.7581,1320.392
457,0.759767,1320.094
458,0.761433,1320.094
459,0.7631,1316.965
460,0.76475,1312.643
461,0.766417,1311.749
462,0.768083,1311.749
463,0.76975,1311.153
464,0.771417,1310.11
465,0.773083,1310.11
466,0.77475,1310.781
467,0.776417,1306.981
468,0.778083,1307.204
469,0.7797500000000001,1307.204
470,0.781417,1307.279
471,0.783083,1306.385
472,0.7847499999999999,1306.832
473,0.786417,1306.832
474,0.788117,1305.565
475,0.78975,1303.405
476,0.791417,1302.213
477,0.793083,1302.213
478,0.79475,1297.37
479,0.796417,1293.123
480,0.798067,1290.515
481,0.799733,1290.515
482,0.8014,1290.515
483,0.803067,1294.464
484,0.804733,1294.464
485,0.8064,1294.389
486,0.808067,1295.432
487,0.809733,1293.123
488,0.8114,1293.123
489,0.813067,1291.335
490,0.814733,1290.441
491,0.8164,1286.492
492,0.818067,1286.492
493,0.819733,1287.311
494,0.8214,1290.217
495,0.823067,1287.982
496,0.824733,1287.982
497,0.826383,1285.896
498,0.82805,1283.288
499,0.829717,1283.288
500,0.831383,1278.371
501,0.83305,1282.468
502,0.834717,1283.139
503,0.836383,1283.139
504,0.8381,1281.947
505,0.839717,1282.617
506,0.841383,1278.818
507,0.84305,1278.818
508,0.8447170000000001,1277.849
509,0.846383,1277.253
510,0.84805,1275.763
511,0.8497169999999999,1275.763
512,0.851383,1272.038
513,0.85305,1270.92
514,0.8548,1269.504
515,0.856383,1269.504
516,0.85805,1269.057
517,0.85975,1271.069
518,0.861383,1271.069
519,0.86305,1270.92
520,0.864733,1272.708
521,0.866383,1275.763
522,0.86805,1275.763
523,0.869717,1275.912
524,0.8715000000000001,1276.806
525,0.87305,1272.41
526,0.874717,1272.41
527,0.876383,1265.779
528,0.87805,1265.854
529,0.879717,1266.45
530,0.881383,1266.45
531,0.88305,1268.685
532,0.884717,1270.846
533,0.886367,1270.846
534,0.888117,1270.175
535,0.8897,1269.057
536,0.891367,1266.003
537,0.893033,1266.003
538,0.8947000000000001,1263.842
539,0.896367,1264.96
540,0.898033,1265.258
541,0.8997000000000001,1265.258
542,0.901367,1266.897
543,0.903033,1266.897
544,0.9046999999999999,1263.246
545,0.906367,1263.246
546,0.908033,1260.042
547,0.9097,1258.999
548,0.911367,1258.999
549,0.913033,1258.552
550,0.9147,1258.105
551,0.916367,1258.254
552,0.918033,1258.254
553,0.9197,1256.168
554,0.921367,1258.999
555,0.923033,1259.744
556,0.9247,1259.744
557,0.926383,1261.756
558,0.928033,1266.152
559,0.9297,1261.756
560,0.9313669999999999,1261.756
561,0.933033,1258.18
562,0.9347,1256.689
563,0.9363669999999999,1254.678
564,0.938033,1254.678
565,0.9397,1254.529
566,0.941383,1256.242
567,0.943033,1256.242
568,0.9447,1254.901
569,0.94635,1250.803
570,0.948017,1248.643
571,0.9496830000000001,1248.643
572,0.95135,1246.333
573,0.953017,1245.365
574,0.9546829999999999,1245.588
575,0.95635,1245.588
576,0.958017,1247.078
577,0.959683,1248.941
578,0.96135,1249.537
579,0.963017,1249.537
580,0.964683,1249.313
581,0.96635,1251.921
582,0.968017,1251.921
583,0.969683,1250.729
584,0.97135,1251.623
585,0.973067,1250.431
586,0.974683,1250.431
587,0.9763500000000001,1246.929
588,0.978017,1249.313
589,0.979683,1246.557
590,0.9813499999999999,1246.557
591,0.983017,1248.196
592,0.984683,1249.984
593,0.9863499999999999,1248.494
594,0.988017,1248.494
595,0.98975,1250.356
596,0.99135,1248.345
597,0.993017,1244.396
598,0.994683,1244.396
599,0.99635,1241.863
600,0.998017,1241.118
601,0.999683,1241.118
602,1.00135,1244.321
603,1.003,1246.184
604,1.0047,1244.172
605,1.0064,1244.172
606,1.008,1244.769
607,1.009667,1242.459
608,1.011333,1243.725
609,1.013,1243.725
610,1.014667,1247.227
611,1.016333,1244.098
612,1.018,1244.321
613,1.019667,1244.321
614,1.021333,1242.012
