"ID","sea_time","fid_signal"
1,0,146.039
2,0.001683,146.106
3,0.003333,145.957
4,0.005,145.957
5,0.006667,146.069
6,0.008333,145.644
7,0.01,145.644
8,0.011667,144.623
9,0.013383,143.96
10,0.015,143.647
11,0.016667,143.647
12,0.018333,143.744
13,0.02,144.191
14,0.021683,144.69
15,0.023333,144.69
16,0.025,144.891
17,0.026667,145.055
18,0.028333,145.331
19,0.03,145.331
20,0.03165,145.286
21,0.033317,145.279
22,0.034983,145.234
23,0.03665,145.234
24,0.038317,145.406
25,0.039983,145.227
26,0.04165,145.227
27,0.043317,145.093
28,0.044983,144.906
29,0.04675,144.742
30,0.048317,144.742
31,0.049983,144.951
32,0.051633,145.055
33,0.0533,145.458
34,0.054967,145.458
35,0.056633,145.629
36,0.0583,145.428
37,0.059967,145.517
38,0.061633,145.517
39,0.0633,145.279
40,0.064967,145.301
41,0.066633,145.301
42,0.0683,145.599
43,0.069967,145.793
44,0.071633,145.748
45,0.0733,145.748
46,0.07496700000000001,145.525
47,0.07663300000000001,145.309
48,0.07829999999999999,145.197
49,0.079967,145.197
50,0.081633,145.42
51,0.0833,145.771
52,0.084967,145.972
53,0.086633,145.972
54,0.0883,146.173
55,0.08996700000000001,145.972
56,0.09163300000000001,145.875
57,0.09329999999999999,145.875
58,0.094967,145.674
59,0.096633,145.286
60,0.0983,145.286
61,0.099967,145.502
62,0.101633,145.555
63,0.1033,145.897
64,0.104967,145.897
65,0.106633,145.718
66,0.1083,145.771
67,0.109967,145.875
68,0.111633,145.875
69,0.1133,145.882
70,0.11495,146.352
71,0.116617,146.054
72,0.118283,146.054
73,0.11995,145.957
74,0.121617,145.696
75,0.123283,145.696
76,0.12495,145.51
77,0.126617,145.674
78,0.128283,145.562
79,0.12995,145.562
80,0.131617,145.599
81,0.133283,145.793
82,0.13495,145.853
83,0.136617,145.853
84,0.138283,145.867
85,0.13995,145.8
86,0.141617,145.584
87,0.143283,145.584
88,0.14495,145.383
89,0.146617,145.249
90,0.148283,145.257
91,0.14995,145.257
92,0.151617,145.547
93,0.153283,145.748
94,0.15495,145.748
95,0.156617,145.935
96,0.158283,145.935
97,0.15995,145.517
98,0.161633,145.517
99,0.163283,145.376
100,0.165033,145.152
101,0.166633,145.465
102,0.168283,145.465
103,0.16995,145.733
104,0.171617,145.771
105,0.173283,145.711
106,0.174933,145.711
107,0.1766,145.569
108,0.178267,145.495
109,0.179933,145.495
110,0.1816,145.674
111,0.183267,145.92
112,0.184933,145.957
113,0.1866,145.957
114,0.188267,145.778
115,0.189933,145.726
116,0.1916,145.838
117,0.193267,145.838
118,0.194933,145.391
119,0.1966,145.756
120,0.198267,145.614
121,0.199933,145.614
122,0.2016,145.45
123,0.203267,145.867
124,0.204933,145.867
125,0.2066,145.674
126,0.208267,145.48
127,0.209933,145.227
128,0.2116,145.227
129,0.213267,145.234
130,0.214933,145.458
131,0.2166,145.882
132,0.218267,145.882
133,0.219933,146.382
134,0.2216,146.225
135,0.223267,146.084
136,0.224933,146.084
137,0.2266,145.86
138,0.228267,145.8
139,0.229933,145.882
140,0.2316,145.882
141,0.23325,145.622
142,0.234933,145.473
143,0.236583,145.473
144,0.23825,145.316
145,0.239917,145.197
146,0.241583,145.294
147,0.24325,145.294
148,0.244917,145.555
149,0.246583,145.726
150,0.24825,146.151
151,0.249983,146.151
152,0.251583,146.061
153,0.25325,146.076
154,0.254917,145.853
155,0.256583,145.853
156,0.25825,145.391
157,0.259917,145.458
158,0.261583,145.458
159,0.26325,145.234
160,0.264917,145.145
161,0.2667,145.502
162,0.26825,145.502
163,0.269917,145.786
164,0.271583,146.061
165,0.27325,146.195
166,0.274917,146.195
167,0.276583,146.054
168,0.27825,145.987
169,0.279917,145.711
170,0.281583,145.711
171,0.283367,145.637
172,0.284917,145.487
173,0.286583,145.212
174,0.28825,145.212
175,0.289917,145.51
176,0.291583,145.607
177,0.29325,145.607
178,0.2949,145.897
179,0.296567,146.374
180,0.298233,146.195
181,0.2999,146.195
182,0.301567,146.031
183,0.303233,145.666
184,0.3049,145.093
185,0.306567,145.093
186,0.308233,145.152
187,0.3099,145.182
188,0.3116,145.324
189,0.313233,145.324
190,0.3149,145.42
191,0.316567,145.502
192,0.318233,145.502
193,0.3199,145.718
194,0.321567,145.905
195,0.323217,146.098
196,0.324883,146.098
197,0.32655,145.972
198,0.328217,145.584
199,0.329883,145.443
200,0.33155,145.443
201,0.333217,145.532
202,0.334883,145.584
203,0.336567,146.076
204,0.338217,146.076
205,0.339883,146.344
206,0.34155,146.382
207,0.343217,146.478
208,0.344883,146.478
209,0.34655,146.367
210,0.348217,146.292
211,0.349883,146.292
212,0.35155,146.128
213,0.3532,146.098
214,0.354867,146.158
215,0.356533,146.158
216,0.3582,146.359
217,0.359867,146.732
218,0.361533,146.985
219,0.3632,146.985
220,0.364867,147.253
221,0.366533,147.261
222,0.368233,147.678
223,0.369867,147.678
224,0.371533,148.214
225,0.3732,148.989
226,0.374867,148.989
227,0.376533,150.129
228,0.3782,150.926
229,0.3799,151.843
230,0.381533,151.843
231,0.3832,152.633
232,0.38495,153.564
233,0.386533,154.518
234,0.3882,154.518
235,0.389867,155.777
236,0.391533,157.453
237,0.3932,158.682
238,0.394867,158.682
239,0.396533,160.262
240,0.3982,161.603
241,0.399867,161.603
242,0.401633,162.877
243,0.4032,164.464
244,0.404867,166.059
245,0.406533,166.059
246,0.4082,167.765
247,0.409867,169.367
248,0.411533,170.916
249,0.413183,170.916
250,0.41485,172.272
251,0.416517,173.576
252,0.418317,174.806
253,0.41985,174.806
254,0.421517,175.737
255,0.423183,176.37
256,0.42485,176.966
257,0.426517,176.966
258,0.428183,177.577
259,0.429867,178.143
260,0.431517,178.143
261,0.433183,178.523
262,0.43485,178.598
263,0.436517,178.099
264,0.438183,178.099
265,0.43985,178.009
266,0.441517,178.032
267,0.443183,177.681
268,0.44485,177.681
269,0.446517,177.398
270,0.448183,176.243
271,0.44985,175.111
272,0.451517,175.111
273,0.453183,174.128
274,0.45485,173.457
275,0.456517,173.457
276,0.458183,173.032
277,0.45985,172.451
278,0.461517,171.594
279,0.463183,171.594
280,0.46485,170.521
281,0.466517,169.374
282,0.468183,168.651
283,0.46985,168.651
284,0.471517,167.735
285,0.473167,166.543
286,0.474833,165.708
287,0.4765,165.708
288,0.478167,164.956
289,0.479833,164.688
290,0.4815,164.524
291,0.483167,164.524
292,0.484833,164.181
293,0.486517,163.592
294,0.488167,163.592
295,0.489833,162.892
296,0.4915,162.363
297,0.493167,161.73
298,0.494833,161.73
299,0.4965,161.007
300,0.498167,160.448
301,0.499833,159.979
302,0.5014999999999999,159.979
303,0.503233,159.621
304,0.504833,159.331
305,0.5065,158.876
306,0.508167,158.876
307,0.509833,158.295
308,0.5115,157.796
309,0.513167,157.796
310,0.514833,157.282
311,0.5165,157.155
312,0.518167,156.902
313,0.5199,156.902
314,0.5215,156.671
315,0.523167,156.306
316,0.52485,156.082
317,0.5265,156.082
318,0.5281670000000001,155.658
319,0.529833,155.278
320,0.5315,154.972
321,0.5331669999999999,154.972
322,0.534817,154.309
323,0.536617,154.003
324,0.53815,153.758
325,0.539817,153.758
326,0.541483,153.75
327,0.54315,153.415
328,0.544817,153.415
329,0.5464830000000001,153.497
330,0.54815,153.355
331,0.549817,153.326
332,0.5514829999999999,153.326
333,0.55315,153.542
334,0.554817,152.878
335,0.5564829999999999,152.484
336,0.55815,152.484
337,0.559817,152.364
338,0.561483,152.156
339,0.56315,152.461
340,0.564833,152.461
341,0.566483,152.491
342,0.56815,152.044
343,0.569817,152.044
344,0.571483,151.858
345,0.57315,151.724
346,0.574817,151.858
347,0.576483,151.858
348,0.5781500000000001,152.066
349,0.579817,152.372
350,0.581483,152.364
351,0.5831499999999999,152.364
352,0.584817,152.074
353,0.586483,151.739
354,0.588167,151.373
355,0.589817,151.373
356,0.591483,151.448
357,0.593133,151.835
358,0.5948,151.835
359,0.5965,152.022
360,0.598133,151.888
361,0.5998,151.806
362,0.601467,151.806
363,0.603133,151.537
364,0.6048,151.254
365,0.606467,151.172
366,0.608133,151.172
367,0.6098,150.971
368,0.611467,150.733
369,0.613133,150.859
370,0.614783,150.859
371,0.6164500000000001,151.105
372,0.618117,150.889
373,0.619783,150.762
374,0.621517,150.762
375,0.623117,150.718
376,0.624783,150.412
377,0.62645,150.412
378,0.628117,150.405
379,0.629783,150.464
380,0.63145,150.211
381,0.633117,150.211
382,0.634783,150.189
383,0.63645,150.152
384,0.63815,150.204
385,0.639783,150.204
386,0.64145,150.032
387,0.643117,150.189
388,0.644783,150.308
389,0.64645,150.308
390,0.6481170000000001,150.464
391,0.649783,150.815
392,0.65145,150.815
393,0.6531,150.777
394,0.654817,150.725
395,0.656433,150.77
396,0.6581,150.77
397,0.659767,150.904
398,0.661433,150.934
399,0.6631,151.217
400,0.664767,151.217
401,0.6664330000000001,151.269
402,0.6681,151.314
403,0.669767,151.977
404,0.6715,151.977
405,0.6731,152.402
406,0.674767,152.938
407,0.676433,153.594
408,0.6781,153.594
409,0.679767,153.564
410,0.681433,153.549
411,0.6831,153.549
412,0.684767,153.594
413,0.686433,153.489
414,0.6881,153.571
415,0.689767,153.571
416,0.691433,153.929
417,0.6931,154.19
418,0.694767,154.339
419,0.696433,154.339
420,0.6981000000000001,154.518
421,0.699767,154.503
422,0.701433,154.48
423,0.7030999999999999,154.48
424,0.704767,154.614
425,0.706433,154.532
426,0.7081,154.532
427,0.709767,154.659
428,0.711433,154.443
429,0.7131,154.369
430,0.71475,154.369
431,0.716417,154.279
432,0.718083,154.026
433,0.71975,154.085
434,0.721417,154.085
435,0.723083,154.279
436,0.72475,154.294
437,0.726417,154.153
438,0.728083,154.153
439,0.72975,153.944
440,0.731417,153.475
441,0.733083,153.609
442,0.73475,153.609
443,0.736417,153.571
444,0.7381,153.78
445,0.739767,153.78
446,0.741417,154.294
447,0.743083,154.309
448,0.74475,154.726
449,0.746433,154.726
450,0.7480830000000001,154.793
451,0.74975,154.763
452,0.751417,155.136
453,0.7530829999999999,155.136
454,0.75475,155.65
455,0.756417,156.641
456,0.758083,157.781
457,0.75975,157.781
458,0.761417,158.973
459,0.763083,160.15
460,0.76475,160.15
461,0.766417,161.335
462,0.768083,162.832
463,0.76975,164.524
464,0.771417,164.524
465,0.773183,166.349
466,0.774733,168.361
467,0.7764,170.305
468,0.778067,170.305
469,0.779733,172.667
470,0.7814,175.275
471,0.783067,178.225
472,0.784733,178.225
473,0.7864,181.735
474,0.788067,185.624
475,0.789733,185.624
476,0.7914,189.93
477,0.793067,194.81
478,0.794733,199.854
479,0.7964,199.854
480,0.798067,205.204
481,0.799733,210.837
482,0.8014,216.827
483,0.803067,216.827
484,0.804733,223.346
485,0.8064,230.528
486,0.808067,238.53
487,0.809733,238.53
488,0.8114,247.173
489,0.813083,256.598
490,0.814733,266.753
491,0.8164,266.753
492,0.818067,277.571
493,0.819733,288.889
494,0.8214,288.889
495,0.823067,301.13
496,0.824733,314.347
497,0.8264,328.273
498,0.828067,328.273
499,0.8297330000000001,343.248
500,0.831417,359.043
501,0.83305,375.554
502,0.834717,375.554
503,0.836383,393.063
504,0.83805,411.816
505,0.839717,431.478
506,0.841383,431.478
507,0.84305,452.578
508,0.8447170000000001,475.012
509,0.846383,475.012
510,0.84805,498.362
511,0.8497169999999999,522.822
512,0.851383,548.02
513,0.85305,548.02
514,0.8547169999999999,574.544
515,0.856383,601.873
516,0.858117,630.625
517,0.859717,630.625
518,0.861383,660.211
519,0.86305,690.393
520,0.864717,722.006
521,0.866383,722.006
522,0.86805,754.528
523,0.869717,788.2859999999999
524,0.871383,823.006
525,0.87305,823.006
526,0.874717,858.203
527,0.876383,893.995
528,0.87805,893.995
529,0.879717,930.3390000000001
530,0.881383,967.503
531,0.88305,1005.62
532,0.884717,1005.62
533,0.8864,1044.013
534,0.88805,1083.069
535,0.889717,1122.4
536,0.8915,1122.4
537,0.893033,1162.06
538,0.8947000000000001,1201.905
539,0.896367,1241.527
540,0.898033,1241.527
541,0.8997000000000001,1281.433
542,0.901367,1320.802
543,0.903033,1320.802
544,0.9046999999999999,1360.074
545,0.90635,1399.1
546,0.908017,1437.478
547,0.909683,1437.478
548,0.91135,1476.02
549,0.913017,1513.891
550,0.9147,1551.464
551,0.91635,1551.464
552,0.918017,1588.374
553,0.919683,1624.323
554,0.92135,1659.691
555,0.923017,1659.691
556,0.924683,1694.009
557,0.92635,1727.76
558,0.928017,1760.356
559,0.929683,1760.356
560,0.93135,1792.066
561,0.933017,1822.978
562,0.934683,1822.978
563,0.93635,1852.587
564,0.938017,1880.832
565,0.939683,1907.706
566,0.94135,1907.706
567,0.943017,1933.575
568,0.9446830000000001,1958.169
569,0.94635,1981.966
570,0.948017,1981.966
571,0.9496830000000001,2004.311
572,0.951333,2024.8
573,0.953033,2043.933
574,0.954667,2043.933
575,0.956333,2061.725
576,0.958,2078.526
577,0.959667,2078.526
578,0.961333,2094.328
579,0.963,2108.865
580,0.9646670000000001,2121.836
581,0.966333,2121.836
582,0.968,2133.511
583,0.9696669999999999,2143.733
584,0.971333,2152.637
585,0.973,2152.637
586,0.974667,2160.445
587,0.9764,2167.001
588,0.978,2172.694
589,0.979667,2172.694
590,0.981333,2177.231
591,0.983,2180.74
592,0.984667,2180.74
593,0.986333,2183.184
594,0.988,2184.421
595,0.989667,2185.144
596,0.991333,2185.144
597,0.993,2184.868
598,0.994667,2183.75
599,0.996333,2182.156
600,0.998,2182.156
601,0.999667,2179.474
602,1.001333,2175.86
603,1.003,2171.71
604,1.004667,2171.71
605,1.006333,2166.443
606,1.008033,2160.765
607,1.009767,2154.7
608,1.011333,2154.7
609,1.013,2148.256
610,1.01465,2141.409
611,1.016317,2141.409
612,1.017983,2133.794
613,1.01965,2126.075
614,1.021317,2117.731
615,1.022983,2117.731
616,1.02465,2109.103
617,1.026317,2100.348
618,1.027983,2090.737
619,1.02965,2090.737
620,1.031317,2081.037
621,1.032983,2071.045
622,1.03465,2061.076
623,1.036317,2061.076
624,1.037983,2051.227
625,1.03965,2041.116
626,1.041317,2041.116
627,1.042983,2030.939
628,1.04465,2020.292
629,1.046317,2009.697
630,1.047983,2009.697
631,1.04965,1999.095
632,1.051317,1988.165
633,1.052983,1977.399
634,1.05465,1977.399
635,1.056317,1966.432
636,1.057983,1955.33
637,1.05965,1944.549
638,1.061317,1944.549
639,1.062983,1933.806
640,1.06465,1923.226
641,1.066317,1912.676
642,1.067983,1912.676
643,1.06965,1901.932
644,1.071317,1891.039
645,1.072967,1891.039
646,1.074633,1879.916
647,1.0763,1869.12
648,1.077967,1858.532
649,1.079633,1858.532
650,1.0813,1848.213
651,1.082967,1837.701
652,1.084633,1827.21
653,1.0863,1827.21
654,1.087967,1816.966
655,1.089633,1806.431
656,1.091317,1796.246
657,1.092967,1796.246
658,1.094683,1785.867
659,1.0963,1775.414
660,1.097967,1775.414
661,1.099633,1765.46
662,1.1013,1755.565
663,1.102967,1745.984
664,1.104633,1745.984
665,1.1063,1736.358
666,1.107967,1726.724
667,1.109633,1717.374
668,1.111367,1717.374
669,1.112967,1708.008
670,1.114633,1699.001
671,1.1163,1689.807
672,1.117967,1689.807
673,1.119633,1680.829
674,1.1213,1672.097
675,1.122967,1663.104
676,1.124633,1663.104
677,1.1263,1654.252
678,1.128067,1645.573
679,1.129633,1645.573
680,1.1313,1636.93
681,1.132967,1628.511
682,1.134617,1620.203
683,1.136283,1620.203
684,1.137967,1611.695
685,1.139617,1603.223
686,1.141283,1594.797
687,1.142967,1594.797
688,1.144617,1586.735
689,1.146283,1578.793
690,1.14795,1570.784
691,1.149617,1570.784
692,1.151283,1563.035
693,1.15295,1555.003
694,1.154617,1555.003
695,1.156283,1547.217
696,1.15795,1539.29
697,1.159617,1531.467
698,1.161283,1531.467
699,1.16295,1524.061
700,1.164633,1516.491
701,1.166283,1509.212
702,1.16795,1509.212
703,1.169617,1501.985
704,1.171283,1494.572
705,1.17295,1487.456
706,1.174617,1487.456
707,1.176283,1480.333
708,1.17795,1473.039
709,1.179617,1466.11
710,1.181283,1466.11
711,1.18295,1459.062
712,1.184617,1452.163
713,1.186283,1452.163
714,1.18795,1445.457
715,1.189617,1438.804
716,1.191283,1432.076
717,1.192933,1432.076
718,1.1946,1425.415
719,1.196267,1418.874
720,1.197917,1412.258
721,1.199583,1412.258
722,1.20125,1405.708
723,1.202917,1399.286
724,1.204583,1392.566
725,1.20625,1392.566
726,1.207917,1386.166
727,1.209583,1380.026
728,1.21125,1380.026
729,1.212967,1373.649
730,1.214583,1367.807
731,1.21625,1361.564
732,1.217917,1361.564
733,1.219583,1355.454
734,1.22125,1349.427
735,1.222917,1343.407
736,1.224583,1343.407
737,1.22625,1337.722
738,1.227917,1332.387
739,1.229633,1326.933
740,1.23125,1326.933
741,1.232917,1321.495
742,1.234583,1316.033
743,1.23625,1316.033
744,1.237933,1310.267
745,1.239583,1304.776
746,1.24125,1299.202
747,1.242917,1299.202
748,1.244583,1293.711
749,1.24635,1288.228
750,1.247917,1283.206
751,1.249583,1283.206
752,1.25125,1277.991
753,1.252917,1272.596
754,1.254567,1267.351
755,1.256233,1267.351
756,1.2579,1262.143
757,1.259567,1257.241
758,1.261233,1252.651
759,1.2629,1252.651
760,1.264567,1247.98
761,1.266233,1243.025
762,1.2679,1243.025
763,1.269567,1238.286
764,1.271233,1233.339
765,1.2729,1228.63
766,1.274567,1228.63
767,1.276233,1224.056
768,1.2779,1219.235
769,1.279567,1214.512
770,1.281233,1214.512
771,1.2829,1209.751
772,1.284567,1205.206
773,1.286233,1200.773
774,1.2879,1200.773
775,1.289567,1196.511
776,1.291233,1192.13
777,1.2929,1192.13
778,1.294567,1187.742
779,1.296233,1183.465
780,1.2979,1179.233
781,1.299567,1179.233
782,1.301233,1174.8
783,1.3029,1170.658
784,1.304567,1166.426
785,1.306233,1166.426
786,1.3079,1162.432
787,1.309567,1158.707
788,1.31125,1154.631
789,1.312933,1154.631
790,1.31455,1150.452
791,1.316217,1146.011
792,1.3179,1141.667
793,1.31955,1141.667
794,1.321217,1137.719
795,1.322883,1133.993
796,1.32455,1133.993
797,1.326217,1130.193
798,1.327883,1126.654
799,1.32955,1122.735
800,1.331217,1122.735
801,1.332883,1118.794
802,1.33455,1114.883
803,1.336217,1111.046
804,1.337883,1111.046
805,1.33955,1107.238
806,1.341217,1103.908
807,1.342883,1100.704
808,1.34455,1100.704
809,1.346217,1097.232
810,1.347933,1093.857
811,1.34955,1093.857
812,1.351217,1089.968
813,1.352883,1086.228
814,1.35455,1082.636
815,1.356217,1082.636
816,1.357883,1079.15
817,1.35955,1076.214
818,1.361217,1073.055
819,1.362883,1073.055
820,1.364617,1069.568
821,1.366217,1066.066
822,1.367883,1062.199
823,1.36955,1062.199
824,1.371217,1058.728
825,1.372867,1055.531
826,1.374533,1055.531
827,1.3762,1052.417
828,1.377867,1049.317
829,1.379533,1046.062
830,1.381317,1046.062
831,1.382867,1043.052
832,1.384533,1039.639
833,1.3862,1036.279
834,1.387867,1036.279
835,1.389533,1033.03
836,1.3912,1029.633
837,1.392867,1026.481
838,1.394533,1026.481
839,1.3962,1023.591
840,1.397867,1020.402
841,1.399533,1017.623
842,1.4012,1017.623
843,1.402867,1014.784
844,1.404533,1011.476
845,1.4062,1011.476
846,1.407867,1008.488
847,1.409533,1004.845
848,1.4112,1001.403
849,1.412867,1001.403
850,1.414533,998.452
851,1.4162,995.6660000000001
852,1.417867,992.708
853,1.419533,992.708
854,1.4212,989.9059999999999
855,1.422867,987.135
856,1.424533,984.2809999999999
857,1.4262,984.2809999999999
858,1.427867,981.808
859,1.429533,978.909
860,1.4312,978.909
861,1.432867,975.84
862,1.434517,972.8
863,1.436183,969.954
864,1.43785,969.954
865,1.439517,967.428
866,1.441183,965.193
867,1.44285,962.503
868,1.444517,962.503
869,1.446183,959.747
870,1.44785,957.355
871,1.44955,954.248
872,1.451183,954.248
873,1.45285,951.804
874,1.454533,949.442
875,1.456183,946.522
876,1.457867,946.522
877,1.459517,944.1079999999999
878,1.461183,941.597
879,1.46285,941.597
880,1.464517,938.989
881,1.466217,936.538
882,1.46785,934.176
883,1.469517,934.176
884,1.471183,931.703
885,1.47285,928.953
886,1.474517,926.5170000000001
887,1.476183,926.5170000000001
888,1.47785,923.8869999999999
889,1.479517,921.361
890,1.481183,919.3049999999999
891,1.482867,919.3049999999999
892,1.484517,917.144
893,1.486183,915.162
894,1.48785,915.162
895,1.4895,913.203
896,1.491167,910.729
897,1.492833,908.129
898,1.494483,908.129
899,1.49615,905.633
900,1.497817,903.1369999999999
901,1.49955,901.081
902,1.50115,901.081
903,1.502817,898.98
904,1.504483,896.819
905,1.50615,894.353
906,1.507817,894.353
907,1.509483,891.663
908,1.51115,889.361
909,1.512817,887.029
910,1.514483,887.029
911,1.51615,884.771
912,1.517817,882.76
913,1.519483,882.76
914,1.52115,880.3680000000001
915,1.522817,878.17
916,1.524483,876.024
917,1.52615,876.024
918,1.52785,874.147
919,1.529483,872.187
920,1.53115,870.191
921,1.532817,870.191
922,1.534483,867.9400000000001
923,1.53615,865.296
924,1.537817,862.785
925,1.539483,862.785
926,1.54115,860.14
927,1.542817,857.979
928,1.5445,857.979
929,1.54615,856.4
930,1.547817,854.641
931,1.549483,853.211
932,1.55115,853.211
933,1.5528,851.274
934,1.554467,849.143
935,1.556133,847.302
936,1.5578,847.302
937,1.559467,845.365
938,1.561133,843.89
939,1.5628,842.027
940,1.564467,842.027
941,1.566133,840.1130000000001
942,1.5678,838.086
943,1.569467,838.086
944,1.571133,836.015
