"ID","sea_time","fid_signal"
1,0,143.632
2,0.001667,143.714
3,0.003417,143.714
4,0.005,143.819
5,0.006667,143.811
6,0.008333,143.811
7,0.01,143.237
8,0.011667,142.671
9,0.013367,142.314
10,0.015,142.314
11,0.016667,142.105
12,0.018333,142.276
13,0.02,142.619
14,0.021667,142.619
15,0.023333,143.178
16,0.025,143.252
17,0.026667,143.223
18,0.028333,143.223
19,0.03,143.416
20,0.031667,143.2
21,0.033333,143.2
22,0.035,143.677
23,0.036667,143.953
24,0.038333,143.96
25,0.04,143.96
26,0.041667,144.094
27,0.043333,143.483
28,0.045,143.461
29,0.046667,143.461
30,0.048333,143.334
31,0.05,143.327
32,0.051667,143.565
33,0.053333,143.565
34,0.054983,143.185
35,0.05665,143.498
36,0.058317,143.751
37,0.059983,143.751
38,0.06165,143.513
39,0.063317,143.997
40,0.064983,143.997
41,0.06665,144.02
42,0.068317,143.871
43,0.069983,144.05
44,0.07165000000000001,144.05
45,0.07331699999999999,143.796
46,0.07498299999999999,143.647
47,0.076683,143.789
48,0.078317,143.789
49,0.079983,143.975
50,0.08165,143.766
51,0.083317,143.58
52,0.084983,143.58
53,0.08665,143.223
54,0.088367,142.924
55,0.08998299999999999,142.924
56,0.09165,143.059
57,0.093317,142.999
58,0.094983,143.349
59,0.09665,143.349
60,0.098317,143.446
61,0.099983,143.506
62,0.10165,143.811
63,0.103317,143.811
64,0.104983,143.617
65,0.10665,143.476
66,0.108317,143.647
67,0.109983,143.647
68,0.11165,143.528
69,0.113317,143.707
70,0.114983,144.176
71,0.116633,144.176
72,0.1183,144.05
73,0.119967,144.124
74,0.121733,144.124
75,0.1233,143.722
76,0.124967,143.334
77,0.126633,143.208
78,0.1283,143.208
79,0.129967,142.962
80,0.131633,142.999
81,0.1333,142.969
82,0.134967,142.969
83,0.136633,142.932
84,0.1383,142.992
85,0.139967,143.021
86,0.141633,143.021
87,0.1433,143.297
88,0.144967,143.431
89,0.146633,143.431
90,0.1483,143.655
91,0.149967,143.677
92,0.151633,143.468
93,0.1533,143.468
94,0.154983,143.357
95,0.156633,143.23
96,0.1583,143.23
97,0.159967,143.23
98,0.161633,143.364
99,0.1633,143.468
100,0.164967,143.334
101,0.166633,143.334
102,0.1683,143.193
103,0.169967,143.118
104,0.171633,143.074
105,0.1733,143.074
106,0.17495,142.954
107,0.176617,143.2
108,0.178283,143.2
109,0.17995,143.081
110,0.181617,143.17
111,0.183283,143.55
112,0.18495,143.55
113,0.186617,143.655
114,0.188283,143.699
115,0.18995,143.655
116,0.191617,143.655
117,0.193283,143.655
118,0.19495,143.588
119,0.196617,143.819
120,0.198283,143.819
121,0.19995,143.699
122,0.201617,143.707
123,0.203283,143.707
124,0.204933,143.595
125,0.206683,143.424
126,0.208267,143.819
127,0.209933,143.819
128,0.2116,143.677
129,0.213267,143.863
130,0.214933,143.707
131,0.2166,143.707
132,0.218267,143.439
133,0.219933,143.565
134,0.2216,143.074
135,0.223267,143.074
136,0.224967,143.163
137,0.2266,143.059
138,0.228267,143.059
139,0.229933,142.939
140,0.2316,143.133
141,0.233267,143.059
142,0.234933,143.059
143,0.236583,143.074
144,0.23825,143.148
145,0.240017,143.558
146,0.241583,143.558
147,0.24325,143.573
148,0.244917,143.535
149,0.246583,143.662
150,0.24825,143.662
151,0.249917,143.394
152,0.251583,143.625
153,0.25325,143.632
154,0.254917,143.632
155,0.256583,143.349
156,0.25825,143.103
157,0.259917,143.103
158,0.261583,143.096
159,0.26325,143.29
160,0.264917,143.237
161,0.266583,143.237
162,0.26825,143.312
163,0.269917,143.193
164,0.271583,143.223
165,0.27325,143.223
166,0.274917,143.282
167,0.276583,142.999
168,0.27825,143.014
169,0.279917,143.014
170,0.281583,142.917
171,0.28325,142.895
172,0.284917,142.895
173,0.286583,143.26
174,0.28825,143.223
175,0.289917,143.513
176,0.291583,143.513
177,0.29325,143.871
178,0.294917,144.236
179,0.296567,144.713
180,0.298267,144.713
181,0.2999,145.033
182,0.301567,145.696
183,0.303233,146.843
184,0.3049,146.843
185,0.306567,148.036
186,0.308233,149.846
187,0.3099,152.417
188,0.311567,152.417
189,0.313233,155.382
190,0.3149,159.606
191,0.316567,159.606
192,0.318233,164.524
193,0.3199,170.328
194,0.321567,177.659
195,0.323233,177.659
196,0.324917,186.116
197,0.326567,196.345
198,0.328233,208.393
199,0.3299,208.393
200,0.331567,222.951
201,0.333233,239.961
202,0.3349,259.399
203,0.336567,259.399
204,0.338233,281.848
205,0.3399,307.307
206,0.341617,336.051
207,0.343233,336.051
208,0.3449,368.446
209,0.346567,404.201
210,0.348233,404.201
211,0.3499,443.965
212,0.351567,487.827
213,0.353233,536.3819999999999
214,0.354883,536.3819999999999
215,0.35655,589.974
216,0.358317,648.074
217,0.359883,711.903
218,0.36155,711.903
219,0.363217,781.7
220,0.364883,857.77
221,0.36655,941.627
222,0.368217,941.627
223,0.369883,1033.723
224,0.37155,1134.761
225,0.373217,1134.761
226,0.374967,1246.505
227,0.37655,1369.841
228,0.378217,1507.185
229,0.379883,1507.185
230,0.38155,1661.293
231,0.383217,1834.169
232,0.384883,2028.845
233,0.38655,2028.845
234,0.388217,2247.989
235,0.3899,2494.149
236,0.39155,2771.184
237,0.393217,2771.184
238,0.394883,3080.815
239,0.39655,3425.755
240,0.398217,3425.755
241,0.399883,3807.045
242,0.401567,4224.487
243,0.403217,4677.318
244,0.404883,4677.318
245,0.40655,5162.917
246,0.408217,5677.461
247,0.409883,6216.243
248,0.41155,6216.243
249,0.413217,6773.874
250,0.414867,7342.905
251,0.416533,7916.108
252,0.4182,7916.108
253,0.419867,8484.587
254,0.421533,9038.508
255,0.4232,9038.508
256,0.424867,9568.504999999999
257,0.426533,10065.213
258,0.4282,10519.348
259,0.429867,10519.348
260,0.431533,10922.745
261,0.4332,11267.409
262,0.434867,11546.604
263,0.436567,11546.604
264,0.4382,11755.362
265,0.439867,11890.516
266,0.441533,11950.836
267,0.4432,11950.836
268,0.444867,11936.612
269,0.446533,11850.148
270,0.4482,11695.399
271,0.449867,11695.399
272,0.451533,11477.873
273,0.4532,11203.736
274,0.454867,11203.736
275,0.456533,10879.822
276,0.4582,10514.059
277,0.45995,10113.537
278,0.461533,10113.537
279,0.4632,9686.008
280,0.464867,9238.481
281,0.466533,8777.045
282,0.4682,8777.045
283,0.469867,8307.665999999999
284,0.471533,7835.917
285,0.4732,7366.501
286,0.47485,7366.501
287,0.476567,6903.388
288,0.478183,6450.333
289,0.47985,6450.333
290,0.481517,6009.877
291,0.483183,5584.829
292,0.48485,5177.341
293,0.486517,5177.341
294,0.488183,4789.106
295,0.48985,4421.16
296,0.491517,4074.29
297,0.493183,4074.29
298,0.49485,3748.432
299,0.4965,3444.061
300,0.498167,3160.79
301,0.499833,3160.79
302,0.5014999999999999,2898.417
303,0.503167,2656.609
304,0.504833,2433.784
305,0.5065,2433.784
306,0.508167,2229.609
307,0.509833,2042.733
308,0.511533,2042.733
309,0.513167,1872.033
310,0.514833,1716.778
311,0.5165,1576.014
312,0.518167,1576.014
313,0.519833,1448.631
314,0.5215,1333.49
315,0.523167,1229.502
316,0.524833,1229.502
317,0.5265,1134.962
318,0.5281670000000001,1049.385
319,0.529833,972.308
320,0.5315,972.308
321,0.5331669999999999,902.615
322,0.534817,840.515
323,0.536483,840.515
324,0.53815,784.554
325,0.539817,734.0309999999999
326,0.541483,688.62
327,0.54315,688.62
328,0.544817,647.105
329,0.5464830000000001,609.674
330,0.54815,575.513
331,0.549817,575.513
332,0.5514829999999999,544.511
333,0.55315,516.8099999999999
334,0.554817,491.634
335,0.5564829999999999,491.634
336,0.55815,469.096
337,0.559817,448.562
338,0.561517,429.638
339,0.56315,429.638
340,0.564833,412.576
341,0.566483,396.617
342,0.56815,396.617
343,0.569817,382.438
344,0.5715,369.37
345,0.57315,357.173
346,0.574817,357.173
347,0.576483,346.243
348,0.578217,335.738
349,0.579817,326.343
350,0.5815,326.343
351,0.5831499999999999,317.834
352,0.584817,309.795
353,0.586483,302.784
354,0.58815,302.784
355,0.589817,296.064
356,0.591483,289.634
357,0.59315,289.634
358,0.594867,283.673
359,0.596467,277.877
360,0.598133,272.9
361,0.5998,272.9
362,0.601467,268.064
363,0.603133,263.505
364,0.6048,259.548
365,0.606467,259.548
366,0.608133,255.205
367,0.6098,251.785
368,0.61155,248.529
369,0.613133,248.529
370,0.6148,244.953
371,0.616467,242.077
372,0.618133,242.077
373,0.6198,239.044
374,0.621467,236.444
375,0.623133,233.889
376,0.6248,233.889
377,0.626467,231.363
378,0.6281330000000001,228.904
379,0.6298,226.244
380,0.631467,226.244
381,0.6331329999999999,223.95
382,0.6348,221.558
383,0.636467,219.382
384,0.638133,219.382
385,0.6398,217.699
386,0.641467,215.814
387,0.643133,214.286
388,0.6448,214.286
389,0.646467,212.781
390,0.648133,211.008
391,0.6498,211.008
392,0.651467,209.838
393,0.6531169999999999,208.505
394,0.654817,207.067
395,0.6565,207.067
396,0.658117,205.941
397,0.659783,204.697
398,0.66145,203.408
399,0.663117,203.408
400,0.664783,202.246
401,0.66645,201.099
402,0.668117,199.862
403,0.669783,199.862
404,0.67145,198.856
405,0.673117,197.783
406,0.674783,197.783
407,0.67645,196.762
408,0.678117,195.667
409,0.679783,194.535
410,0.68145,194.535
411,0.683117,193.447
412,0.684783,192.352
413,0.68645,191.629
414,0.688117,191.629
415,0.689783,190.966
416,0.69145,190.459
417,0.693117,189.878
418,0.694783,189.878
419,0.6965,189.103
420,0.698117,188.537
421,0.699783,187.941
422,0.70145,187.941
423,0.703117,187.144
424,0.704783,186.682
425,0.70645,186.682
426,0.708117,185.736
427,0.7097830000000001,184.841
428,0.71145,184.357
429,0.713117,184.357
430,0.7147829999999999,183.746
431,0.716433,183.374
432,0.7181,182.785
433,0.719767,182.785
434,0.721433,182.316
435,0.7231,181.645
436,0.7247670000000001,181.042
437,0.726433,181.042
438,0.7281,180.326
439,0.729867,179.641
440,0.731433,179.641
441,0.7331,178.978
442,0.7347669999999999,178.188
443,0.736433,178.106
444,0.7381,178.106
445,0.739767,177.734
446,0.741433,177.331
447,0.7431,177.16
448,0.744767,177.16
449,0.746433,176.586
450,0.7481,176.229
451,0.749767,175.871
452,0.751433,175.871
453,0.7531,175.282
454,0.754767,174.776
455,0.756433,174.239
456,0.7581,174.239
457,0.759767,173.785
458,0.761433,173.755
459,0.7631,173.755
460,0.764767,173.368
461,0.766433,173.025
462,0.7681,172.69
463,0.769767,172.69
464,0.771433,172.108
465,0.7731,171.721
466,0.774767,171.17
467,0.776417,171.17
468,0.778083,170.857
469,0.7797500000000001,170.648
470,0.781417,170.514
471,0.783083,170.514
472,0.7847499999999999,170.209
473,0.786417,170.261
474,0.788067,170.261
475,0.789733,169.91
476,0.7914330000000001,169.776
477,0.793067,169.829
478,0.794733,169.829
479,0.7964,169.046
480,0.798067,168.927
481,0.799733,168.487
482,0.8014,168.487
483,0.803067,167.951
484,0.804733,167.772
485,0.8064,167.593
486,0.808083,167.593
487,0.809733,167.452
488,0.8114,167.497
489,0.813067,167.497
490,0.814767,167.437
491,0.8164,166.975
492,0.818067,166.632
493,0.819733,166.632
494,0.8214,166.073
495,0.823067,165.783
496,0.824733,165.805
497,0.8264,165.805
498,0.828067,165.693
499,0.8297330000000001,165.887
500,0.8314,165.857
501,0.833067,165.857
502,0.8347329999999999,165.224
503,0.836383,164.889
504,0.83805,164.427
505,0.839717,164.427
506,0.841383,164.166
507,0.84305,164.106
508,0.8447170000000001,164.106
509,0.846383,163.913
510,0.848117,164.129
511,0.8497169999999999,163.831
512,0.851383,163.831
513,0.85305,163.876
514,0.8547169999999999,163.63
515,0.856383,163.093
516,0.85805,163.093
517,0.859717,162.773
518,0.861383,162.311
519,0.86305,162.236
520,0.864717,162.236
521,0.8663999999999999,162.013
522,0.86805,162.169
523,0.869717,162.169
524,0.871383,162.102
525,0.87305,161.856
526,0.874717,161.588
527,0.876383,161.588
528,0.87805,161.223
529,0.879717,161.171
530,0.881383,161.022
531,0.88305,161.022
532,0.884717,161.104
533,0.886383,160.992
534,0.88805,160.702
535,0.889717,160.702
536,0.891383,160.463
537,0.89305,160.426
538,0.894717,160.486
539,0.896367,160.486
540,0.898033,160.649
541,0.8997000000000001,160.91
542,0.901367,160.91
543,0.903033,160.582
544,0.9046999999999999,160.478
545,0.906367,160.225
546,0.908033,160.225
547,0.9097,159.778
548,0.911367,159.919
549,0.913033,159.591
550,0.9147,159.591
551,0.916367,159.316
552,0.918033,159.301
553,0.9197,159.1
554,0.921367,159.1
555,0.923033,159.159
556,0.9247,159.204
557,0.9263670000000001,159.204
558,0.928033,159.338
559,0.9297,159.055
560,0.9313669999999999,158.742
561,0.9331,158.742
562,0.9347,158.422
563,0.9363669999999999,157.781
564,0.938033,157.788
565,0.9397,157.788
566,0.941367,157.699
567,0.943033,157.669
568,0.9447,157.982
569,0.946367,157.982
570,0.948033,157.848
571,0.9497,157.744
572,0.951367,157.923
573,0.953033,157.923
574,0.9546829999999999,157.811
575,0.95635,157.572
576,0.958017,157.572
577,0.959683,157.304
578,0.96135,156.946
579,0.963017,156.626
580,0.964683,156.626
581,0.96645,156.38
582,0.968033,156.343
583,0.969683,156.268
584,0.97135,156.268
585,0.973017,155.985
586,0.974683,155.97
587,0.9763500000000001,155.918
588,0.978017,155.918
589,0.979683,155.948
590,0.9813499999999999,156.045
591,0.983017,156.045
592,0.9847,155.911
593,0.9863499999999999,155.777
594,0.988017,155.464
595,0.989683,155.464
596,0.99135,155.352
597,0.993017,155.322
598,0.994683,155.24
599,0.99635,155.24
600,0.998017,155.166
601,0.999683,155.292
602,1.00135,155.486
603,1.003017,155.486
604,1.004683,155.523
605,1.00635,155.725
606,1.008017,155.725
607,1.009683,155.784
608,1.01135,155.881
609,1.01305,156.015
610,1.014667,156.015
611,1.016333,155.583
612,1.018,155.106
613,1.019667,154.726
614,1.021333,154.726
615,1.023,154.503
616,1.024667,154.719
617,1.026333,154.793
618,1.028,154.793
619,1.029667,154.704
620,1.031333,154.935
621,1.033,154.726
622,1.034667,154.726
623,1.036333,154.786
624,1.038,154.689
625,1.039667,154.689
626,1.041333,154.123
627,1.043,153.974
628,1.044667,153.802
629,1.046333,153.802
630,1.048,153.81
631,1.049667,153.936
632,1.051383,154.085
633,1.053,154.085
634,1.054667,154.242
635,1.056333,154.547
636,1.058,154.525
637,1.059667,154.525
638,1.061333,154.398
639,1.063,154.1
640,1.064667,154.1
641,1.06635,153.683
642,1.068,153.601
643,1.069667,153.564
644,1.071333,153.564
645,1.073,153.407
646,1.07465,153.236
647,1.076317,153.08
648,1.077983,153.08
649,1.079633,152.871
650,1.0813,152.923
651,1.082967,153.08
652,1.084667,153.08
653,1.0863,153.087
654,1.087967,153.206
655,1.089633,153.184
656,1.0913,153.184
657,1.092967,152.923
658,1.094633,152.826
659,1.0963,152.826
660,1.097967,152.394
661,1.099633,152.409
662,1.1013,152.431
663,1.102967,152.431
664,1.104633,152.118
665,1.1063,152.2
666,1.107967,152.022
667,1.109633,152.022
668,1.1113,151.91
669,1.112967,151.984
670,1.114633,152.364
671,1.1163,152.364
672,1.117967,152.238
673,1.119633,152.342
674,1.1213,152.342
675,1.122967,152.372
676,1.124633,151.873
677,1.1263,152.037
678,1.127967,152.037
679,1.129633,152.022
680,1.1313,151.94
681,1.132967,152.163
682,1.134633,152.163
683,1.1363,152.342
684,1.13795,152.387
685,1.139617,152.625
686,1.141283,152.625
687,1.142967,152.439
688,1.144617,152.29
689,1.146283,152.171
690,1.14795,152.171
691,1.149617,151.791
692,1.151283,151.642
693,1.15295,151.642
694,1.15465,151.657
695,1.156283,151.545
696,1.15795,151.515
697,1.159617,151.515
698,1.161283,151.493
699,1.16295,151.046
700,1.164617,150.755
701,1.166283,150.755
702,1.16795,150.539
703,1.169667,150.487
704,1.171283,150.345
705,1.17295,150.345
706,1.174617,150.643
707,1.176283,150.859
708,1.17795,150.859
709,1.179617,150.792
710,1.181283,150.83
711,1.18295,150.442
712,1.184617,150.442
713,1.186333,150.613
714,1.18795,150.643
715,1.189617,150.949
716,1.191283,150.949
717,1.19295,151.411
718,1.1946,151.291
719,1.196267,151.023
720,1.197933,151.023
721,1.1996,150.8
722,1.201267,150.502
723,1.203017,150.532
724,1.2046,150.532
725,1.206267,150.889
726,1.207933,150.74
727,1.2096,150.74
728,1.211267,150.643
729,1.212933,150.464
730,1.2146,150.308
731,1.216267,150.308
732,1.217933,150.658
733,1.2197,150.412
734,1.221267,150.099
735,1.222933,150.099
736,1.2246,150.032
737,1.226283,149.757
738,1.22795,149.965
739,1.2296,149.965
740,1.231267,150.308
741,1.232933,150.353
742,1.2346,150.353
743,1.236267,150.39
744,1.237933,150.375
745,1.2396,150.271
746,1.241267,150.271
747,1.242933,150.174
748,1.2446,150.062
749,1.246267,149.839
750,1.247933,149.839
751,1.2496,149.809
752,1.251267,149.69
753,1.252933,149.675
754,1.254583,149.675
755,1.25625,149.727
756,1.257917,149.556
757,1.259583,149.556
758,1.26125,149.6
759,1.262917,149.511
760,1.264583,149.794
761,1.26625,149.794
762,1.267917,149.891
763,1.269583,149.898
764,1.27125,149.883
765,1.272917,149.883
766,1.274583,149.488
767,1.27625,149.31
768,1.277917,149.161
769,1.279583,149.161
770,1.28125,148.974
771,1.282917,149.205
772,1.284583,149.332
773,1.28625,149.332
774,1.287967,149.682
775,1.289583,149.95
776,1.291267,149.95
777,1.292917,149.906
778,1.2946,149.801
779,1.29625,149.511
780,1.297917,149.511
781,1.299583,149.243
782,1.30125,149.213
783,1.302917,149.123
784,1.304633,149.123
785,1.30625,148.93
786,1.307917,149.131
787,1.309583,149.101
788,1.31125,149.101
789,1.312917,149.28
790,1.314583,149.615
791,1.316233,149.615
792,1.3179,149.466
793,1.319567,149.414
794,1.3213,149.518
795,1.3229,149.518
796,1.324567,149.429
797,1.326233,149.339
798,1.3279,149.108
799,1.329567,149.108
800,1.331233,148.967
801,1.3329,148.632
802,1.334567,148.408
803,1.336233,148.408
804,1.338,148.475
805,1.339567,148.281
806,1.341233,148.14
807,1.3429,148.14
808,1.344567,148.259
809,1.346233,148.296
810,1.3479,148.296
811,1.349567,148.408
812,1.351233,148.952
813,1.3529,149.049
814,1.354567,149.049
815,1.356233,149.22
816,1.3579,149.243
817,1.359567,149.302
818,1.361233,149.302
819,1.3629,149.049
820,1.364567,148.855
821,1.366233,148.587
822,1.3679,148.587
823,1.369567,148.043
824,1.371217,148.46
825,1.372883,148.46
826,1.374533,148.691
827,1.3762,148.885
828,1.377867,148.989
829,1.379567,148.989
830,1.3812,148.721
831,1.382867,148.17
832,1.384533,147.775
833,1.3862,147.775
834,1.387867,147.79
835,1.389533,147.939
836,1.3912,148.08
837,1.392867,148.08
838,1.394533,148.49
839,1.3962,148.579
840,1.397867,148.579
841,1.399533,148.393
842,1.4012,148.423
843,1.402867,148.214
844,1.404533,148.214
845,1.4062,148.252
846,1.407867,148.416
847,1.409533,148.386
848,1.4112,148.386
849,1.412867,148.386
850,1.414533,148.214
851,1.4162,148.214
852,1.417867,148.214
853,1.419533,147.872
854,1.4212,147.812
855,1.422933,147.648
856,1.424533,147.648
857,1.4262,147.402
858,1.427867,147.983
859,1.429533,147.983
860,1.4312,148.125
861,1.432867,148.319
862,1.434533,148.371
863,1.436183,148.371
864,1.43785,147.842
865,1.439533,147.991
866,1.441183,147.909
867,1.44285,147.909
868,1.444517,147.983
869,1.446183,148.229
870,1.44785,147.887
871,1.449517,147.887
872,1.451183,148.14
873,1.45285,147.946
874,1.454517,147.946
875,1.456283,147.805
876,1.45785,147.678
877,1.459517,147.216
878,1.461183,147.216
879,1.46285,147.201
880,1.464517,147.134
881,1.466183,146.933
882,1.46785,146.933
883,1.469517,146.829
884,1.4712,146.881
885,1.47285,147.142
886,1.474517,147.142
887,1.476183,147.35
888,1.47785,147.738
889,1.479517,147.76
890,1.481183,147.76
891,1.48285,147.834
892,1.484517,147.879
893,1.486183,147.879
894,1.48785,147.626
895,1.489517,147.507
896,1.491183,147.112
897,1.49285,147.112
898,1.4945,147.261
899,1.496167,147.454
900,1.497833,147.559
901,1.4995,147.559
902,1.501167,147.827
903,1.502833,147.879
904,1.5045,147.983
905,1.506167,147.983
906,1.507833,147.805
907,1.5095,147.529
908,1.511167,147.529
909,1.512833,147.149
910,1.5145,146.724
911,1.516167,146.762
912,1.517833,146.762
913,1.5195,146.888
914,1.521167,146.963
915,1.522833,147.246
916,1.5245,147.246
917,1.526167,147.201
918,1.527833,147.313
919,1.5295,147.425
920,1.531167,147.425
921,1.532833,147.164
922,1.5345,147.462
923,1.536167,147.313
924,1.537833,147.313
925,1.5395,147.231
926,1.541167,147.447
927,1.542833,147.447
928,1.5445,147.276
929,1.546167,147.231
930,1.547833,146.955
931,1.5495,146.955
932,1.551167,146.791
933,1.552833,146.508
934,1.5545,146.635
935,1.55615,146.635
936,1.557833,146.739
937,1.559483,146.754
938,1.56115,146.933
939,1.562817,146.933
940,1.564483,146.866
941,1.56615,146.993
942,1.567817,146.993
943,1.569483,146.97
944,1.57115,147.32
945,1.572817,147.417
946,1.574583,147.417
947,1.57615,147.253
948,1.577817,147.216
949,1.579483,146.642
950,1.58115,146.642
951,1.582817,146.292
952,1.584483,146.061
953,1.58615,145.853
954,1.587817,145.853
955,1.589483,146.121
956,1.59115,146.575
957,1.592817,146.605
958,1.594483,146.605
959,1.59615,146.702
960,1.597817,146.456
