"ID","sea_time","fid_signal"
1,0,1178.831
2,0.001667,1178.831
3,0.003333,1179.129
4,0.005,1179.352
5,0.006667,1180.47
6,0.008333,1180.47
7,0.01,1179.352
8,0.011667,1179.799
9,0.013317,1176.149
10,0.014983,1176.149
11,0.01665,1174.584
12,0.018317,1175.776
13,0.019983,1175.702
14,0.02165,1175.702
15,0.023317,1175.702
16,0.024983,1176.596
17,0.02665,1176.596
18,0.028367,1176.968
19,0.029983,1175.851
20,0.03165,1178.16
21,0.033317,1178.16
22,0.034983,1176.447
23,0.03665,1176.447
24,0.038317,1176.894
25,0.039983,1176.894
26,0.04165,1175.404
27,0.043317,1177.192
28,0.045067,1177.043
29,0.046633,1177.043
30,0.0483,1178.235
31,0.049967,1180.768
32,0.051633,1180.768
33,0.0533,1179.725
34,0.054967,1179.427
35,0.056633,1178.607
36,0.0583,1178.607
37,0.059967,1176.298
38,0.061733,1175.478
39,0.0633,1175.925
40,0.064967,1175.925
41,0.066633,1175.553
42,0.0683,1173.988
43,0.069967,1175.031
44,0.071633,1175.031
45,0.0733,1172.498
46,0.07496700000000001,1174.435
47,0.07663300000000001,1178.831
48,0.07829999999999999,1178.831
49,0.080017,1176.819
50,0.081633,1180.545
51,0.0833,1180.545
52,0.084967,1179.501
53,0.086633,1178.905
54,0.0883,1181.066
55,0.08996700000000001,1181.066
56,0.09163300000000001,1181.588
57,0.09329999999999999,1181.215
58,0.094967,1182.78
59,0.096633,1182.78
60,0.0983,1183.376
61,0.099967,1182.482
62,0.101633,1178.98
63,0.1033,1178.98
64,0.10495,1175.627
65,0.106617,1176.968
66,0.108283,1176.968
67,0.10995,1176.223
68,0.111617,1180.023
69,0.113283,1179.352
70,0.11495,1179.352
71,0.116617,1178.011
72,0.118283,1176.298
73,0.11995,1176.447
74,0.121617,1176.447
75,0.123317,1177.862
76,0.12495,1177.937
77,0.126617,1179.948
78,0.128283,1179.948
79,0.12995,1180.172
80,0.131617,1181.215
81,0.133283,1181.215
82,0.13495,1180.246
83,0.136617,1178.831
84,0.138283,1177.564
85,0.13995,1177.564
86,0.141617,1177.266
87,0.143283,1177.341
88,0.14495,1176.149
89,0.146683,1176.149
90,0.148283,1174.957
91,0.14995,1172.423
92,0.151617,1172.647
93,0.153283,1172.647
94,0.15495,1175.553
95,0.156617,1178.011
96,0.158283,1180.246
97,0.15995,1180.246
98,0.161617,1180.917
99,0.163317,1177.043
100,0.164933,1177.043
101,0.1666,1173.541
102,0.168267,1175.851
103,0.169933,1175.329
104,0.1716,1175.329
105,0.173267,1177.564
106,0.174933,1180.097
107,0.1766,1179.129
108,0.178267,1179.129
109,0.180033,1182.258
110,0.1816,1184.717
111,0.183267,1184.344
112,0.184933,1184.344
113,0.1866,1181.588
114,0.188267,1176.67
115,0.189933,1176.67
116,0.1916,1176.298
117,0.193267,1177.49
118,0.194933,1179.352
119,0.1966,1179.352
120,0.198267,1181.364
121,0.19995,1180.843
122,0.2016,1181.141
123,0.203267,1181.141
124,0.204933,1179.129
125,0.2066,1177.341
126,0.208267,1175.627
127,0.209933,1175.627
128,0.2116,1174.36
129,0.213267,1173.466
130,0.214933,1175.255
131,0.2166,1175.255
132,0.218267,1175.106
133,0.219933,1175.478
134,0.2216,1175.478
135,0.22325,1177.788
136,0.224917,1177.192
137,0.226583,1178.235
138,0.22825,1178.235
139,0.229917,1175.851
140,0.231583,1174.807
141,0.23325,1171.604
142,0.234917,1171.604
143,0.236583,1171.753
144,0.23825,1172.572
145,0.239917,1173.988
146,0.241583,1173.988
147,0.24325,1177.043
148,0.244917,1174.063
149,0.246583,1174.063
150,0.24825,1171.753
151,0.249917,1169.816
152,0.251617,1170.784
153,0.25325,1170.784
154,0.254917,1170.039
155,0.256583,1172.572
156,0.25825,1174.882
157,0.259917,1174.882
158,0.261583,1175.925
159,0.26325,1180.768
160,0.264983,1182.333
161,0.266617,1182.333
162,0.26825,1180.917
163,0.269917,1177.713
164,0.271583,1175.702
165,0.27325,1175.702
166,0.274917,1175.702
167,0.276583,1176.894
168,0.27825,1176.894
169,0.279917,1178.384
170,0.281583,1177.341
171,0.28325,1174.137
172,0.2849,1174.137
173,0.286567,1173.392
174,0.288233,1174.36
175,0.2899,1178.086
176,0.291567,1178.086
177,0.293233,1179.352
178,0.2949,1176.894
179,0.296567,1175.776
180,0.298267,1175.776
181,0.2999,1171.678
182,0.301567,1171.827
183,0.303233,1171.827
184,0.304883,1176.223
185,0.30655,1178.235
186,0.308217,1180.693
187,0.309883,1180.693
188,0.31155,1181.439
189,0.313217,1178.98
190,0.314883,1178.831
191,0.31655,1178.831
192,0.318217,1178.458
193,0.319883,1179.054
194,0.32155,1177.415
195,0.323217,1177.415
196,0.324883,1174.137
197,0.32655,1174.733
198,0.328217,1174.733
199,0.329883,1174.733
200,0.33155,1177.639
201,0.333217,1177.415
202,0.334883,1177.415
203,0.33655,1177.341
204,0.33825,1176
205,0.339883,1176
206,0.34155,1176
207,0.343217,1177.937
208,0.344867,1178.16
209,0.346533,1179.874
210,0.3482,1179.874
211,0.349867,1179.874
212,0.351533,1178.682
213,0.3532,1178.384
214,0.354867,1178.384
215,0.356533,1177.639
216,0.3582,1178.235
217,0.359867,1178.235
218,0.361533,1180.172
219,0.3632,1177.713
220,0.364867,1179.501
221,0.366533,1179.501
222,0.3682,1182.407
223,0.369867,1182.407
224,0.371533,1186.207
225,0.3732,1186.207
226,0.374867,1186.579
227,0.376533,1189.932
228,0.3782,1195.148
229,0.379867,1195.148
230,0.381533,1204.535
231,0.3832,1214.743
232,0.384867,1214.743
233,0.386533,1221.895
234,0.3882,1238.436
235,0.389867,1258.105
236,0.391533,1258.105
237,0.3932,1290.217
238,0.394867,1334.175
239,0.396533,1389.161
240,0.3982,1389.161
241,0.3999,1466.647
242,0.401533,1574.159
243,0.403183,1720.861
244,0.40485,1720.861
245,0.406517,1917.779
246,0.408183,2175.123
247,0.40985,2508.983
248,0.411517,2508.983
249,0.413183,2933.815
250,0.414867,3461.838
251,0.416517,3461.838
252,0.418183,4103.258
253,0.41985,4857.108
254,0.421517,5729.422
255,0.423183,5729.422
256,0.42485,6718.859
257,0.426517,7819.235
258,0.428183,9018.629999999999
259,0.42985,9018.629999999999
260,0.431517,10298.565
261,0.433183,11637.509
262,0.43485,13010.949
263,0.436517,13010.949
264,0.438183,14397.204
265,0.43985,15769.079
266,0.441517,15769.079
267,0.443183,17098.635
268,0.44485,18361.285
269,0.446517,19530.133
270,0.448183,19530.133
271,0.44985,20586.4
272,0.451517,21511.615
273,0.453183,22286.922
274,0.45485,22286.922
275,0.456517,22904.5
276,0.458183,23356.676
277,0.45985,23640.246
278,0.461517,23640.246
279,0.463183,23763.105
280,0.464833,23731.068
281,0.4665,23553.297
282,0.468167,23553.297
283,0.469833,23249.611
284,0.4715,22830.219
285,0.473167,22830.219
286,0.474833,22313.148
287,0.4765,21714.344
288,0.478167,21052.137
289,0.479833,21052.137
290,0.481517,20340.01
291,0.483183,19589.662
292,0.484833,18819.049
293,0.4865,18819.049
294,0.488167,18033.162
295,0.489833,17244.145
296,0.4915,16461.611
297,0.493167,16461.611
298,0.494833,15693.754
299,0.4965,14941.618
300,0.498167,14941.618
301,0.499833,14211.759
302,0.5015500000000001,13508.052
303,0.503167,12831.39
304,0.504833,12831.39
305,0.5065,12186.095
306,0.508167,11569.932
307,0.509833,10984.316
308,0.5115,10984.316
309,0.513167,10424.405
310,0.514833,9893.328
311,0.5165,9391.829
312,0.518167,9391.829
313,0.519833,8918.42
314,0.5215,8477.047
315,0.523167,8477.047
316,0.524817,8061.305
317,0.526483,7675.066
318,0.52815,7312.298
319,0.529817,7312.298
320,0.531483,6971.061
321,0.53315,6651.729
322,0.5349,6351.694
323,0.536483,6351.694
324,0.53815,6072.894
325,0.539817,5812.272
326,0.541483,5571.619
327,0.54315,5571.619
328,0.544817,5344.525
329,0.5464830000000001,5130.842
330,0.54815,4931.316
331,0.549817,4931.316
332,0.5514829999999999,4743.412
333,0.55315,4569.218
334,0.554817,4569.218
335,0.5565,4407.987
336,0.55815,4254.729
337,0.559817,4109.144
338,0.561483,4109.144
339,0.56315,3970.563
340,0.564817,3839.508
341,0.566483,3720.671
342,0.56815,3720.671
343,0.569817,3609.806
344,0.571483,3505.871
345,0.57315,3410.354
346,0.574817,3410.354
347,0.576483,3316.849
348,0.5781500000000001,3230.572
349,0.579817,3230.572
350,0.581483,3150.18
351,0.583133,3071.129
352,0.5848,2998.859
353,0.586467,2998.859
354,0.588133,2927.855
355,0.5898,2863.556
356,0.591467,2801.344
357,0.593133,2801.344
358,0.5948,2738.908
359,0.59645,2683.252
360,0.598117,2629.235
361,0.599783,2629.235
362,0.60145,2579.466
363,0.603117,2534.911
364,0.604783,2490.133
365,0.60645,2490.133
366,0.608117,2448.41
367,0.609783,2407.73
368,0.61145,2407.73
369,0.613117,2369.955
370,0.614783,2332.032
371,0.6164500000000001,2294.108
372,0.618117,2294.108
373,0.61985,2260.357
374,0.6214499999999999,2224.147
375,0.623117,2189.8
376,0.6248,2189.8
377,0.62645,2159.253
378,0.628117,2132.356
379,0.629783,2105.609
380,0.63145,2105.609
381,0.633117,2081.022
382,0.634783,2054.945
383,0.6365,2028.048
384,0.638117,2028.048
385,0.639783,2002.046
386,0.64145,1981.184
387,0.6431,1981.184
388,0.644767,1960.024
389,0.646433,1939.386
390,0.6481,1922.995
391,0.649767,1922.995
392,0.651433,1904.741
393,0.6532,1886.934
394,0.654767,1869.425
395,0.656433,1869.425
396,0.658117,1853.332
397,0.659767,1837.984
398,0.661433,1822.338
399,0.6631,1822.338
400,0.664767,1806.84
401,0.6664330000000001,1788.959
402,0.668117,1788.959
403,0.669767,1774.132
404,0.6714329999999999,1759.976
405,0.6731,1746.565
406,0.674767,1746.565
407,0.676433,1734.495
408,0.6781,1720.116
409,0.679767,1708.791
410,0.681433,1708.791
411,0.6831,1697.689
412,0.684767,1685.247
413,0.686433,1673.996
414,0.6881,1673.996
415,0.689767,1662.224
416,0.691433,1650.602
417,0.6931,1650.602
418,0.694767,1644.194
419,0.696433,1635.924
420,0.6981000000000001,1628.846
421,0.699783,1628.846
422,0.701417,1621.693
423,0.703083,1613.796
424,0.70475,1607.388
425,0.706417,1607.388
426,0.708083,1595.765
427,0.70975,1587.197
428,0.711417,1576.319
429,0.713083,1576.319
430,0.71475,1567.006
431,0.716417,1563.802
432,0.718083,1563.802
433,0.71975,1556.799
434,0.721417,1550.689
435,0.723083,1545.921
436,0.72475,1545.921
437,0.726417,1541.227
438,0.728083,1537.427
439,0.72975,1531.765
440,0.731417,1531.765
441,0.733083,1526.475
442,0.73475,1519.695
443,0.736417,1512.915
444,0.738133,1512.915
445,0.73975,1509.935
446,0.741417,1504.123
447,0.743083,1497.269
448,0.74475,1497.269
449,0.746417,1493.096
450,0.7480830000000001,1484.081
451,0.74975,1484.081
452,0.751417,1478.568
453,0.7530829999999999,1472.682
454,0.754833,1466.721
455,0.756417,1466.721
456,0.758083,1462.176
457,0.75975,1457.334
458,0.761417,1453.236
459,0.763083,1453.236
460,0.764733,1446.009
461,0.7664,1444.221
462,0.7680670000000001,1440.197
463,0.769733,1440.197
464,0.7714,1437.142
465,0.7731,1434.758
466,0.774733,1434.758
467,0.7764,1428.947
468,0.778067,1424.029
469,0.779733,1421.794
470,0.7814,1421.794
471,0.783067,1417.473
472,0.784733,1416.132
473,0.7864,1412.258
474,0.788167,1412.258
475,0.789733,1405.776
476,0.7914,1403.913
477,0.793067,1398.548
478,0.794733,1398.548
479,0.7964,1393.035
480,0.798067,1390.874
481,0.799733,1387.596
482,0.8014,1387.596
483,0.803067,1382.753
484,0.804733,1381.114
485,0.8064,1381.114
486,0.808067,1377.165
487,0.809733,1373.813
488,0.8114,1375.973
489,0.813067,1375.973
490,0.814733,1374.483
491,0.8164,1375.452
492,0.818067,1374.111
493,0.819733,1374.111
494,0.821383,1369.864
495,0.8230499999999999,1365.617
496,0.824717,1360.327
497,0.826383,1360.327
498,0.82805,1359.284
499,0.829717,1359.135
500,0.831383,1359.135
501,0.83305,1360.774
502,0.834717,1357.272
503,0.836383,1353.398
504,0.83805,1353.398
505,0.839717,1347.214
506,0.8414,1343.116
507,0.84305,1341.328
508,0.8447170000000001,1341.328
509,0.846383,1339.614
510,0.84805,1337.603
511,0.8497169999999999,1333.952
512,0.851383,1333.952
513,0.85305,1335.442
514,0.8547169999999999,1333.505
515,0.856383,1333.654
516,0.85805,1333.654
517,0.859717,1332.909
518,0.861383,1329.333
519,0.86305,1329.333
520,0.864717,1328.141
521,0.866383,1324.415
522,0.86805,1320.764
523,0.869717,1320.764
524,0.871383,1318.008
525,0.8731,1313.761
526,0.874717,1314.804
527,0.876383,1314.804
528,0.87805,1316.071
529,0.879717,1317.039
530,0.881383,1320.764
531,0.88305,1320.764
532,0.8847,1320.69
533,0.886383,1320.317
534,0.8880169999999999,1320.317
535,0.889767,1315.177
536,0.89135,1308.545
537,0.8930169999999999,1306.236
538,0.894683,1306.236
539,0.89635,1302.958
540,0.898017,1305.789
541,0.899683,1304.448
542,0.90135,1304.448
543,0.903017,1302.287
544,0.904683,1303.852
545,0.90645,1300.797
546,0.908017,1300.797
547,0.909683,1300.871
548,0.91135,1299.605
549,0.913017,1299.605
550,0.914683,1295.656
551,0.916367,1294.762
552,0.918017,1294.166
553,0.919683,1294.166
554,0.92135,1289.919
555,0.923017,1290.143
556,0.924683,1289.919
557,0.92635,1289.919
558,0.928017,1287.088
559,0.929683,1289.696
560,0.93135,1288.95
561,0.933017,1288.95
562,0.934683,1284.927
563,0.93635,1284.853
564,0.938017,1282.766
565,0.939683,1282.766
566,0.94135,1279.414
567,0.9429999999999999,1278.371
568,0.944667,1278.371
569,0.946333,1276.657
570,0.948,1274.347
571,0.949667,1276.88
572,0.951333,1276.88
573,0.953,1277.03
574,0.954667,1275.465
575,0.956333,1275.465
576,0.958,1275.465
577,0.959667,1273.677
578,0.961333,1271.516
579,0.963,1272.485
580,0.9646670000000001,1272.485
581,0.966333,1271.218
582,0.968,1270.846
583,0.9696669999999999,1270.846
584,0.971333,1271.516
585,0.973,1271.442
586,0.974683,1270.697
587,0.976333,1270.697
588,0.978,1270.026
589,0.979667,1271.814
590,0.981333,1269.281
591,0.983,1269.281
592,0.984667,1268.089
593,0.986333,1265.332
594,0.988,1259.595
595,0.989667,1259.595
596,0.991383,1261.085
597,0.993,1259.819
598,0.994667,1257.807
599,0.996333,1257.807
600,0.998,1260.117
601,0.999667,1257.434
602,1.001333,1257.434
603,1.003,1257.136
604,1.00465,1257.733
605,1.006317,1255.87
606,1.00805,1255.87
607,1.00965,1253.635
608,1.011317,1251.623
609,1.012983,1250.282
610,1.01465,1250.282
611,1.016317,1247.153
612,1.017983,1248.121
613,1.01965,1249.909
614,1.021317,1249.909
615,1.022983,1247.302
