"ID","sea_time","fid_signal"
1,0,1225.844
2,0.001667,1225.844
3,0.003333,1225.62
4,0.005,1225.397
5,0.006667,1225.397
6,0.008416999999999999,1223.907
7,0.01,1217.052
8,0.011667,1211.017
9,0.013333,1211.017
10,0.015,1206.92
11,0.016667,1205.28
12,0.018333,1209.527
13,0.02,1209.527
14,0.021667,1213.327
15,0.023333,1216.903
16,0.025,1218.393
17,0.026683,1218.393
18,0.028317,1216.158
19,0.029983,1216.754
20,0.03165,1216.754
21,0.033317,1216.456
22,0.034983,1215.339
23,0.03665,1218.17
24,0.038317,1218.17
25,0.039983,1219.586
26,0.04165,1220.405
27,0.043317,1220.256
28,0.044983,1220.256
29,0.04665,1221.746
30,0.048317,1223.981
31,0.049983,1224.13
32,0.05165,1224.13
33,0.053317,1223.534
34,0.054983,1223.385
35,0.05665,1220.033
36,0.058317,1220.033
37,0.059983,1219.139
38,0.06165,1221.523
39,0.063317,1221.523
40,0.064983,1221.672
41,0.06665,1222.193
42,0.068317,1225.323
43,0.069983,1225.323
44,0.07165000000000001,1224.13
45,0.07331699999999999,1223.162
46,0.07498299999999999,1222.417
47,0.07665,1222.417
48,0.078317,1218.393
49,0.079983,1218.319
50,0.08165,1218.84
51,0.083317,1218.84
52,0.084967,1218.692
53,0.086633,1221.001
54,0.0883,1221.001
55,0.08996700000000001,1223.534
56,0.09163300000000001,1221.672
57,0.0934,1222.938
58,0.094967,1222.938
59,0.096633,1222.64
60,0.0983,1221.746
61,0.099967,1222.268
62,0.101633,1222.268
63,0.1033,1222.417
64,0.104967,1220.48
65,0.106633,1218.915
66,0.1083,1218.915
67,0.11,1221.523
68,0.111633,1221.001
69,0.113317,1224.875
70,0.114967,1224.875
71,0.116633,1224.652
72,0.1183,1222.342
73,0.119967,1222.342
74,0.121633,1223.46
75,0.1233,1222.417
76,0.124967,1222.119
77,0.12675,1222.119
78,0.1283,1222.044
79,0.129967,1220.852
80,0.131633,1220.033
81,0.1333,1220.033
82,0.134967,1220.182
83,0.136633,1220.107
84,0.1383,1219.734
85,0.139967,1219.734
86,0.141633,1219.287
87,0.143283,1221.076
88,0.14495,1221.076
89,0.146617,1221.597
90,0.148283,1222.342
91,0.14995,1221.374
92,0.151617,1221.374
93,0.153283,1220.256
94,0.15495,1218.17
95,0.156617,1217.574
96,0.158283,1217.574
97,0.15995,1216.754
98,0.161617,1218.99
99,0.1633,1222.864
100,0.164967,1222.864
101,0.166617,1226.44
102,0.168283,1231.357
103,0.16995,1231.357
104,0.171617,1228.973
105,0.173283,1226.217
106,0.17495,1221.597
107,0.176617,1221.597
108,0.178283,1218.617
109,0.17995,1223.46
110,0.181617,1224.652
111,0.183283,1224.652
112,0.18495,1225.024
113,0.186617,1221.746
114,0.188283,1215.711
115,0.18995,1215.711
116,0.191617,1214.147
117,0.193283,1214.37
118,0.19495,1214.296
119,0.196617,1214.296
120,0.198283,1215.115
121,0.19995,1216.307
122,0.201617,1216.307
123,0.203283,1216.382
124,0.204933,1219.437
125,0.2066,1220.778
126,0.208267,1220.778
127,0.209933,1221.299
128,0.211667,1220.778
129,0.213267,1220.033
130,0.214933,1220.033
131,0.2166,1219.064
132,0.218267,1217.648
133,0.219933,1220.554
134,0.2216,1220.554
135,0.223267,1221.746
136,0.224933,1221.746
137,0.2266,1221.746
138,0.228333,1223.311
139,0.229933,1220.331
140,0.231617,1221.299
141,0.233267,1221.299
142,0.234933,1222.566
143,0.236617,1221.746
144,0.238267,1221.001
145,0.239933,1221.001
146,0.2416,1218.542
147,0.243267,1217.425
148,0.245033,1213.774
149,0.2466,1213.774
150,0.248267,1215.711
151,0.249933,1217.052
152,0.2516,1216.903
153,0.253267,1216.903
154,0.254933,1219.809
155,0.2566,1221.001
156,0.258267,1221.001
157,0.259933,1221.076
158,0.2616,1221.672
159,0.263267,1223.609
160,0.264917,1223.609
161,0.266583,1222.715
162,0.26825,1223.832
163,0.269917,1223.013
164,0.271583,1223.013
165,0.27325,1222.491
166,0.274917,1220.256
167,0.276583,1215.637
168,0.27825,1215.637
169,0.279917,1215.339
170,0.281583,1212.806
171,0.28325,1212.806
172,0.2849,1214.296
173,0.286567,1215.86
174,0.28825,1216.456
175,0.2899,1216.456
176,0.291567,1216.605
177,0.293233,1215.264
178,0.2949,1214.445
179,0.296567,1214.445
180,0.298233,1214.445
181,0.2999,1218.021
182,0.301567,1218.617
183,0.303233,1218.617
184,0.3049,1221.448
185,0.306567,1221.895
186,0.308233,1217.574
187,0.3099,1217.574
188,0.311567,1215.562
189,0.313233,1212.06
190,0.3149,1212.06
191,0.316567,1207.516
192,0.318267,1210.347
193,0.3199,1212.06
194,0.321567,1212.06
195,0.323233,1213.178
196,0.3249,1219.958
197,0.32655,1218.468
198,0.328217,1218.468
199,0.32995,1216.009
200,0.33155,1216.307
201,0.333217,1215.339
202,0.334883,1215.339
203,0.33655,1213.476
204,0.338217,1213.029
205,0.339883,1213.029
206,0.34155,1210.719
207,0.343217,1209.08
208,0.344883,1211.166
209,0.34655,1211.166
210,0.348217,1214.892
211,0.349883,1218.99
212,0.35155,1218.17
213,0.353217,1218.17
214,0.354883,1218.095
215,0.35655,1216.978
216,0.358217,1212.806
217,0.359883,1212.806
218,0.36155,1212.284
219,0.363267,1209.378
220,0.364883,1209.378
221,0.36655,1209.229
222,0.368217,1213.178
223,0.369883,1214.37
224,0.37155,1214.37
225,0.373217,1216.382
226,0.374883,1216.978
227,0.376583,1216.382
228,0.378217,1216.382
229,0.379883,1216.158
230,0.38155,1219.287
231,0.383217,1221.895
232,0.384867,1221.895
233,0.386533,1220.107
234,0.3882,1221.001
235,0.389867,1219.511
236,0.391533,1219.511
237,0.3932,1216.158
238,0.394867,1217.499
239,0.396533,1217.499
240,0.3982,1214.668
241,0.399867,1215.19
242,0.401533,1213.923
243,0.4032,1213.923
244,0.404867,1211.39
245,0.406533,1214.072
246,0.408217,1213.923
247,0.409867,1213.923
248,0.411533,1215.86
249,0.4132,1218.393
250,0.414867,1216.829
251,0.416533,1216.829
252,0.4182,1214.668
253,0.419867,1213.178
254,0.421533,1213.178
255,0.4232,1215.637
256,0.424867,1217.872
257,0.426533,1219.66
258,0.4282,1219.66
259,0.429867,1222.715
260,0.431533,1224.577
261,0.4332,1225.546
262,0.434867,1225.546
263,0.436533,1226.142
264,0.4382,1225.248
265,0.439867,1223.758
266,0.441533,1223.758
267,0.4432,1223.609
268,0.444883,1223.981
269,0.446517,1225.248
270,0.448283,1225.248
271,0.44985,1225.919
272,0.451517,1227.111
273,0.453183,1227.111
274,0.45485,1228.005
275,0.456517,1232.028
276,0.458183,1234.412
277,0.45985,1234.412
278,0.461517,1237.616
279,0.463183,1244.172
280,0.46485,1247.749
281,0.466517,1247.749
282,0.468183,1249.015
283,0.46985,1249.388
284,0.471517,1250.058
285,0.473183,1250.058
286,0.47485,1252.517
287,0.476517,1257.062
288,0.478183,1257.062
289,0.47985,1260.489
290,0.4816,1264.14
291,0.483183,1268.387
292,0.48485,1268.387
293,0.486517,1271.74
294,0.488183,1279.488
295,0.48985,1289.472
296,0.491517,1289.472
297,0.493183,1304.373
298,0.49485,1329.035
299,0.496517,1366.734
300,0.498283,1366.734
301,0.49985,1421.794
302,0.501517,1495.406
303,0.503183,1606.047
304,0.504833,1606.047
305,0.5065,1758.859
306,0.508167,1964.942
307,0.509833,1964.942
308,0.5115,2242.774
309,0.513167,2592.206
310,0.514833,3027.469
311,0.516517,3027.469
312,0.518167,3553.406
313,0.519833,4171.505
314,0.5215,4889.443
315,0.523167,4889.443
316,0.524833,5699.843
317,0.5265,6596.372
318,0.5281670000000001,7578.358
319,0.529833,7578.358
320,0.5315,8630.603999999999
321,0.5331669999999999,9751.842000000001
322,0.534833,9751.842000000001
323,0.5365,10940.433
324,0.538167,12182.892
325,0.539833,13478.249
326,0.5415,13478.249
327,0.543167,14817.193
328,0.544833,16191.975
329,0.5465,17598.793
330,0.548167,17598.793
331,0.549833,19038.916
332,0.5515,20510.406
333,0.553167,22009.164
334,0.554833,22009.164
335,0.5565,23525.506
336,0.558167,25049.672
337,0.559833,25049.672
338,0.5615,26578.158
339,0.56315,28111.414
340,0.564817,29654.279
341,0.566533,29654.279
342,0.56815,31200.424
343,0.569817,32746.643
344,0.571483,34290.254
345,0.573167,34290.254
346,0.574817,35830.586
347,0.576467,37362.574
348,0.578133,38883.984
349,0.5798,38883.984
350,0.581467,40390.938
351,0.583217,41879.488
352,0.5848,43348.969
353,0.5865,43348.969
354,0.588133,44796.914
355,0.5898,46222.656
356,0.591467,46222.656
357,0.593133,47621.281
358,0.5948,48991.516
359,0.596467,50332.324
360,0.598133,50332.324
361,0.599917,51643.551
362,0.601467,52924.527
363,0.603133,54178.684
364,0.6048,54178.684
365,0.606467,55399.535
366,0.608133,56585.969
367,0.6098,57734.398
368,0.611467,57734.398
369,0.613133,58841.035
370,0.6148,59900.137
371,0.616467,59900.137
372,0.618133,60897.098
373,0.6198,61821.715
374,0.621467,62648.207
375,0.623133,62648.207
376,0.6248,63343.867
377,0.62645,63857.363
378,0.628117,64101.516
379,0.629783,64101.516
380,0.63145,63932.164
381,0.633117,63126.313
382,0.634783,61418.637
383,0.63645,61418.637
384,0.638117,58584.141
385,0.639783,54586.156
386,0.64145,49644.336
387,0.643117,49644.336
388,0.644783,44206.531
389,0.64645,38798.375
390,0.6481170000000001,38798.375
391,0.649783,33853.875
392,0.65145,29628.352
393,0.6531169999999999,26175.826
394,0.654817,26175.826
395,0.65645,23433.045
396,0.658117,21276.697
397,0.659783,19569.77
398,0.66145,19569.77
399,0.663117,18200.502
400,0.664783,17081.127
401,0.66645,16145.482
402,0.668117,16145.482
403,0.669783,15349.016
404,0.67145,14661.178
405,0.673117,14661.178
406,0.674783,14051.423
407,0.67645,13510.063
408,0.678117,13022.795
409,0.679783,13022.795
410,0.68145,12577.251
411,0.6831,12171.194
412,0.6848,11795.461
413,0.686433,11795.461
414,0.6881,11443.645
415,0.689767,11115.148
416,0.69145,10807.439
417,0.6931,10807.439
418,0.694767,10518.282
419,0.696433,10247.604
420,0.6981000000000001,9989.813
421,0.699767,9989.813
422,0.701483,9748.116
423,0.7030999999999999,9516.328
424,0.704767,9516.328
425,0.706433,9300.857
426,0.7081,9098.053
427,0.709767,8903.221
428,0.711433,8903.221
429,0.7131,8717.030000000001
430,0.714767,8538.737999999999
431,0.716433,8366.852999999999
432,0.7181999999999999,8366.852999999999
433,0.719767,8203.536
434,0.721433,8049.98
435,0.7231,7902.16
436,0.7247670000000001,7902.16
437,0.726433,7760.897
438,0.7281,7627.159
439,0.7297670000000001,7627.159
440,0.731433,7499.531
441,0.7331,7376.895
442,0.734883,7259.846
443,0.736433,7259.846
444,0.7381,7144.063
445,0.739767,7034.093
446,0.741433,6922.632
447,0.7431,6922.632
448,0.74475,6816.834
449,0.746417,6715.804
450,0.7480830000000001,6614.7
451,0.74975,6614.7
452,0.751417,6522.611
453,0.7530829999999999,6432.086
454,0.75475,6432.086
455,0.756417,6343.946
456,0.758083,6258.488
457,0.75975,6175.488
458,0.761417,6175.488
459,0.763083,6094.947
460,0.76475,6020.218
461,0.766417,5946.83
462,0.768083,5946.83
463,0.76975,5875.528
464,0.771417,5807.653
465,0.773083,5740.076
466,0.77475,5740.076
467,0.776417,5673.245
468,0.778083,5609.021
469,0.7797500000000001,5546.883
470,0.781417,5546.883
471,0.783083,5483.031
472,0.7847499999999999,5422.831
473,0.786417,5422.831
474,0.788083,5363.822
475,0.78975,5305.186
476,0.791417,5248.636
477,0.793083,5248.636
478,0.79475,5194.694
479,0.796417,5141.72
480,0.798083,5089.641
481,0.79975,5089.641
482,0.801417,5040.02
483,0.803067,4991.74
484,0.804767,4946.44
485,0.8064,4946.44
486,0.808067,4901.364
487,0.809733,4856.214
488,0.8114,4856.214
489,0.813067,4811.809
490,0.814733,4765.838
491,0.8164,4722.252
492,0.818067,4722.252
493,0.819783,4680.529
494,0.8214,4640.371
495,0.823067,4601.479
496,0.824733,4601.479
497,0.8264,4563.108
498,0.828067,4527.271
499,0.8297330000000001,4490.837
500,0.8314,4490.837
501,0.833067,4453.584
502,0.8347329999999999,4418.865
503,0.836433,4381.314
504,0.838067,4381.314
505,0.839733,4345.402
506,0.8414,4312.992
507,0.843067,4312.992
508,0.844733,4281.849
509,0.8464,4251.003
510,0.848067,4218.668
511,0.849733,4218.668
512,0.8514,4187.822
513,0.853133,4155.71
514,0.854733,4125.982
515,0.8564000000000001,4125.982
516,0.858067,4100.874
517,0.859733,4073.083
518,0.8614000000000001,4046.857
519,0.863067,4046.857
520,0.864717,4021.823
521,0.866383,3992.915
522,0.8680330000000001,3992.915
523,0.8697,3964.752
524,0.871367,3936.142
525,0.8730329999999999,3906.489
526,0.8747,3906.489
527,0.876367,3879.741
528,0.878033,3854.111
529,0.8797,3829.151
530,0.881367,3829.151
531,0.883033,3807.768
532,0.8847,3786.832
533,0.886367,3763.661
534,0.888033,3763.661
535,0.8897,3744.14
536,0.891367,3722.608
537,0.893033,3700.48
538,0.8947000000000001,3700.48
539,0.896367,3681.257
540,0.898033,3658.235
541,0.8997000000000001,3658.235
542,0.901367,3639.683
543,0.903033,3621.057
544,0.9046999999999999,3600.046
545,0.906367,3600.046
546,0.908033,3583.208
547,0.9097,3561.452
548,0.911367,3544.018
549,0.913033,3544.018
550,0.9147,3528.669
551,0.916367,3506.914
552,0.918033,3485.754
553,0.9197,3485.754
554,0.92135,3461.54
555,0.923033,3441.125
556,0.924683,3441.125
557,0.92635,3428.683
558,0.928017,3416.464
559,0.929683,3405.809
560,0.9313669999999999,3405.809
561,0.933017,3390.834
562,0.934683,3371.462
563,0.93635,3352.91
564,0.938033,3352.91
565,0.939683,3334.06
566,0.94135,3318.414
567,0.943017,3303.662
568,0.9446830000000001,3303.662
569,0.94635,3290.474
570,0.948017,3274.903
571,0.9496830000000001,3274.903
572,0.95135,3261.715
573,0.953017,3249.273
574,0.9547,3237.575
575,0.95635,3237.575
576,0.958017,3226.325
577,0.959683,3211.945
578,0.96135,3197.566
579,0.963017,3197.566
580,0.964683,3182.888
581,0.96635,3170.222
582,0.968017,3156.29
583,0.969683,3156.29
584,0.971467,3142.282
585,0.973017,3129.989
586,0.974683,3116.95
587,0.9763500000000001,3116.95
588,0.978017,3105.253
589,0.979683,3091.917
590,0.9813499999999999,3091.917
591,0.983017,3077.835
592,0.9847,3065.392
593,0.986333,3053.323
594,0.988,3053.323
595,0.989667,3043.935
596,0.991333,3032.61
597,0.993,3021.657
598,0.994667,3021.657
599,0.996333,3013.238
600,0.998,3001.392
601,0.999667,2992.451
602,1.001333,2992.451
603,1.003,2981.946
604,1.004667,2970.174
605,1.006333,2970.174
606,1.008,2958.924
607,1.009667,2946.854
608,1.011333,2937.689
609,1.013,2937.689
610,1.014667,2926.29
611,1.016333,2916.381
612,1.018,2906.397
613,1.019667,2906.397
614,1.021333,2894.029
615,1.023,2882.406
616,1.024667,2874.657
617,1.026333,2874.657
618,1.028,2864.45
619,1.029667,2856.925
620,1.031333,2850.22
621,1.033,2850.22
622,1.034667,2839.267
623,1.036333,2835.095
624,1.038,2835.095
625,1.039667,2826.75
626,1.041333,2819.374
627,1.042983,2814.01
628,1.044667,2814.01
629,1.046317,2804.398
630,1.047983,2793.968
631,1.04965,2782.27
632,1.051317,2782.27
633,1.052983,2774.522
634,1.05465,2763.346
635,1.05635,2755.895
636,1.057983,2755.895
637,1.05965,2748.519
638,1.061317,2737.12
639,1.062983,2737.12
640,1.06465,2730.563
641,1.066333,2724.454
642,1.067983,2719.387
643,1.06965,2719.387
644,1.071317,2714.097
645,1.07305,2707.988
646,1.07465,2700.24
647,1.076317,2700.24
648,1.077983,2693.236
649,1.07965,2686.083
650,1.081317,2678.484
651,1.082983,2678.484
652,1.08465,2672.598
653,1.086317,2665.073
654,1.087983,2657.771
655,1.089767,2657.771
656,1.091317,2649.128
657,1.092983,2639.964
658,1.09465,2639.964
659,1.096317,2632.29
660,1.097983,2623.647
661,1.09965,2619.997
662,1.101317,2619.997
663,1.102983,2615.526
664,1.104633,2609.491
665,1.1063,2605.17
666,1.107967,2605.17
667,1.109633,2597.57
668,1.1113,2590.045
669,1.112967,2583.489
670,1.114633,2583.489
671,1.1163,2576.56
672,1.117967,2567.172
673,1.119633,2567.172
674,1.1213,2563.298
675,1.122967,2558.455
676,1.124633,2551.228
677,1.1263,2551.228
678,1.127967,2546.012
679,1.129633,2535.656
680,1.1313,2526.79
681,1.132967,2526.79
682,1.134633,2523.288
683,1.1363,2518.967
684,1.137967,2517.104
685,1.139633,2517.104
686,1.141317,2511.74
687,1.142967,2503.619
688,1.144633,2500.042
689,1.1463,2500.042
690,1.147983,2493.635
691,1.149633,2489.239
692,1.1513,2489.239
693,1.152967,2484.098
694,1.154633,2476.126
695,1.1563,2472.401
696,1.157967,2472.401
697,1.159617,2466.664
698,1.161283,2461.374
699,1.16295,2458.095
700,1.1646,2458.095
701,1.166267,2453.849
702,1.167933,2452.806
703,1.1696,2450.571
704,1.171267,2450.571
705,1.172933,2444.759
706,1.174667,2436.191
707,1.176267,2436.191
708,1.177933,2428.07
709,1.1796,2422.556
710,1.181267,2417.937
711,1.182933,2417.937
712,1.1846,2411.977
713,1.186267,2406.091
714,1.187933,2401.173
715,1.1896,2401.173
716,1.191267,2399.087
717,1.192933,2399.459
718,1.1946,2395.809
719,1.196267,2395.809
720,1.197933,2391.115
721,1.1996,2381.653
722,1.201267,2381.653
723,1.202933,2376.139
724,1.2046,2373.084
725,1.206267,2368.763
726,1.208017,2368.763
727,1.2096,2367.571
728,1.211267,2360.418
729,1.212933,2357.066
730,1.2146,2357.066
731,1.216267,2355.128
732,1.21795,2351.925
733,1.2196,2348.498
734,1.221283,2348.498
735,1.222933,2343.357
736,1.224583,2340.227
737,1.22625,2337.247
738,1.227917,2337.247
739,1.229583,2335.086
740,1.23125,2331.436
741,1.232917,2331.436
742,1.234583,2326.146
743,1.23625,2320.26
744,1.237917,2316.385
745,1.239583,2316.385
746,1.24125,2313.48
747,1.242917,2308.711
748,1.244583,2302.602
749,1.24625,2302.602
750,1.247917,2296.641
751,1.249583,2293.587
752,1.25125,2290.01
753,1.252917,2290.01
754,1.254583,2289.563
755,1.25625,2285.019
756,1.257917,2285.019
757,1.259583,2282.038
758,1.26125,2276.599
759,1.262917,2271.831
760,1.264583,2271.831
761,1.26625,2270.788
762,1.267917,2265.125
763,1.269583,2262.518
764,1.27125,2262.518
765,1.272917,2257.079
766,1.274583,2252.906
767,1.27625,2250.373
768,1.277917,2250.373
769,1.279583,2247.393
770,1.28125,2242.774
771,1.282917,2238.825
772,1.284583,2238.825
773,1.286233,2237.558
774,1.2879,2233.46
775,1.2896,2233.46
776,1.2913,2235.1
777,1.293,2232.045
778,1.294567,2224.147
779,1.296233,2224.147
780,1.2979,2219.826
781,1.299567,2215.281
782,1.301233,2215.207
783,1.3029,2215.207
784,1.304567,2213.12
785,1.306233,2214.238
786,1.3079,2210.14
787,1.309567,2210.14
788,1.311233,2206.638
789,1.3129,2204.031
790,1.314567,2204.031
791,1.316233,2198.07
792,1.3179,2196.506
793,1.319567,2193.6
794,1.321233,2193.6
795,1.322917,2193.004
796,1.324567,2188.533
797,1.326317,2180.338
798,1.3279,2180.338
799,1.329567,2172.813
800,1.331233,2168.938
801,1.3329,2168.864
802,1.334567,2168.864
803,1.336233,2168.193
804,1.3379,2168.864
805,1.339567,2168.864
806,1.341233,2163.276
807,1.3429,2158.433
808,1.34455,2157.018
809,1.346217,2157.018
810,1.347883,2150.386
811,1.34955,2147.555
812,1.351217,2145.693
813,1.352883,2145.693
814,1.35455,2143.085
815,1.356217,2141.446
816,1.357883,2137.795
817,1.35955,2137.795
818,1.361217,2133.921
819,1.362883,2132.729
820,1.36455,2131.09
821,1.366217,2131.09
822,1.367883,2129.525
823,1.36955,2126.992
824,1.371217,2126.992
825,1.372883,2121.627
826,1.37455,2120.137
827,1.37625,2118.722
828,1.377883,2118.722
829,1.37955,2117.157
830,1.381217,2114.251
831,1.382883,2110.973
832,1.38455,2110.973
833,1.386217,2106.13
834,1.387883,2103.001
835,1.38955,2102.628
836,1.391217,2102.628
837,1.392883,2101.809
838,1.39455,2101.734
839,1.396217,2101.734
840,1.397883,2102.33
841,1.39955,2099.872
842,1.401217,2096.146
843,1.402883,2096.146
844,1.40455,2094.358
845,1.4062,2087.802
846,1.407867,2083.182
847,1.409533,2083.182
848,1.411283,2081.022
849,1.412867,2076.998
850,1.414533,2075.508
851,1.4162,2075.508
852,1.417867,2074.316
853,1.419533,2072.901
854,1.4212,2072.751
855,1.422867,2072.751
856,1.424533,2074.689
857,1.4262,2073.72
858,1.427867,2073.72
859,1.42955,2072.156
860,1.4312,2068.43
861,1.432867,2066.418
862,1.434533,2066.418
863,1.4362,2063.96
864,1.437867,2059.937
865,1.439533,2057.552
866,1.4412,2057.552
867,1.442867,2054.423
868,1.444617,2053.231
869,1.4462,2053.082
870,1.447867,2053.082
871,1.449533,2050.176
872,1.451183,2046.302
873,1.45285,2046.302
874,1.454517,2042.428
875,1.456183,2039.522
876,1.45785,2040.49
877,1.459517,2040.49
878,1.461183,2039.969
879,1.46285,2039.82
880,1.4645,2034.754
881,1.4662,2034.754
882,1.467833,2030.879
883,1.4695,2026.483
884,1.471167,2023.876
885,1.472833,2023.876
886,1.4745,2025.515
887,1.476167,2022.535
888,1.477833,2022.833
889,1.4795,2022.833
890,1.481167,2019.927
891,1.482833,2013.668
892,1.4845,2013.668
893,1.486167,2010.316
894,1.487833,2004.132
895,1.4895,2000.928
896,1.491167,2000.928
897,1.492833,2001.524
898,1.4945,2001.971
899,1.496167,2004.504
900,1.49785,2004.504
901,1.4995,2006.665
902,1.5012,2003.759
903,1.502833,1999.736
904,1.5045,1999.736
905,1.506167,1993.403
906,1.507833,1987.964
907,1.5095,1987.964
908,1.511167,1985.952
909,1.512833,1986.772
910,1.5145,1985.505
911,1.516167,1985.505
912,1.517833,1984.611
913,1.5195,1985.058
914,1.521167,1982.45
915,1.522833,1982.45
916,1.524483,1979.917
917,1.52615,1981.035
