"ID","sea_time","fid_signal"
1,0,143.215
2,0.001667,143.036
3,0.003333,143.036
4,0.005,142.887
5,0.006667,142.813
6,0.008333,142.328
7,0.01,142.328
8,0.011667,141.539
9,0.013333,141.174
10,0.015,141.285
11,0.016683,141.285
12,0.018333,141.673
13,0.02,142.194
14,0.021667,142.664
15,0.02335,142.664
16,0.025,142.507
17,0.026667,142.589
18,0.0284,142.82
19,0.03,142.82
20,0.031667,142.671
21,0.033333,142.522
22,0.035,142.522
23,0.036667,142.559
24,0.038333,142.507
25,0.040017,142.425
26,0.041667,142.425
27,0.043333,142.813
28,0.045117,142.85
29,0.046667,142.91
30,0.048333,142.91
31,0.05,142.954
32,0.051667,142.664
33,0.053333,142.664
34,0.055,142.634
35,0.056667,142.619
36,0.058317,143.096
37,0.059983,143.096
38,0.0617,143.662
39,0.063317,143.714
40,0.064983,143.975
41,0.06665,143.975
42,0.068317,143.819
43,0.069983,143.453
44,0.07165000000000001,143.275
45,0.07331699999999999,143.275
46,0.07498299999999999,143.088
47,0.07665,143.237
48,0.078317,143.141
49,0.079983,143.141
50,0.08165,143.26
51,0.083317,143.334
52,0.084983,143.334
53,0.08665,143.111
54,0.08831700000000001,143.193
55,0.08998299999999999,143.155
56,0.09165,143.155
57,0.093317,142.828
58,0.094967,142.381
59,0.096633,142.001
60,0.098317,142.001
61,0.099967,142.06
62,0.101633,142.165
63,0.1033,142.567
64,0.104967,142.567
65,0.106633,143.036
66,0.1083,142.679
67,0.109967,142.679
68,0.111633,142.53
69,0.1133,142.165
70,0.114967,141.792
71,0.116633,141.792
72,0.118283,142.053
73,0.11995,142.403
74,0.121617,142.857
75,0.123283,142.857
76,0.12495,143.155
77,0.126633,143.26
78,0.128283,142.82
79,0.12995,142.82
80,0.131617,142.522
81,0.133283,142.425
82,0.13495,142.284
83,0.136617,142.284
84,0.138283,142.395
85,0.13995,142.269
86,0.141617,142.269
87,0.143283,142.068
88,0.14495,141.822
89,0.146667,141.978
90,0.148283,141.978
91,0.14995,142.358
92,0.151617,142.597
93,0.153283,142.857
94,0.15495,142.857
95,0.156617,142.843
96,0.158283,142.552
97,0.15995,142.604
98,0.161617,142.604
99,0.163367,142.843
100,0.16495,142.79
101,0.166617,142.79
102,0.168283,143.014
103,0.16995,142.895
104,0.171617,142.485
105,0.173283,142.485
106,0.17495,142.492
107,0.176617,142.567
108,0.178267,142.828
109,0.180033,142.828
110,0.1816,142.947
111,0.183267,143.096
112,0.184933,142.857
113,0.1866,142.857
114,0.188267,142.634
115,0.189933,142.701
116,0.191617,142.656
117,0.193267,142.656
118,0.194933,142.708
119,0.1966,142.917
120,0.198267,142.917
121,0.199933,142.53
122,0.2016,142.373
123,0.203267,142.522
124,0.204933,142.522
125,0.2066,142.507
126,0.208267,142.775
127,0.209933,143.036
128,0.2116,143.036
129,0.2133,142.828
130,0.214933,142.664
131,0.2166,142.962
132,0.218267,142.962
133,0.219933,142.753
134,0.2216,143.051
135,0.223267,143.051
136,0.224933,142.999
137,0.2266,142.641
138,0.228267,142.351
139,0.229933,142.351
140,0.2316,141.919
141,0.233267,141.941
142,0.234933,142.202
143,0.2366,142.202
144,0.23825,142.664
145,0.239917,143.103
146,0.241583,142.954
147,0.24325,142.954
148,0.244917,143.014
149,0.246617,142.887
150,0.24825,142.887
151,0.249917,142.582
152,0.251583,142.567
153,0.25325,142.172
154,0.254917,142.172
155,0.256583,142.09
156,0.25825,142.075
157,0.259917,142.209
158,0.261583,142.209
159,0.26325,142.433
160,0.264917,142.209
161,0.266583,142.328
162,0.26825,142.328
163,0.269917,142.537
164,0.271583,142.41
165,0.27325,142.649
166,0.274917,142.649
167,0.276583,142.626
168,0.27825,142.351
169,0.279917,142.351
170,0.281583,142.306
171,0.28325,142.388
172,0.284917,142.433
173,0.286583,142.433
174,0.28825,142.477
175,0.289917,142.798
176,0.291583,143.111
177,0.29325,143.111
178,0.294917,143.528
179,0.296583,144.213
180,0.298283,144.608
181,0.2999,144.608
182,0.301567,145.227
183,0.303233,146.255
184,0.3049,146.255
185,0.306567,147.544
186,0.308233,149.6
187,0.3099,151.895
188,0.311567,151.895
189,0.313233,154.167
190,0.3149,157.17
191,0.316567,161.484
192,0.318233,161.484
193,0.3199,166.841
194,0.321567,173.926
195,0.323233,182.286
196,0.3249,182.286
197,0.326567,192.039
198,0.328233,203.483
199,0.3299,216.849
200,0.331567,216.849
201,0.333233,232.503
202,0.3349,250.079
203,0.336567,250.079
204,0.338233,270.799
205,0.3399,294.052
206,0.341567,320.181
207,0.343233,320.181
208,0.3449,349.924
209,0.346567,382.543
210,0.348233,419.036
211,0.3499,419.036
212,0.351567,459.604
213,0.353233,503.883
214,0.3549,552.8630000000001
215,0.356567,552.8630000000001
216,0.358217,606.626
217,0.359883,665.5599999999999
218,0.36155,665.5599999999999
219,0.363217,730.254
220,0.364883,800.446
221,0.36655,877.47
222,0.368217,877.47
223,0.369883,961.6609999999999
224,0.37155,1054.026
225,0.373217,1156.017
226,0.374883,1156.017
227,0.37655,1268.163
228,0.378217,1392.558
229,0.3799,1530.156
230,0.38155,1530.156
231,0.383283,1683.444
232,0.384883,1854.107
233,0.386533,2044.059
234,0.3882,2044.059
235,0.389867,2255.678
236,0.391533,2490.655
237,0.3932,2490.655
238,0.394867,2750.732
239,0.396533,3036.641
240,0.3982,3349.573
241,0.399867,3349.573
242,0.401533,3688.142
243,0.4032,4052.147
244,0.404867,4439.101
245,0.406533,4439.101
246,0.4082,4845.284
247,0.409867,5267.545
248,0.411533,5700
249,0.4132,5700
250,0.414867,6137.043
251,0.416633,6572.448
252,0.418183,6572.448
253,0.41985,6999.15
254,0.421517,7410.102
255,0.423183,7798.441
256,0.42485,7798.441
257,0.426517,8157.119
258,0.428183,8479.796
259,0.42985,8760.52
260,0.431517,8760.52
261,0.433183,8994.496999999999
262,0.43485,9177.923000000001
263,0.436517,9307.683000000001
264,0.438183,9307.683000000001
265,0.43985,9382.456
266,0.441517,9402.007
267,0.443183,9402.007
268,0.44485,9367.235000000001
269,0.446517,9280.048000000001
270,0.448183,9143.911
271,0.44985,9143.911
272,0.451517,8962.348
273,0.453183,8739.695
274,0.45485,8481.51
275,0.456517,8481.51
276,0.458183,8192.210999999999
277,0.45985,7877.536
278,0.461517,7543.169
279,0.463183,7543.169
280,0.46485,7193.744
281,0.466517,6834.492
282,0.468183,6469.548
283,0.46985,6469.548
284,0.471517,6102.644
285,0.473183,5738.102
286,0.47485,5738.102
287,0.476517,5378.567
288,0.478167,5027.234
289,0.479833,4686.616
290,0.4815,4686.616
291,0.483167,4358.016
292,0.484833,4043.527
293,0.4865,3744.029
294,0.488167,3744.029
295,0.489833,3460.221
296,0.4915,3192.902
297,0.493167,2942.584
298,0.494833,2942.584
299,0.4965,2708.994
300,0.498167,2492.003
301,0.499833,2492.003
302,0.501567,2291.247
303,0.503167,2105.512
304,0.504833,1934.826
305,0.5065,1934.826
306,0.508167,1778.357
307,0.509833,1635.03
308,0.5115,1504.578
309,0.513167,1504.578
310,0.514833,1385.771
311,0.5165,1277.655
312,0.518167,1179.464
313,0.519833,1179.464
314,0.5215,1090.4
315,0.523167,1009.583
316,0.524833,936.337
317,0.5265,936.337
318,0.5281670000000001,870.347
319,0.529833,810.631
320,0.5315,810.631
321,0.5331669999999999,756.4349999999999
322,0.534917,707.5069999999999
323,0.5365,663.2430000000001
324,0.53815,663.2430000000001
325,0.539817,623.234
326,0.541483,587.322
327,0.54315,554.696
328,0.544817,554.696
329,0.5464830000000001,525.422
330,0.54815,499.114
331,0.549817,474.96
332,0.5514829999999999,474.96
333,0.55315,453.487
334,0.554817,433.214
335,0.5564829999999999,433.214
336,0.55815,414.819
337,0.559817,398.122
338,0.561483,382.52
339,0.56315,382.52
340,0.564817,368.953
341,0.566483,355.817
342,0.56815,344.113
343,0.569817,344.113
344,0.571483,333.332
345,0.57315,323.124
346,0.574817,314.206
347,0.576483,314.206
348,0.5781500000000001,305.72
349,0.579817,298.314
350,0.581483,291.251
351,0.5831499999999999,291.251
352,0.584817,284.731
353,0.586483,278.994
354,0.58815,278.994
355,0.589817,273.399
356,0.591483,268.303
357,0.59315,263.497
358,0.594817,263.497
359,0.596483,258.662
360,0.598133,254.273
361,0.5998,250.116
362,0.6015,250.116
363,0.603133,246.003
364,0.6048,242.591
365,0.606467,238.933
366,0.608133,238.933
367,0.6098,235.796
368,0.611467,232.965
369,0.61315,232.965
370,0.6148,229.843
371,0.616467,227.369
372,0.618133,224.598
373,0.6198669999999999,224.598
374,0.621467,222.251
375,0.623133,220.351
376,0.6248,218.362
377,0.626467,218.362
378,0.6281330000000001,216.655
379,0.6298,214.286
380,0.631467,212.103
381,0.6331329999999999,212.103
382,0.6348,210.166
383,0.636467,208.408
384,0.638133,207.223
385,0.6398,207.223
386,0.641467,205.77
387,0.643133,204.176
388,0.6448,204.176
389,0.646467,202.455
390,0.64815,201.024
391,0.6498,199.594
392,0.651467,199.594
393,0.6532,198.536
394,0.6548,197.515
395,0.656467,196.539
396,0.658133,196.539
397,0.659783,195.481
398,0.66145,194.199
399,0.663117,192.933
400,0.664783,192.933
401,0.66645,191.607
402,0.668117,190.534
403,0.669783,190.534
404,0.67145,189.751
405,0.673117,189.073
406,0.674783,188.142
407,0.67645,188.142
408,0.6781,187.472
409,0.679767,186.533
410,0.681433,185.534
411,0.6831,185.534
412,0.684767,185.147
413,0.686433,184.23
414,0.6881,183.612
415,0.689767,183.612
416,0.691433,183.217
417,0.6931,182.591
418,0.694767,182.591
419,0.696433,181.98
420,0.6981000000000001,181.22
421,0.699783,180.61
422,0.701433,180.61
423,0.7030999999999999,179.663
424,0.704767,179.164
425,0.706433,178.65
426,0.7081,178.65
427,0.709767,177.927
428,0.711433,177.234
429,0.7131,176.616
430,0.714767,176.616
431,0.716433,175.938
432,0.718083,175.461
433,0.71975,175.335
434,0.721417,175.335
435,0.723083,175.439
436,0.72475,175.163
437,0.726417,175.163
438,0.728083,174.962
439,0.72975,174.47
440,0.731417,173.628
441,0.733083,173.628
442,0.73475,173.472
443,0.736417,172.824
444,0.73815,172.392
445,0.73975,172.392
446,0.7414500000000001,171.699
447,0.743083,171.11
448,0.74475,170.916
449,0.746417,170.916
450,0.7480830000000001,170.566
451,0.74975,170.723
452,0.751417,170.723
453,0.7530829999999999,170.186
454,0.75475,169.575
455,0.756417,169.091
456,0.758083,169.091
457,0.75975,168.301
458,0.761417,168.055
459,0.763083,167.75
460,0.76475,167.75
461,0.766417,167.66
462,0.768083,167.459
463,0.76975,167.251
464,0.771517,167.251
465,0.773083,167.333
466,0.77475,166.915
467,0.7764,166.565
468,0.778067,166.565
469,0.779733,166.245
470,0.7814,165.865
471,0.783067,165.865
472,0.784733,165.716
473,0.7864,165.612
474,0.788067,165.492
475,0.789733,165.492
476,0.791417,165.321
477,0.793067,164.822
478,0.794733,164.561
479,0.7964,164.561
480,0.798067,164.159
481,0.799733,163.741
482,0.8014,163.689
483,0.803067,163.689
484,0.804733,163.63
485,0.8064,163.54
486,0.808067,163.54
487,0.809733,163.354
488,0.8114,163.101
489,0.813067,162.639
490,0.814733,162.639
491,0.8164169999999999,162.408
492,0.818067,162.303
493,0.819733,162.199
494,0.8214,162.199
495,0.823083,162.087
496,0.824733,162.125
497,0.8264,161.946
498,0.828067,161.946
499,0.8297330000000001,161.864
500,0.8314,161.842
501,0.833067,161.842
502,0.8347329999999999,161.514
503,0.836383,161.327
504,0.83805,161.052
505,0.839717,161.052
506,0.841383,160.702
507,0.84305,160.336
508,0.8447170000000001,159.949
509,0.846383,159.949
510,0.84805,159.651
511,0.8497169999999999,159.599
512,0.851383,159.733
513,0.85305,159.733
514,0.8547169999999999,159.793
515,0.856383,159.673
516,0.85805,159.435
517,0.859717,159.435
518,0.861383,159.264
519,0.86305,159.018
520,0.864717,159.018
521,0.866383,158.943
522,0.86805,158.839
523,0.869717,158.653
524,0.871383,158.653
525,0.8731,158.541
526,0.874733,158.504
527,0.876383,158.407
528,0.87805,158.407
529,0.879717,158.221
530,0.881383,158.086
531,0.88305,158.034
532,0.884717,158.034
533,0.886383,157.848
534,0.88805,157.706
535,0.889833,157.587
536,0.891383,157.587
537,0.89305,157.401
538,0.894717,157.237
539,0.896367,157.237
540,0.898033,156.976
541,0.8997000000000001,156.783
542,0.901367,156.358
543,0.903033,156.358
544,0.9046999999999999,156.358
545,0.906467,156.291
546,0.908033,156.35
547,0.9097,156.35
548,0.911367,156.671
549,0.913033,156.559
550,0.9147,156.507
551,0.916367,156.507
552,0.918033,156.343
553,0.9197,156.045
554,0.921367,156.045
555,0.923033,155.963
556,0.9247,155.702
557,0.9263670000000001,155.643
558,0.928033,155.643
559,0.9297,155.613
560,0.9313669999999999,155.479
561,0.933033,155.799
562,0.9347,155.799
563,0.9363669999999999,155.717
564,0.938033,155.881
565,0.9397,155.68
566,0.941367,155.68
567,0.943033,155.33
568,0.9447,155.285
569,0.946367,155.285
570,0.948033,154.883
571,0.9497,155.166
572,0.951367,155.337
573,0.953033,155.337
574,0.9547,155.24
575,0.956367,155.374
576,0.958017,154.92
577,0.959717,154.92
578,0.96135,154.451
579,0.963017,154.309
580,0.964683,153.929
581,0.96635,153.929
582,0.968017,154.108
583,0.9696669999999999,154.011
584,0.971333,153.743
585,0.973,153.743
586,0.974667,153.907
587,0.976333,153.743
588,0.978,153.743
589,0.979667,153.907
590,0.981333,153.631
591,0.983,153.437
592,0.984667,153.437
593,0.986333,153.244
594,0.988,153.266
595,0.989667,153.445
596,0.9913999999999999,153.445
597,0.993,153.244
598,0.994667,153.251
599,0.996333,153.095
600,0.998017,153.095
601,0.999667,153.318
602,1.001333,153.311
603,1.003,153.311
604,1.004667,153.407
605,1.006333,153.303
606,1.008067,152.938
607,1.009667,152.938
608,1.011333,153.035
609,1.013017,152.901
610,1.014667,152.849
611,1.016333,152.849
612,1.017983,152.998
613,1.01965,152.797
614,1.021317,152.558
615,1.022983,152.558
616,1.024783,152.327
617,1.026317,152.275
618,1.027983,152.275
619,1.02965,152.253
620,1.031317,152.372
621,1.032983,152.364
622,1.03465,152.364
623,1.036367,152.178
624,1.037983,152.186
625,1.03965,152.2
626,1.041317,152.2
627,1.042983,152.178
628,1.04465,151.865
629,1.046317,151.59
630,1.047983,151.59
631,1.04965,151.277
632,1.051317,151.224
633,1.052983,151.172
634,1.05465,151.172
635,1.056317,151.403
636,1.057983,151.597
637,1.05965,151.597
638,1.061317,151.657
639,1.062983,151.761
640,1.06465,151.604
641,1.066317,151.604
642,1.067983,151.411
643,1.06965,151.232
644,1.071317,151.061
645,1.072983,151.061
646,1.07465,151.046
647,1.076317,150.979
648,1.077967,150.971
649,1.079633,150.971
650,1.0813,151.277
651,1.082967,151.254
652,1.084633,151.254
653,1.0863,151.254
654,1.087967,151.232
655,1.089633,151.21
656,1.0913,151.21
657,1.092967,151.195
658,1.094633,151.008
659,1.0963,150.964
660,1.097967,150.964
661,1.099633,151.075
662,1.1013,150.844
663,1.102967,150.874
664,1.104633,150.874
665,1.1063,150.748
666,1.107967,150.219
667,1.109633,150.345
668,1.1113,150.345
669,1.112967,150.532
670,1.114633,150.591
671,1.1163,150.591
672,1.117967,151.031
673,1.119633,150.777
674,1.1213,150.33
675,1.122967,150.33
676,1.124633,150.234
677,1.126317,149.578
678,1.127967,149.727
679,1.129633,149.727
680,1.1313,150.278
681,1.132967,150.442
682,1.134633,150.643
683,1.1363,150.643
684,1.13795,150.315
685,1.139617,149.764
686,1.141283,149.764
687,1.143083,149.429
688,1.144617,149.235
689,1.146283,149.362
690,1.14795,149.362
691,1.149617,149.526
692,1.151283,149.623
693,1.15295,149.928
694,1.154617,149.928
695,1.156283,150.234
696,1.15795,150.42
697,1.159617,150.412
698,1.161283,150.412
699,1.16295,150.122
700,1.164617,149.734
701,1.166283,149.578
702,1.16795,149.578
703,1.169617,149.347
704,1.171283,149.123
705,1.17295,149.123
706,1.174617,148.922
707,1.176283,148.863
708,1.17795,148.922
709,1.179617,148.922
710,1.181283,149.287
711,1.18295,149.399
712,1.184617,149.347
713,1.186283,149.347
714,1.18795,149.265
715,1.189617,149.086
716,1.191283,149.004
717,1.19295,149.004
718,1.194617,148.728
719,1.1963,148.796
720,1.197933,148.796
721,1.1996,148.833
722,1.201267,149.086
723,1.202933,149.265
724,1.2046,149.265
725,1.206267,149.31
726,1.207933,149.265
727,1.2096,149.228
728,1.211267,149.228
729,1.212933,149.31
730,1.2146,149.116
731,1.216267,148.833
732,1.217933,148.833
733,1.2196,148.542
734,1.221267,148.52
735,1.222933,148.848
736,1.2246,148.848
737,1.226283,149.198
738,1.228,149.563
739,1.2296,149.563
740,1.231267,149.518
741,1.232933,149.481
742,1.2346,149.317
743,1.236267,149.317
744,1.237933,149.064
745,1.2396,148.825
746,1.241267,148.512
747,1.242933,148.512
748,1.2446,148.55
749,1.246267,148.714
750,1.247933,148.714
751,1.2496,148.714
752,1.251267,148.654
753,1.252933,148.557
754,1.2546,148.557
755,1.256267,148.132
756,1.257933,148.11
757,1.259583,148.237
758,1.26135,148.237
759,1.2629,148.304
760,1.264567,148.393
761,1.266233,148.505
762,1.2679,148.505
763,1.269567,148.542
764,1.271233,148.423
765,1.2729,148.267
766,1.274567,148.267
767,1.276233,148.147
768,1.2779,147.916
769,1.279567,147.916
770,1.281233,147.916
771,1.2829,148.155
772,1.284567,148.155
773,1.28625,148.155
774,1.2879,148.177
775,1.289567,148.349
776,1.291233,148.177
777,1.2929,148.177
778,1.294567,148.17
779,1.296233,148.199
780,1.2979,148.14
781,1.299567,148.14
782,1.301233,148.17
783,1.3029,147.909
784,1.304567,147.76
785,1.306233,147.76
786,1.3079,147.551
787,1.309567,147.358
788,1.311233,147.358
789,1.3129,147.671
790,1.314567,147.656
791,1.31625,147.767
792,1.317883,147.767
793,1.31955,147.954
794,1.321217,147.536
795,1.322883,147.358
796,1.32455,147.358
797,1.326217,147.037
798,1.327883,146.843
799,1.32955,146.814
800,1.331217,146.814
801,1.332883,147.037
802,1.33455,147.499
803,1.336217,147.499
804,1.337883,147.603
805,1.33955,147.775
806,1.341217,147.678
807,1.342883,147.678
808,1.34455,147.454
809,1.346283,147.276
810,1.347883,147.142
811,1.34955,147.142
812,1.351217,147.492
813,1.352883,147.343
814,1.35455,147.521
815,1.356217,147.521
816,1.357883,147.872
817,1.35955,147.596
818,1.361217,147.864
819,1.362883,147.864
820,1.364583,147.656
821,1.366217,147.223
822,1.367883,147.223
823,1.36955,147.253
824,1.371217,147.268
825,1.372883,147.566
826,1.37455,147.566
827,1.376217,147.626
828,1.377867,147.708
829,1.379667,147.44
830,1.3812,147.44
831,1.382867,147.223
832,1.384533,147.238
833,1.3862,146.97
834,1.387867,146.97
835,1.389533,146.635
836,1.391233,146.814
837,1.392867,146.814
838,1.394533,146.806
839,1.3962,146.948
840,1.397867,147.298
841,1.399533,147.298
842,1.401217,147.089
843,1.402867,147.246
844,1.404533,146.963
845,1.4062,146.963
846,1.407867,146.866
847,1.409533,146.829
848,1.4112,146.769
849,1.412867,146.769
850,1.414533,146.918
851,1.4162,146.955
852,1.417867,146.799
853,1.419533,146.799
854,1.4212,146.694
855,1.422867,146.672
856,1.424533,146.672
857,1.4262,146.739
858,1.427867,146.94
859,1.429533,146.925
860,1.4312,146.925
861,1.432867,146.769
862,1.434533,146.881
863,1.4362,146.747
864,1.43785,146.747
865,1.439517,146.627
866,1.441183,146.739
867,1.44285,146.553
868,1.444517,146.553
869,1.446183,146.747
870,1.44785,146.814
871,1.449517,146.814
872,1.451183,146.687
873,1.45285,146.382
874,1.454517,146.27
875,1.456183,146.27
876,1.45785,146.136
877,1.459517,146.076
878,1.461183,146.329
879,1.46285,146.329
880,1.464583,146.218
881,1.466183,146.046
882,1.46785,146.419
883,1.469517,146.419
884,1.471183,146.24
885,1.47285,145.972
886,1.474517,145.972
887,1.476183,146.277
888,1.47785,146.158
889,1.479517,146.165
890,1.481233,146.165
891,1.48285,146.478
892,1.484517,146.359
893,1.486183,146.382
894,1.48785,146.382
895,1.489517,146.419
896,1.491183,146.68
897,1.49285,146.516
898,1.494517,146.516
899,1.496183,146.143
900,1.497933,145.942
901,1.4995,145.532
902,1.501167,145.532
903,1.502833,145.696
904,1.5045,145.994
905,1.506167,145.994
906,1.507833,146.307
907,1.5095,146.501
908,1.511167,146.523
909,1.512833,146.523
910,1.5145,146.538
911,1.516167,146.471
912,1.517833,146.143
913,1.5195,146.143
914,1.521167,146.173
915,1.522833,145.935
916,1.5245,145.704
917,1.5262,145.704
918,1.52785,145.8
919,1.5295,145.555
920,1.531167,145.555
921,1.532833,145.316
922,1.5345,145.219
923,1.536167,144.839
924,1.537833,144.839
925,1.5395,144.929
926,1.541167,145.122
927,1.542833,145.42
928,1.5445,145.42
929,1.546167,146.024
930,1.547833,145.957
931,1.5495,146.016
932,1.551167,146.016
933,1.552817,145.935
934,1.554483,145.748
935,1.55615,145.964
936,1.5578,145.964
937,1.559467,145.718
938,1.561133,145.659
939,1.5628,145.659
940,1.564467,145.577
941,1.566133,145.659
942,1.5678,145.763
943,1.569467,145.763
944,1.571133,145.823
945,1.5728,145.905
946,1.574467,145.979
947,1.57615,145.979
948,1.5778,146.024
949,1.579467,145.838
950,1.581133,145.823
951,1.582867,145.823
952,1.584467,145.644
953,1.586133,145.778
954,1.5878,145.778
955,1.589467,146.031
956,1.591133,146.143
957,1.5928,146.046
