"ID","sea_time","fid_signal"
1,0,1170.263
2,0.00165,1167.58
3,0.003317,1164.675
4,0.004983,1164.675
5,0.006633,1166.91
6,0.0083,1167.432
7,0.009967,1168.922
8,0.011633,1168.922
9,0.0133,1170.337
10,0.014967,1167.208
11,0.01665,1165.42
12,0.0183,1165.42
13,0.019967,1166.612
14,0.021633,1166.537
15,0.0233,1166.537
16,0.024967,1167.357
17,0.026633,1168.996
18,0.028333,1167.432
19,0.029967,1167.432
20,0.031633,1168.251
21,0.0333,1167.506
22,0.034967,1169.071
23,0.036633,1169.071
24,0.0383,1170.486
25,0.039967,1170.263
26,0.041633,1169.294
27,0.0433,1169.294
28,0.044967,1167.133
29,0.046633,1164.228
30,0.0483,1164.228
31,0.049967,1162.961
32,0.051633,1167.133
33,0.0533,1169.443
34,0.054967,1169.443
35,0.056633,1169.965
36,0.0583,1170.784
37,0.060033,1169.89
38,0.061633,1169.89
39,0.0633,1166.984
40,0.064967,1166.984
41,0.066617,1165.047
42,0.068283,1165.047
43,0.06995,1165.569
44,0.071617,1166.984
45,0.073283,1166.984
46,0.07495,1167.506
47,0.076617,1168.996
48,0.07828300000000001,1168.698
49,0.07994999999999999,1168.698
50,0.081633,1169.294
51,0.083283,1169.369
52,0.08495,1170.114
53,0.086617,1170.114
54,0.088283,1167.432
55,0.08995,1165.941
56,0.091617,1164.973
57,0.09335,1164.973
58,0.09495000000000001,1163.185
59,0.09661699999999999,1162.663
60,0.098283,1162.067
61,0.09995,1162.067
62,0.101617,1161.546
63,0.103283,1160.353
64,0.10495,1160.353
65,0.106667,1162.514
66,0.108283,1164.228
67,0.109933,1165.867
68,0.1116,1165.867
69,0.113267,1169.145
70,0.114933,1166.612
71,0.1166,1165.569
72,0.118267,1165.569
73,0.119933,1168.773
74,0.1216,1167.357
75,0.123267,1168.624
76,0.124933,1168.624
77,0.126583,1168.251
78,0.12825,1165.271
79,0.129917,1165.271
80,0.131583,1167.208
81,0.13325,1169.592
82,0.134917,1171.753
83,0.136583,1171.753
84,0.13825,1169.816
85,0.139917,1168.027
86,0.141583,1166.239
87,0.14325,1166.239
88,0.144917,1163.781
89,0.146583,1165.345
90,0.14825,1163.557
91,0.149917,1163.557
92,0.151583,1164.228
93,0.15325,1164.898
94,0.154917,1166.239
95,0.156583,1166.239
96,0.15825,1167.58
97,0.159917,1169.22
98,0.161583,1169.22
99,0.163283,1169.965
100,0.164917,1169.294
101,0.166583,1169.592
102,0.168267,1169.592
103,0.169917,1168.847
104,0.171583,1172.423
105,0.17325,1174.807
106,0.174917,1174.807
107,0.176583,1177.415
108,0.178317,1176.447
109,0.179917,1173.019
110,0.181583,1173.019
111,0.18325,1169.741
112,0.184917,1169.443
113,0.186567,1169.443
114,0.188233,1169.443
115,0.1899,1169.741
116,0.191583,1169.965
117,0.193233,1169.965
118,0.1949,1167.953
119,0.196567,1167.953
120,0.198233,1168.475
121,0.1999,1168.475
122,0.201567,1170.635
123,0.203233,1171.902
124,0.2049,1173.019
125,0.206567,1173.019
126,0.208233,1171.455
127,0.2099,1168.102
128,0.211683,1166.09
129,0.213233,1166.09
130,0.2149,1162.067
131,0.216567,1161.695
132,0.218233,1161.695
133,0.2199,1162.589
134,0.221567,1161.993
135,0.223233,1163.557
136,0.2249,1163.557
137,0.226567,1166.91
138,0.228233,1169.071
139,0.2299,1171.082
140,0.231567,1171.082
141,0.233233,1172.125
142,0.2349,1168.847
143,0.236567,1168.549
144,0.238233,1168.549
145,0.2399,1167.729
146,0.241567,1168.773
147,0.243233,1168.773
148,0.244917,1169.294
149,0.246583,1167.357
150,0.248217,1166.761
151,0.249883,1166.761
152,0.25155,1165.047
153,0.253217,1166.91
154,0.254883,1167.506
155,0.25655,1167.506
156,0.258217,1169.369
157,0.259883,1171.455
158,0.26155,1173.392
159,0.263217,1173.392
160,0.264883,1175.627
161,0.26655,1177.043
162,0.268217,1177.043
163,0.269883,1175.031
164,0.27155,1172.721
165,0.273217,1172.796
166,0.274883,1172.796
167,0.27655,1169.294
168,0.278217,1168.922
169,0.279883,1170.337
170,0.28155,1170.337
171,0.283217,1170.71
172,0.284883,1173.392
173,0.28655,1173.615
174,0.288217,1173.615
175,0.289883,1170.784
176,0.29155,1167.655
177,0.293217,1167.953
178,0.294883,1167.953
179,0.296617,1168.326
180,0.298217,1170.039
181,0.299883,1170.039
182,0.30155,1170.114
183,0.303217,1168.326
184,0.304883,1167.506
185,0.306533,1167.506
186,0.3082,1166.239
187,0.309867,1166.314
188,0.311533,1164.824
189,0.313317,1164.824
190,0.314867,1163.855
191,0.31655,1166.239
192,0.31825,1168.326
193,0.3199,1168.326
194,0.321533,1169.518
195,0.3232,1169.592
196,0.324867,1169.592
197,0.326533,1167.879
198,0.3282,1168.027
199,0.329967,1170.263
200,0.331533,1170.263
201,0.3332,1174.063
202,0.334867,1176.67
203,0.336533,1178.905
204,0.3382,1178.905
205,0.339867,1181.886
206,0.341533,1186.952
207,0.3432,1192.838
208,0.344867,1192.838
209,0.346633,1198.947
210,0.3482,1208.633
211,0.349867,1219.287
212,0.351533,1219.287
213,0.3532,1232.401
214,0.354867,1248.643
215,0.356533,1248.643
216,0.3582,1264.885
217,0.359867,1286.566
218,0.361533,1313.388
219,0.3632,1313.388
220,0.364867,1344.383
221,0.366533,1382.977
222,0.368183,1426.563
223,0.36985,1426.563
224,0.371517,1475.141
225,0.373183,1528.934
226,0.37485,1586.825
227,0.376517,1586.825
228,0.378183,1650.155
229,0.37985,1718.178
230,0.381517,1718.178
231,0.383183,1794.919
232,0.38485,1878.962
233,0.386517,1970.604
234,0.388183,1970.604
235,0.389917,2070.665
236,0.39155,2179.071
237,0.393183,2295.151
238,0.39485,2295.151
239,0.396517,2420.247
240,0.398183,2557.486
241,0.39985,2703.592
242,0.4015,2703.592
243,0.403167,2857.223
244,0.404833,3018.677
245,0.4065,3189.146
246,0.408167,3189.146
247,0.409833,3370.27
248,0.4115,3565.401
249,0.413167,3565.401
250,0.41485,3771.708
251,0.4165,3990.382
252,0.418167,4228.205
253,0.419833,4228.205
254,0.4215,4486.814
255,0.423167,4769.936
256,0.424833,5082.637
257,0.426483,5082.637
258,0.42815,5426.034
259,0.429817,5808.324
260,0.431567,6238.147
261,0.43315,6238.147
262,0.434817,6723.702
263,0.436483,7274.3
264,0.43815,7274.3
265,0.439817,7901.266
266,0.441483,8614.138000000001
267,0.44315,9425.953
268,0.444817,9425.953
269,0.446483,10347.962
270,0.448233,11383.444
271,0.449817,12545.81
272,0.451483,12545.81
273,0.45315,13838.262
274,0.454817,15264.898
275,0.456483,16831.457
276,0.45815,16831.457
277,0.459817,18531.531
278,0.461483,20358.189
279,0.46315,20358.189
280,0.464817,22293.18
281,0.466483,24322.645
282,0.46815,26423.111
283,0.469867,26423.111
284,0.471483,28562.174
285,0.47315,30708.908
286,0.474817,32823.012
287,0.476483,32823.012
288,0.47815,34863.5
289,0.479817,36789.402
290,0.481483,38561.82
291,0.48315,38561.82
292,0.484817,40144.102
293,0.486483,41504.203
294,0.488133,42620.152
295,0.4898,42620.152
296,0.491467,43471.68
297,0.493133,44050.441
298,0.4948,44050.441
299,0.496467,44349.656
300,0.498133,44373.125
301,0.4998,44134.184
302,0.501467,44134.184
303,0.5031330000000001,43640.66
304,0.5048,42917.652
305,0.506467,41989.684
306,0.5081329999999999,41989.684
307,0.5098,40881.039
308,0.511467,39623.527
309,0.513133,38247.555
310,0.5148,38247.555
311,0.516467,36769.582
312,0.518133,35220.383
313,0.5198,35220.383
314,0.521467,33624.395
315,0.523133,32002.479
316,0.5248,30377.434
317,0.526467,30377.434
318,0.528133,28767.66
319,0.5298,27185.828
320,0.531467,25641.844
321,0.5332,25641.844
322,0.5348000000000001,24149.865
323,0.536467,22711.232
324,0.538133,21333.918
325,0.5397999999999999,21333.918
326,0.5415,20022.689
327,0.543133,18774.867
328,0.5448,17594.396
329,0.54645,17594.396
330,0.548117,16475.617
331,0.549833,15419.796
332,0.55145,15419.796
333,0.553117,14427.229
334,0.554783,13491.139
335,0.55645,12613.982
336,0.558117,12613.982
337,0.559783,11790.246
338,0.56145,11022.612
339,0.563117,10306.463
340,0.564783,10306.463
341,0.566517,9638.965
342,0.568117,9012.370999999999
343,0.569783,8424.521000000001
344,0.57145,8424.521000000001
345,0.573117,7878.095
346,0.574783,7372.201
347,0.57645,7372.201
348,0.578117,6902.814
349,0.579783,6466.284
350,0.58145,6063.208
351,0.583233,6063.208
352,0.5847830000000001,5684.42
353,0.58645,5334.914
354,0.588117,5010.59
355,0.5897829999999999,5010.59
356,0.59145,4709.661
357,0.593117,4434.437
358,0.594783,4178.435
359,0.59645,4178.435
360,0.598117,3941.208
361,0.599783,3721.639
362,0.60145,3518.313
363,0.603117,3518.313
364,0.604783,3335.998
365,0.606433,3168.732
366,0.6081,3168.732
367,0.609783,3016.219
368,0.611483,2876.073
369,0.6131,2743.229
370,0.614767,2743.229
371,0.616433,2622.008
372,0.6181,2507.195
373,0.619767,2402.44
374,0.621433,2402.44
375,0.6231,2308.264
376,0.624767,2223.7
377,0.626433,2146.214
378,0.6281,2146.214
379,0.629783,2073.124
380,0.631433,2004.951
381,0.6331,2004.951
382,0.634767,1943.856
383,0.636433,1886.785
384,0.6381,1835.972
385,0.639767,1835.972
386,0.641433,1789.033
387,0.6431,1744.106
388,0.644767,1705.885
389,0.646433,1705.885
390,0.6481170000000001,1669.824
391,0.649767,1636.371
392,0.651433,1606.792
393,0.6531,1606.792
394,0.654767,1579.151
395,0.656433,1553.893
396,0.6581,1532.957
397,0.659767,1532.957
398,0.661433,1508.668
399,0.6631,1485.944
400,0.664767,1485.944
401,0.6664330000000001,1466.796
402,0.668117,1447.871
403,0.66975,1433.641
404,0.671417,1433.641
405,0.673083,1419.038
406,0.67475,1403.391
407,0.676417,1392.812
408,0.678083,1392.812
409,0.67975,1384.169
410,0.6814170000000001,1377.612
411,0.683133,1369.938
412,0.68475,1369.938
413,0.6864170000000001,1358.315
414,0.688083,1346.022
415,0.68975,1346.022
416,0.6914169999999999,1333.877
417,0.693067,1325.905
418,0.694733,1319.423
419,0.6964,1319.423
420,0.698067,1313.09
421,0.699733,1307.055
422,0.70145,1303.181
423,0.703067,1303.181
424,0.7047330000000001,1299.828
425,0.7064,1297.146
426,0.708067,1293.495
427,0.7097329999999999,1293.495
428,0.7114,1288.727
429,0.713067,1281.649
430,0.714733,1281.649
431,0.7164,1274.273
432,0.718083,1271.889
433,0.719733,1266.375
434,0.7214,1266.375
435,0.723067,1262.948
436,0.724733,1259.372
437,0.726383,1254.976
438,0.72805,1254.976
439,0.7297169999999999,1253.486
440,0.731383,1252.145
441,0.73305,1249.835
442,0.734717,1249.835
443,0.736383,1247.749
444,0.73805,1244.545
445,0.739717,1242.31
446,0.741383,1242.31
447,0.74305,1243.502
448,0.744717,1241.788
449,0.746383,1241.788
450,0.74805,1241.937
451,0.749717,1242.012
452,0.751417,1239.553
453,0.75305,1239.553
454,0.754717,1237.243
455,0.756383,1235.753
456,0.75805,1233.295
457,0.759717,1233.295
458,0.761383,1230.24
459,0.76305,1228.079
460,0.764717,1225.099
461,0.766383,1225.099
462,0.76805,1222.119
463,0.769717,1221.299
464,0.771383,1221.299
465,0.77305,1220.927
466,0.774717,1219.958
467,0.776383,1219.884
468,0.77805,1219.884
469,0.779717,1219.437
470,0.781383,1219.437
471,0.78305,1218.692
472,0.784717,1218.692
473,0.786367,1217.276
474,0.788033,1219.958
475,0.7897,1220.033
476,0.791367,1220.033
477,0.793033,1219.809
478,0.7947,1219.287
479,0.796367,1216.382
480,0.798033,1216.382
481,0.7997,1213.849
482,0.8013670000000001,1213.327
483,0.803067,1213.327
484,0.8047,1215.711
485,0.8063669999999999,1213.7
486,0.808033,1213.253
487,0.8097,1213.253
488,0.8113669999999999,1212.433
489,0.813033,1209.006
490,0.8147,1207.292
491,0.816367,1207.292
492,0.818033,1207.888
493,0.8198,1205.802
494,0.821367,1205.429
495,0.8230499999999999,1205.429
496,0.8247,1206.845
497,0.826367,1207.069
498,0.828033,1207.069
499,0.829717,1207.814
500,0.831367,1208.037
501,0.833033,1206.473
502,0.8347,1206.473
503,0.836367,1204.61
504,0.838033,1203.12
505,0.8397,1203.492
506,0.841367,1203.492
507,0.843033,1206.323
508,0.8447,1203.939
509,0.84635,1202.002
510,0.848017,1202.002
511,0.849683,1200.065
512,0.8513500000000001,1198.798
513,0.853017,1198.798
514,0.854683,1200.14
515,0.8563499999999999,1202.3
516,0.858017,1201.555
517,0.859683,1201.555
518,0.8613499999999999,1198.426
519,0.863017,1198.128
520,0.864683,1199.171
521,0.86635,1199.171
522,0.868017,1199.618
523,0.869683,1201.928
524,0.87135,1201.704
525,0.873017,1201.704
526,0.874683,1199.32
527,0.87635,1199.022
528,0.878017,1196.861
529,0.879683,1196.861
530,0.88135,1197.606
531,0.8830170000000001,1199.394
532,0.8847,1199.394
533,0.88635,1197.83
534,0.8880169999999999,1198.947
535,0.889683,1198.724
536,0.89135,1198.724
537,0.8930169999999999,1193.359
538,0.8947000000000001,1194.552
539,0.89635,1192.242
540,0.898017,1192.242
541,0.899683,1189.187
542,0.90135,1190.305
543,0.903017,1190.081
544,0.904733,1190.081
545,0.9063330000000001,1191.646
546,0.908,1191.795
547,0.909667,1191.795
548,0.9113329999999999,1194.85
549,0.913,1194.328
550,0.914667,1195.744
551,0.916333,1195.744
552,0.918,1197.234
553,0.919667,1194.999
554,0.921333,1195.744
555,0.923,1195.744
556,0.924667,1195.669
557,0.926333,1194.626
558,0.928,1194.775
559,0.929667,1194.775
560,0.931333,1193.657
561,0.9330000000000001,1191.348
562,0.934667,1193.21
563,0.936333,1193.21
564,0.938117,1193.509
565,0.939667,1193.956
566,0.941333,1193.956
567,0.9429999999999999,1195.893
568,0.944667,1192.987
569,0.946333,1191.646
570,0.948,1191.646
571,0.949667,1188.666
572,0.951333,1184.344
573,0.953,1182.109
574,0.954667,1182.109
575,0.956333,1184.27
576,0.958,1187.623
577,0.959667,1190.23
578,0.961333,1190.23
579,0.963,1192.465
580,0.96465,1189.783
581,0.966317,1189.783
582,0.967983,1189.262
583,0.96965,1187.101
584,0.971317,1187.474
585,0.973017,1187.474
586,0.974683,1186.132
587,0.976317,1182.556
588,0.977983,1182.109
589,0.97965,1182.109
590,0.981317,1184.717
591,0.9829830000000001,1187.846
592,0.984633,1190.975
593,0.9863,1190.975
594,0.987967,1191.124
595,0.989633,1190.23
596,0.9913,1189.485
597,0.992967,1189.485
598,0.994633,1187.697
599,0.9963,1186.803
600,0.997983,1186.803
601,0.999633,1181.96
602,1.0013,1182.109
603,1.002967,1180.619
604,1.004633,1180.619
605,1.0063,1180.545
606,1.007967,1184.195
607,1.009633,1183.45
608,1.0113,1183.45
609,1.012967,1184.419
610,1.014633,1185.238
611,1.0163,1183.972
612,1.017967,1183.972
613,1.019633,1184.791
614,1.0213,1183.823
615,1.023017,1183.823
616,1.024633,1181.811
617,1.0263,1183.823
618,1.02795,1182.035
619,1.029617,1182.035
620,1.031283,1183.152
621,1.03295,1183.823
622,1.034617,1181.141
623,1.036283,1181.141
624,1.03795,1180.396
625,1.039633,1180.246
626,1.041283,1183.972
627,1.042983,1183.972
628,1.044633,1187.026
629,1.046283,1187.697
630,1.04795,1187.697
631,1.049617,1188.591
632,1.051283,1187.921
633,1.05295,1185.238
634,1.054617,1185.238
635,1.056383,1186.952
636,1.05795,1187.474
637,1.059617,1182.482
638,1.061283,1182.482
639,1.06295,1180.992
640,1.064617,1179.874
641,1.066283,1177.192
642,1.06795,1177.192
643,1.069617,1180.917
644,1.071283,1183.227
645,1.07295,1183.376
646,1.074617,1183.376
647,1.076283,1184.419
648,1.07795,1183.674
649,1.079617,1183.674
650,1.081283,1184.121
651,1.08295,1183.301
652,1.084617,1181.588
653,1.086267,1181.588
654,1.087933,1183.003
655,1.0896,1184.419
656,1.091267,1183.525
657,1.092933,1183.525
658,1.0946,1184.27
659,1.096267,1179.874
660,1.097933,1175.851
661,1.0996,1175.851
662,1.101267,1176.447
663,1.102933,1179.501
664,1.1046,1179.501
665,1.106267,1183.45
666,1.107933,1185.685
667,1.1096,1185.089
668,1.111267,1185.089
669,1.112933,1183.078
670,1.1146,1180.917
671,1.116267,1180.023
672,1.117967,1180.023
673,1.119633,1181.29
674,1.121267,1181.066
675,1.122933,1182.258
676,1.1246,1182.258
677,1.126267,1184.419
678,1.127933,1182.854
679,1.1296,1181.29
680,1.131267,1181.29
681,1.132933,1179.203
682,1.1346,1175.478
683,1.136267,1175.478
684,1.137933,1176.372
685,1.1396,1177.192
686,1.141333,1178.831
687,1.142933,1178.831
688,1.1446,1182.184
689,1.14625,1181.364
690,1.147917,1182.929
691,1.149583,1182.929
692,1.15125,1182.78
693,1.152917,1181.886
694,1.154583,1183.972
695,1.15625,1183.972
696,1.158017,1183.227
697,1.159583,1183.227
698,1.16125,1183.227
699,1.162917,1179.278
700,1.164583,1174.733
701,1.16625,1174.435
702,1.167917,1174.435
703,1.169583,1174.36
704,1.17125,1177.639
705,1.172917,1180.843
706,1.174683,1180.843
707,1.17625,1181.737
708,1.177917,1178.16
709,1.179583,1177.713
710,1.18125,1177.713
711,1.182917,1174.882
712,1.184583,1173.019
713,1.18625,1175.925
714,1.187917,1175.925
715,1.189583,1173.168
716,1.19125,1176
717,1.192917,1176
718,1.194583,1176.223
719,1.19625,1176.968
720,1.197917,1177.266
721,1.199617,1177.266
722,1.201317,1178.011
723,1.202917,1178.533
724,1.204583,1178.905
725,1.206233,1178.905
726,1.2079,1178.086
727,1.209567,1176.521
728,1.211233,1175.553
729,1.2129,1175.553
730,1.214567,1174.733
731,1.216233,1178.235
732,1.2179,1178.235
733,1.219567,1178.682
734,1.221233,1177.564
735,1.2229,1174.36
736,1.224567,1174.36
737,1.22625,1173.243
738,1.2279,1173.094
739,1.229567,1174.435
740,1.231233,1174.435
741,1.2329,1177.564
742,1.234567,1180.843
743,1.236233,1179.427
744,1.2379,1179.427
745,1.239567,1181.364
746,1.241233,1178.682
747,1.2429,1173.839
748,1.244567,1173.839
749,1.246233,1173.839
750,1.2479,1173.019
751,1.249567,1173.019
752,1.251233,1175.18
753,1.2529,1173.69
754,1.254567,1174.733
755,1.256233,1174.733
756,1.2579,1173.913
757,1.259617,1173.913
758,1.261233,1174.807
759,1.262917,1174.807
760,1.264567,1174.882
761,1.266233,1174.807
762,1.267883,1175.925
763,1.26955,1175.925
764,1.271217,1177.341
765,1.272883,1176.596
766,1.274533,1176.596
767,1.276283,1179.129
768,1.277867,1178.756
769,1.279533,1179.725
770,1.2812,1179.725
771,1.282867,1179.874
772,1.284533,1175.627
773,1.2862,1176.968
774,1.287867,1176.968
775,1.289533,1176.745
776,1.2912,1177.862
777,1.29295,1177.937
778,1.294533,1177.937
779,1.2962,1176
780,1.297867,1174.137
781,1.299533,1174.137
782,1.3012,1174.063
783,1.302867,1176.819
784,1.304533,1176.596
785,1.3062,1176.596
786,1.307867,1175.553
787,1.309633,1174.733
788,1.3112,1171.38
789,1.312867,1171.38
790,1.314533,1171.157
791,1.3162,1174.51
792,1.317867,1174.435
793,1.319533,1174.435
794,1.3212,1176.372
795,1.322867,1178.011
796,1.324533,1179.874
797,1.326183,1179.874
798,1.32785,1182.482
799,1.329517,1183.152
800,1.331183,1183.152
801,1.33285,1182.035
802,1.334517,1178.831
803,1.336183,1177.117
804,1.33785,1177.117
805,1.339517,1176.745
806,1.341217,1176.819
807,1.34285,1177.713
808,1.344517,1177.713
809,1.346183,1176.894
810,1.34785,1175.776
811,1.349517,1173.69
812,1.351183,1173.69
813,1.35285,1172.721
814,1.354517,1172.423
815,1.356183,1172.423
816,1.35785,1172.274
817,1.35955,1173.392
818,1.361183,1174.957
819,1.36285,1174.957
820,1.364517,1175.031
821,1.366183,1177.266
822,1.36785,1177.713
823,1.369517,1177.713
824,1.371183,1175.478
825,1.37285,1177.266
826,1.374517,1175.627
827,1.376183,1175.627
828,1.37785,1173.615
829,1.379517,1173.019
830,1.381183,1172.572
831,1.38285,1172.572
832,1.384517,1173.094
833,1.386183,1173.913
834,1.387833,1173.913
835,1.3895,1176.968
836,1.391167,1175.478
837,1.392833,1173.168
838,1.394567,1173.168
839,1.396167,1172.796
840,1.397833,1171.157
841,1.3995,1171.455
842,1.401183,1171.455
843,1.402833,1172.945
844,1.4045,1173.019
845,1.406167,1170.188
846,1.407833,1170.188
847,1.4095,1169.294
848,1.411217,1170.561
849,1.41285,1170.561
850,1.4145,1171.604
851,1.416167,1174.733
852,1.417833,1175.851
853,1.4195,1175.851
854,1.421167,1176
855,1.422833,1175.925
856,1.4245,1175.553
857,1.426167,1175.553
858,1.427933,1174.063
859,1.4295,1170.486
860,1.431167,1170.635
861,1.432833,1170.635
862,1.4345,1168.326
863,1.436167,1171.082
864,1.437833,1174.584
865,1.4395,1174.584
866,1.441167,1175.702
867,1.442833,1178.384
868,1.4445,1178.384
869,1.44615,1176.223
870,1.447833,1172.796
871,1.449517,1170.635
872,1.45115,1170.635
873,1.452817,1169.369
874,1.454483,1168.102
875,1.45615,1172.498
876,1.457817,1172.498
877,1.459483,1177.192
878,1.46115,1178.458
879,1.462817,1178.384
880,1.464483,1178.384
881,1.46615,1174.212
882,1.467817,1171.604
883,1.469483,1171.604
884,1.47115,1172.2
885,1.472817,1173.019
886,1.474483,1175.553
887,1.47615,1175.553
888,1.477817,1174.51
889,1.479483,1172.945
890,1.48115,1175.553
891,1.482817,1175.553
892,1.484483,1173.392
893,1.4862,1173.466
894,1.487817,1175.553
895,1.489483,1175.553
896,1.49115,1172.2
897,1.492817,1171.38
898,1.494483,1171.38
899,1.49615,1170.933
900,1.497817,1168.027
901,1.499483,1168.922
902,1.50115,1168.922
903,1.502817,1170.933
904,1.504483,1172.349
905,1.506133,1174.36
906,1.5078,1174.36
907,1.509467,1172.647
908,1.511133,1171.082
909,1.512817,1170.263
910,1.514467,1170.263
911,1.516133,1170.263
912,1.5178,1171.008
913,1.519467,1169.592
914,1.521133,1169.592
915,1.5228,1166.761
916,1.524467,1164.973
917,1.526133,1164.973
