"ID","sea_time","fid_signal"
1,0,1167.58
2,0.001667,1167.282
3,0.003433,1167.282
4,0.005,1167.282
5,0.006667,1165.196
6,0.008333,1166.835
7,0.01,1166.165
8,0.011667,1166.165
9,0.013333,1166.761
10,0.015,1166.91
11,0.01665,1166.761
12,0.018317,1166.761
13,0.0201,1168.251
14,0.02165,1169.89
15,0.023317,1169.89
16,0.024983,1168.251
17,0.02665,1168.922
18,0.028317,1169.369
19,0.029983,1169.369
20,0.03165,1169.965
21,0.033317,1173.988
22,0.034983,1171.529
23,0.03665,1171.529
24,0.03835,1171.157
25,0.039983,1170.263
26,0.04165,1168.027
27,0.043317,1168.027
28,0.044983,1171.38
29,0.04665,1172.051
30,0.048317,1172.051
31,0.049983,1170.337
32,0.05165,1170.263
33,0.053317,1170.561
34,0.054983,1170.561
35,0.05665,1172.572
36,0.058317,1176.521
37,0.060017,1177.043
38,0.06165,1177.043
39,0.063317,1174.882
40,0.064983,1171.306
41,0.06665,1168.847
42,0.068317,1168.847
43,0.069983,1169.22
44,0.07165000000000001,1167.729
45,0.07331699999999999,1168.251
46,0.07496700000000001,1168.251
47,0.07663300000000001,1168.847
48,0.07829999999999999,1169.592
49,0.079967,1169.592
50,0.081633,1172.572
51,0.0833,1172.498
52,0.084967,1170.337
53,0.086633,1170.337
54,0.0883,1168.177
55,0.08996700000000001,1166.686
56,0.09163300000000001,1166.09
57,0.093317,1166.09
58,0.094967,1166.165
59,0.096633,1168.624
60,0.0983,1167.357
61,0.099967,1167.357
62,0.101633,1171.231
63,0.1033,1174.584
64,0.105017,1174.584
65,0.106633,1172.721
66,0.1083,1173.913
67,0.109967,1172.721
68,0.111633,1172.721
69,0.11335,1171.38
70,0.114967,1173.69
71,0.116633,1174.063
72,0.1183,1174.063
73,0.119967,1171.231
74,0.1217,1170.412
75,0.1233,1170.188
76,0.124967,1170.188
77,0.126633,1169.89
78,0.128317,1171.678
79,0.129967,1171.678
80,0.131633,1172.2
81,0.1333,1169.741
82,0.13495,1170.561
83,0.136617,1170.561
84,0.138383,1171.008
85,0.13995,1169.518
86,0.141617,1168.996
87,0.143283,1168.996
88,0.14495,1167.282
89,0.146617,1164.302
90,0.148283,1166.314
91,0.14995,1166.314
92,0.151617,1167.357
93,0.153283,1170.412
94,0.155067,1171.976
95,0.156617,1171.976
96,0.158283,1172.125
97,0.15995,1172.423
98,0.161617,1172.423
99,0.163283,1168.847
100,0.16495,1168.847
101,0.166617,1167.357
102,0.168283,1167.357
103,0.16995,1169.518
104,0.171617,1173.466
105,0.173283,1174.882
106,0.17495,1174.882
107,0.176617,1176.149
108,0.178283,1176.894
109,0.17995,1176.074
110,0.181617,1176.074
111,0.183283,1175.18
112,0.18495,1173.094
113,0.186617,1173.094
114,0.188283,1169.518
115,0.18995,1166.761
116,0.191617,1165.42
117,0.193283,1165.42
118,0.194917,1167.506
119,0.196583,1169.741
120,0.19825,1172.2
121,0.199933,1172.2
122,0.201633,1173.317
123,0.203333,1169.89
124,0.204917,1168.475
125,0.206583,1168.475
126,0.20825,1164.973
127,0.209917,1164.079
128,0.211583,1164.153
129,0.21325,1164.153
130,0.214917,1163.408
131,0.216583,1166.761
132,0.21825,1166.761
133,0.219917,1170.486
134,0.221583,1171.157
135,0.22325,1170.114
136,0.224917,1170.114
137,0.226583,1170.263
138,0.22825,1168.773
139,0.229917,1171.082
140,0.231583,1171.082
141,0.23325,1172.423
142,0.234917,1169.965
143,0.236583,1168.326
144,0.23825,1168.326
145,0.239967,1167.953
146,0.241583,1166.09
147,0.24325,1166.09
148,0.244917,1168.326
149,0.246583,1168.027
150,0.24825,1164.824
151,0.249917,1164.824
152,0.251583,1168.698
153,0.25325,1168.773
154,0.2549,1168.847
155,0.256633,1168.847
156,0.258233,1171.008
157,0.2599,1166.91
158,0.261567,1160.8
159,0.263233,1160.8
160,0.2649,1163.408
161,0.266567,1164.973
162,0.26825,1166.388
163,0.2699,1166.388
164,0.271567,1171.38
165,0.273333,1168.475
166,0.2749,1168.475
167,0.276617,1169.294
168,0.278267,1171.231
169,0.2799,1170.859
170,0.281567,1170.859
171,0.283233,1171.678
172,0.2849,1167.208
173,0.286567,1167.655
174,0.288233,1167.655
175,0.2899,1169.741
176,0.291567,1171.008
177,0.293233,1172.721
178,0.2949,1172.721
179,0.296567,1172.2
180,0.298233,1169.816
181,0.2999,1169.816
182,0.301567,1169.443
183,0.303233,1172.125
184,0.3049,1170.412
185,0.306567,1170.412
186,0.308233,1171.753
187,0.3099,1171.231
188,0.311567,1169.071
189,0.313233,1169.071
190,0.314883,1168.549
191,0.31655,1166.165
192,0.318217,1165.643
193,0.319883,1165.643
194,0.32155,1165.122
195,0.323217,1165.42
196,0.324883,1165.42
197,0.32655,1165.047
198,0.328217,1169.071
199,0.329883,1172.051
200,0.33155,1172.051
201,0.333217,1173.69
202,0.334883,1177.937
203,0.33655,1176
204,0.338217,1176
205,0.339883,1176.968
206,0.341583,1180.172
207,0.343217,1185.387
208,0.344917,1185.387
209,0.3466,1193.285
210,0.348217,1198.575
211,0.349883,1205.876
212,0.35155,1205.876
213,0.353217,1214.892
214,0.354883,1223.013
215,0.35655,1223.013
216,0.35825,1236.2
217,0.359883,1249.835
218,0.36155,1263.246
219,0.363217,1263.246
220,0.364883,1283.511
221,0.36655,1304.969
222,0.368217,1330.823
223,0.369883,1330.823
224,0.37155,1359.358
225,0.3732,1389.906
226,0.374917,1427.978
227,0.376533,1427.978
228,0.3782,1472.533
229,0.379867,1523.867
230,0.381533,1523.867
231,0.3832,1579.672
232,0.384867,1638.01
233,0.386533,1705.214
234,0.3882,1705.214
235,0.389867,1779.497
236,0.391633,1865.104
237,0.3932,1966.506
238,0.394867,1966.506
239,0.396533,2081.692
240,0.3982,2216.697
241,0.399867,2376.586
242,0.401533,2376.586
243,0.4032,2565.309
244,0.404867,2788.082
245,0.406533,3050.193
246,0.4082,3050.193
247,0.409867,3358.796
248,0.411533,3726.11
249,0.4132,3726.11
250,0.414867,4154.369
251,0.416533,4655.57
252,0.4182,5237.981
253,0.419867,5237.981
254,0.421533,5898.029
255,0.4232,6645.024
256,0.424867,7479.191
257,0.42655,7479.191
258,0.4282,8398.666999999999
259,0.429867,9403.304
260,0.431533,10496.825
261,0.4332,10496.825
262,0.43485,11671.483
263,0.436517,12924.225
264,0.438183,12924.225
265,0.43985,14248.267
266,0.441517,15625.805
267,0.443183,17048.568
268,0.44485,17048.568
269,0.446517,18494.875
270,0.448183,19946.023
271,0.44985,21373.779
272,0.451517,21373.779
273,0.453183,22750.496
274,0.45485,24050.922
275,0.456517,25242.566
276,0.458183,25242.566
277,0.45985,26303.902
278,0.461517,27205.273
279,0.463183,27928.428
280,0.46485,27928.428
281,0.466517,28462.932
282,0.468183,28796.867
283,0.46985,28796.867
284,0.471517,28930.381
285,0.473183,28872.49
286,0.47485,28621.256
287,0.476583,28621.256
288,0.478183,28193.221
289,0.47985,27607.084
290,0.481517,26874.543
291,0.483183,26874.543
292,0.48485,26022.941
293,0.4865,25077.834
294,0.488167,24058.371
295,0.489833,24058.371
296,0.4915,22979.975
297,0.493217,21864.771
298,0.494817,21864.771
299,0.496517,20731.389
300,0.49815,19594.506
301,0.499817,18474.758
302,0.501517,18474.758
303,0.50315,17381.236
304,0.504817,16316.771
305,0.506483,15292.913
306,0.50815,15292.913
307,0.509933,14308.84
308,0.511483,13371.632
309,0.51315,12483.97
310,0.514817,12483.97
311,0.516483,11642.277
312,0.51815,10850.877
313,0.519817,10850.877
314,0.521483,10105.073
315,0.52315,9402.037
316,0.524817,8744.374
317,0.526483,8744.374
318,0.52815,8128.435
319,0.529817,7554.591
320,0.531483,7022.023
321,0.53315,7022.023
322,0.534817,6530.807
323,0.536483,6073.117
324,0.53815,5652.16
325,0.539817,5652.16
326,0.541483,5263.016
327,0.54315,4904.27
328,0.544817,4580.319
329,0.5464830000000001,4580.319
330,0.54815,4281.551
331,0.549817,4011.765
332,0.5514829999999999,4011.765
333,0.55315,3763.139
334,0.5548,3537.089
335,0.556467,3332.868
336,0.558133,3332.868
337,0.5598,3146.753
338,0.561467,2978.519
339,0.563133,2822.95
340,0.5648,2822.95
341,0.5664670000000001,2684.891
342,0.568133,2561.882
343,0.56985,2453.998
344,0.5714669999999999,2453.998
345,0.573133,2355.65
346,0.5748,2264.977
347,0.576467,2264.977
348,0.5781500000000001,2182.2
349,0.579833,2103.448
350,0.581467,2034.456
351,0.583133,2034.456
352,0.5848,1970.455
353,0.586467,1912.937
354,0.588133,1860.708
355,0.5898,1860.708
356,0.591467,1816.377
357,0.593133,1775.175
358,0.59485,1737.997
359,0.596467,1737.997
360,0.598133,1706.332
361,0.5998,1673.996
362,0.601467,1646.429
363,0.603133,1646.429
364,0.6048,1620.203
365,0.606467,1594.052
366,0.608133,1594.052
367,0.6098,1571.104
368,0.61145,1549.497
369,0.613133,1529.083
370,0.6148,1529.083
371,0.6164500000000001,1514.405
372,0.618117,1498.982
373,0.619783,1485.05
374,0.6214499999999999,1485.05
375,0.623117,1471.862
376,0.624783,1460.537
377,0.62645,1451.15
378,0.628183,1451.15
379,0.629783,1443.55
380,0.63145,1436.77
381,0.633117,1436.77
382,0.634783,1425.445
383,0.63645,1415.759
384,0.638117,1404.509
385,0.639783,1404.509
386,0.64145,1395.121
387,0.643117,1388.043
388,0.644783,1379.326
389,0.646467,1379.326
390,0.6481170000000001,1373.664
391,0.649783,1365.095
392,0.65145,1359.731
393,0.6531169999999999,1359.731
394,0.654783,1358.092
395,0.65645,1353.696
396,0.658117,1350.79
397,0.659783,1350.79
398,0.66145,1344.606
399,0.663117,1340.285
400,0.664783,1340.285
401,0.666467,1337.156
402,0.668117,1335.07
403,0.669783,1331.121
404,0.67145,1331.121
405,0.673117,1324.192
406,0.674767,1316.816
407,0.676433,1311.153
408,0.6781,1311.153
409,0.679767,1306.31
410,0.681433,1301.765
411,0.6831,1299.158
412,0.684767,1299.158
413,0.686433,1296.401
414,0.6881,1296.028
415,0.689767,1296.028
416,0.691433,1293.048
417,0.6931,1292.899
418,0.694767,1290.515
419,0.696433,1290.515
420,0.6981000000000001,1289.696
421,0.699767,1291.633
422,0.701433,1289.547
423,0.7030999999999999,1289.547
424,0.704767,1289.323
425,0.706433,1287.982
426,0.7081,1287.237
427,0.709767,1287.237
428,0.711433,1286.79
429,0.71315,1285.374
430,0.714767,1282.916
431,0.716433,1282.916
432,0.7181,1277.924
433,0.719767,1274.124
434,0.721433,1274.124
435,0.7231,1269.206
436,0.724783,1265.258
437,0.726433,1263.246
438,0.7281,1263.246
439,0.7297670000000001,1260.713
440,0.731433,1260.489
441,0.7331,1259.893
442,0.73475,1259.893
443,0.736417,1258.478
444,0.738083,1259.744
445,0.73975,1259.372
446,0.741417,1259.372
447,0.743083,1257.733
448,0.74475,1255.795
449,0.746417,1255.795
450,0.7480830000000001,1251.623
451,0.74975,1249.835
452,0.751417,1247.6
453,0.7530829999999999,1247.6
454,0.75475,1250.207
455,0.756417,1250.505
456,0.7581,1251.847
457,0.75975,1251.847
458,0.761417,1251.325
459,0.763083,1249.388
460,0.76475,1249.686
461,0.766417,1249.686
462,0.768083,1246.333
463,0.76975,1247.004
464,0.771417,1247.004
465,0.773083,1245.663
466,0.77475,1242.161
467,0.776417,1243.427
468,0.778067,1243.427
469,0.779733,1245.141
470,0.7814,1239.777
471,0.783067,1239.181
472,0.784733,1239.181
473,0.7864,1234.785
474,0.788083,1231.283
475,0.789733,1233.146
476,0.7914,1233.146
477,0.793067,1232.848
478,0.794717,1233.742
479,0.796383,1232.103
480,0.79805,1232.103
481,0.799717,1230.985
482,0.801383,1229.197
483,0.80305,1229.197
484,0.804717,1231.208
485,0.806383,1235.157
486,0.80805,1238.957
487,0.809717,1238.957
488,0.811383,1242.235
489,0.8130500000000001,1238.957
490,0.814717,1235.157
491,0.816383,1235.157
492,0.8180500000000001,1232.848
493,0.819717,1228.526
494,0.821383,1226.068
495,0.8230499999999999,1226.068
496,0.824717,1224.801
497,0.826383,1222.64
498,0.82805,1222.64
499,0.829717,1221.821
500,0.83145,1225.173
501,0.83305,1223.832
502,0.834717,1223.832
503,0.836383,1222.566
504,0.83805,1225.173
505,0.839717,1222.491
506,0.841383,1222.491
507,0.84305,1222.417
508,0.8447170000000001,1220.033
509,0.846383,1216.978
510,0.84805,1216.978
511,0.8497169999999999,1215.637
512,0.851383,1214.147
513,0.853033,1215.339
514,0.8547,1215.339
515,0.856367,1215.562
516,0.858033,1213.029
517,0.859717,1213.029
518,0.861417,1214.147
519,0.8630330000000001,1216.531
520,0.8647,1215.786
521,0.866367,1215.786
522,0.8680330000000001,1218.393
523,0.8697,1218.319
524,0.871367,1216.903
525,0.8730329999999999,1216.903
526,0.8747,1215.19
527,0.876367,1214.147
528,0.878033,1212.88
529,0.8797,1212.88
530,0.881467,1212.656
531,0.883033,1214.892
532,0.8847,1214.892
533,0.886367,1215.562
534,0.888033,1219.213
535,0.8897,1220.182
536,0.891367,1220.182
537,0.893033,1219.734
538,0.8947000000000001,1217.723
539,0.896367,1214.296
540,0.898033,1214.296
541,0.899717,1210.272
542,0.901367,1210.347
543,0.903033,1212.284
544,0.9046999999999999,1212.284
545,0.906367,1210.123
546,0.908033,1211.911
547,0.9097,1211.911
548,0.911367,1209.378
549,0.913017,1208.335
550,0.914683,1210.868
551,0.91635,1210.868
552,0.918017,1207.143
553,0.919683,1205.653
554,0.921367,1203.045
555,0.92305,1203.045
556,0.924683,1201.257
557,0.92635,1203.79
558,0.928017,1205.131
559,0.929683,1205.131
560,0.9313669999999999,1205.504
561,0.933017,1205.578
562,0.934683,1202.3
563,0.93635,1202.3
564,0.938017,1204.163
565,0.939683,1204.386
566,0.94135,1204.386
567,0.943017,1205.504
568,0.9446830000000001,1208.335
569,0.94635,1210.123
570,0.948017,1210.123
571,0.9496830000000001,1212.656
572,0.95135,1209.9
573,0.953017,1208.708
574,0.9546829999999999,1208.708
575,0.95635,1207.143
576,0.958017,1206.1
577,0.959683,1206.026
578,0.96135,1206.026
579,0.963017,1205.876
580,0.964683,1203.12
581,0.966417,1200.438
582,0.968017,1200.438
583,0.969683,1200.587
584,0.97135,1200.289
585,0.973017,1200.289
586,0.974667,1199.99
587,0.976333,1201.108
588,0.978,1202.747
589,0.979667,1202.747
590,0.981333,1202.449
591,0.983083,1204.386
592,0.984667,1204.61
593,0.986333,1204.61
594,0.988,1203.045
595,0.989667,1202.822
596,0.991333,1202.673
597,0.993,1202.673
598,0.994667,1202.226
599,0.996333,1202.449
600,0.998,1202.449
601,0.999767,1203.343
602,1.001333,1204.461
603,1.003,1204.461
604,1.004667,1204.461
605,1.00635,1203.492
606,1.008,1205.206
607,1.009717,1202.747
608,1.011333,1202.747
609,1.013,1203.045
610,1.014667,1202.598
611,1.016333,1202.077
612,1.018,1202.077
613,1.019667,1200.438
614,1.021333,1198.575
615,1.023,1198.575
616,1.024667,1198.426
617,1.026333,1192.987
618,1.028,1190.826
619,1.029667,1190.826
620,1.031333,1191.869
621,1.032983,1189.485
622,1.03465,1192.987
623,1.036317,1192.987
624,1.037983,1193.583
625,1.03965,1190.156
626,1.041317,1191.646
627,1.042983,1191.646
628,1.04465,1190.826
629,1.046317,1192.912
630,1.047983,1196.787
631,1.04965,1196.787
632,1.051317,1195.148
633,1.052983,1197.755
634,1.05465,1197.755
635,1.056317,1197.457
636,1.057983,1194.701
637,1.05965,1196.712
638,1.061317,1196.712
639,1.062983,1192.242
640,1.06465,1189.262
641,1.066317,1189.113
642,1.067983,1189.113
643,1.069633,1190.901
644,1.0713,1194.328
645,1.072967,1196.787
646,1.07465,1196.787
647,1.0763,1197.979
648,1.077967,1197.085
649,1.079633,1197.085
650,1.0813,1195.222
651,1.082967,1192.093
652,1.084683,1190.826
653,1.0863,1190.826
654,1.087967,1186.877
655,1.089667,1187.697
656,1.0913,1190.603
657,1.09295,1190.603
658,1.094617,1192.242
659,1.096283,1193.136
660,1.09795,1193.732
661,1.099617,1193.732
662,1.101333,1193.21
663,1.10295,1194.254
664,1.104617,1194.254
665,1.106283,1194.701
666,1.10795,1194.924
667,1.109617,1194.85
668,1.111283,1194.85
669,1.11295,1193.509
670,1.114617,1195.52
671,1.116283,1194.775
672,1.118067,1194.775
673,1.119617,1193.807
674,1.121283,1191.795
675,1.12295,1189.56
676,1.124617,1189.56
677,1.126283,1189.858
678,1.12795,1192.316
679,1.129617,1194.328
680,1.131283,1194.328
681,1.13295,1193.807
682,1.134617,1190.379
683,1.136283,1190.379
684,1.13795,1189.336
685,1.139617,1188.07
686,1.141283,1188.889
687,1.14295,1188.889
688,1.144617,1189.113
689,1.146283,1189.262
690,1.14795,1190.677
691,1.14965,1190.677
692,1.151283,1192.465
693,1.15295,1195.744
694,1.1546,1195.148
695,1.156267,1195.148
696,1.157933,1192.018
697,1.1596,1192.54
698,1.161267,1192.54
699,1.162933,1192.391
700,1.1646,1190.528
701,1.166267,1191.348
702,1.167933,1191.348
703,1.1696,1188.591
704,1.171267,1188.591
705,1.172967,1188.889
706,1.1746,1188.889
707,1.176267,1190.23
708,1.177933,1191.869
709,1.1796,1190.528
710,1.181267,1190.528
711,1.182933,1193.434
712,1.1846,1193.657
713,1.186267,1195.818
714,1.187933,1195.818
715,1.1896,1194.924
716,1.191267,1193.434
717,1.192933,1193.434
718,1.1946,1189.932
719,1.196267,1188.219
720,1.197933,1187.548
721,1.1996,1187.548
722,1.201267,1188.442
723,1.202983,1189.187
724,1.2046,1189.113
725,1.206267,1189.113
726,1.207933,1188.144
727,1.2096,1185.462
728,1.211267,1188.964
729,1.212933,1188.964
730,1.214583,1187.623
731,1.21625,1190.677
732,1.217917,1190.677
733,1.2196,1191.571
734,1.22125,1188.144
735,1.222917,1189.485
736,1.224583,1189.485
737,1.22625,1187.176
738,1.227917,1188.889
739,1.229583,1189.634
740,1.23125,1189.634
741,1.232917,1187.846
742,1.234583,1187.101
743,1.23635,1186.058
744,1.237917,1186.058
745,1.239583,1186.207
746,1.24125,1187.324
747,1.242917,1187.623
748,1.244583,1187.623
749,1.24625,1185.909
750,1.247917,1185.685
751,1.249583,1185.685
752,1.25125,1186.803
753,1.252917,1190.454
754,1.254583,1189.411
755,1.25625,1189.411
756,1.257917,1190.23
757,1.2596,1189.709
758,1.26125,1188.666
759,1.262917,1188.666
760,1.264583,1193.509
761,1.26625,1194.03
762,1.267917,1192.54
763,1.269583,1192.54
764,1.27125,1192.763
765,1.272917,1189.56
766,1.274567,1189.56
767,1.276233,1188.293
768,1.2779,1189.411
769,1.279567,1185.536
770,1.281233,1185.536
771,1.2829,1184.419
772,1.284567,1185.909
773,1.286233,1183.301
774,1.2879,1183.301
775,1.2896,1183.301
776,1.291233,1183.003
777,1.2929,1180.693
778,1.294567,1180.693
779,1.296233,1180.097
780,1.2979,1179.948
781,1.299567,1182.184
782,1.301233,1182.184
783,1.302917,1183.078
784,1.304567,1183.599
785,1.306233,1183.599
786,1.3079,1181.662
787,1.309567,1180.097
788,1.311233,1179.278
789,1.3129,1179.278
790,1.314567,1181.737
791,1.316233,1186.058
792,1.3179,1186.505
793,1.319567,1186.505
794,1.3213,1186.207
795,1.3229,1186.132
796,1.324567,1185.238
797,1.326233,1185.238
798,1.3279,1187.772
799,1.329567,1188.815
800,1.331233,1188.815
801,1.3329,1185.909
802,1.33455,1185.387
803,1.336217,1180.992
804,1.3379,1180.992
805,1.339583,1181.513
806,1.341217,1185.164
807,1.342883,1188.144
808,1.34455,1188.144
809,1.346217,1187.995
810,1.347883,1189.038
811,1.34955,1188.144
812,1.351217,1188.144
813,1.352883,1187.548
814,1.35465,1188.293
815,1.356217,1188.293
816,1.357883,1182.482
817,1.35955,1179.799
818,1.3612,1176.745
819,1.362867,1176.745
820,1.364533,1177.713
821,1.366233,1181.29
822,1.367867,1183.748
823,1.369533,1183.748
824,1.3712,1187.101
825,1.372867,1188.442
826,1.374533,1185.313
827,1.3762,1185.313
828,1.377867,1183.45
829,1.379533,1180.023
830,1.3812,1180.768
831,1.382867,1180.768
832,1.384533,1184.568
833,1.3862,1182.854
834,1.387867,1182.854
835,1.389533,1186.132
836,1.3912,1184.419
837,1.392867,1186.654
838,1.394517,1186.654
839,1.396183,1188.666
840,1.39785,1186.43
841,1.399517,1185.387
842,1.401183,1185.387
843,1.40285,1181.439
844,1.404517,1183.078
845,1.406183,1183.972
846,1.40785,1183.972
847,1.409517,1183.972
848,1.411183,1183.823
849,1.41285,1183.823
850,1.414517,1181.141
851,1.416183,1181.737
852,1.41785,1181.811
853,1.419517,1181.811
854,1.4212,1183.227
855,1.42285,1184.27
856,1.424517,1184.419
857,1.426183,1184.419
858,1.42785,1184.195
859,1.429517,1186.207
860,1.431183,1186.207
861,1.43285,1186.207
862,1.434517,1185.76
863,1.436217,1187.026
864,1.43785,1185.164
865,1.439567,1185.164
866,1.441183,1186.43
867,1.44285,1187.548
868,1.444517,1187.548
869,1.446183,1187.623
870,1.44785,1183.748
871,1.449517,1179.129
872,1.451183,1179.129
873,1.45285,1174.51
874,1.4545,1174.807
875,1.456167,1178.682
876,1.457833,1178.682
877,1.4595,1180.843
878,1.461167,1183.823
879,1.462833,1184.717
880,1.4645,1184.717
881,1.466167,1182.929
882,1.467833,1185.76
883,1.4695,1185.76
884,1.471167,1183.227
885,1.47285,1180.321
886,1.4745,1180.843
887,1.476167,1180.843
888,1.47785,1179.427
889,1.4795,1179.501
890,1.481167,1177.862
891,1.482833,1177.862
892,1.4845,1179.203
893,1.486167,1180.917
894,1.487833,1181.439
895,1.4895,1181.439
896,1.491167,1182.556
897,1.492833,1181.29
898,1.4945,1178.682
899,1.496167,1178.682
900,1.497833,1179.054
901,1.4995,1179.203
902,1.501167,1179.203
903,1.502833,1177.49
904,1.5045,1176.67
905,1.506167,1178.533
906,1.507833,1178.533
907,1.5095,1179.352
908,1.5112,1182.035
909,1.512833,1183.823
910,1.514517,1183.823
911,1.51615,1181.439
912,1.517817,1183.972
913,1.519483,1181.811
914,1.52115,1181.811
915,1.522817,1182.109
916,1.524483,1184.866
917,1.52615,1184.866
918,1.527817,1182.109
919,1.529483,1182.78
920,1.53115,1183.599
