"ID","sea_time","fid_signal"
1,0,140.66
2,0.001683,140.66
3,0.0034,140.667
4,0.0051,140.399
5,0.006667,140.399
6,0.008333,140.183
7,0.01,140.175
8,0.011667,139.847
9,0.013333,139.847
10,0.015,139.654
11,0.016667,139.78
12,0.018333,140.078
13,0.02,140.078
14,0.021783,140.414
15,0.023333,140.555
16,0.025,140.51
17,0.026667,140.51
18,0.028367,140.712
19,0.03,140.749
20,0.031667,140.883
21,0.033333,140.883
22,0.034983,140.637
23,0.03665,140.466
24,0.038317,140.466
25,0.039983,140.54
26,0.04165,140.66
27,0.043317,140.95
28,0.044983,140.95
29,0.04665,140.749
30,0.048317,140.324
31,0.049983,140.227
32,0.051633,140.227
33,0.0533,140.049
34,0.054967,140.22
35,0.056633,140.481
36,0.0583,140.481
37,0.059967,140.637
38,0.061633,140.786
39,0.0633,140.786
40,0.064967,140.89
41,0.066633,140.578
42,0.0683,140.265
43,0.069967,140.265
44,0.071633,140.131
45,0.073333,140.086
46,0.07496700000000001,140.041
47,0.07663300000000001,140.041
48,0.07829999999999999,139.974
49,0.079967,140.265
50,0.081633,139.937
51,0.0833,139.937
52,0.084967,140.257
53,0.086633,140.443
54,0.0883,140.25
55,0.08996700000000001,140.25
56,0.09163300000000001,140.548
57,0.09329999999999999,140.414
58,0.094967,140.414
59,0.096633,140.645
60,0.0983,140.548
61,0.1,140.429
62,0.101633,140.429
63,0.1033,140.704
64,0.104967,140.309
65,0.106667,140.257
66,0.1083,140.257
67,0.109967,140.145
68,0.111633,140.026
69,0.113283,140.16
70,0.11495,140.16
71,0.116617,140.183
72,0.118283,140.414
73,0.11995,140.414
74,0.121617,140.198
75,0.123283,140.116
76,0.12495,140.153
77,0.126617,140.153
78,0.128283,140.123
79,0.12995,140.108
80,0.131617,140.22
81,0.133283,140.22
82,0.13495,140.332
83,0.136617,140.369
84,0.138283,140.712
85,0.14005,140.712
86,0.141617,140.637
87,0.143283,140.369
88,0.14495,140.324
89,0.146617,140.324
90,0.1483,140.212
91,0.14995,140.503
92,0.151617,140.503
93,0.153283,140.928
94,0.154967,140.868
95,0.156617,140.935
96,0.158283,140.935
97,0.15995,140.831
98,0.161617,140.652
99,0.163283,140.749
100,0.16495,140.749
101,0.166617,140.779
102,0.168283,140.637
103,0.16995,140.719
104,0.171617,140.719
105,0.173267,140.719
106,0.174933,140.54
107,0.1766,140.54
108,0.178267,140.876
109,0.179933,140.838
110,0.1816,140.779
111,0.183267,140.779
112,0.184933,140.823
113,0.1866,140.674
114,0.188267,140.712
115,0.18995,140.712
116,0.1916,140.652
117,0.193267,140.481
118,0.194933,140.361
119,0.1966,140.361
120,0.198267,140.332
121,0.199933,140.458
122,0.2016,140.458
123,0.203267,140.95
124,0.204933,141.099
125,0.2066,141.159
126,0.208267,141.159
127,0.209933,141.308
128,0.2116,141.278
129,0.213267,141.129
130,0.214933,141.129
131,0.2166,141.047
132,0.218267,140.682
133,0.219933,140.458
134,0.2216,140.458
135,0.223267,140.451
136,0.225017,140.414
137,0.2266,140.458
138,0.228267,140.458
139,0.229933,140.555
140,0.2316,140.473
141,0.23325,140.473
142,0.234917,140.548
143,0.236583,140.95
144,0.23825,140.607
145,0.239917,140.607
146,0.241583,140.645
147,0.24325,140.51
148,0.244917,140.153
149,0.246583,140.153
150,0.24825,140.578
151,0.249917,140.749
152,0.251583,140.935
153,0.25325,140.935
154,0.254917,140.876
155,0.256583,140.652
156,0.258367,140.525
157,0.259917,140.525
158,0.261583,140.369
159,0.26325,140.436
160,0.264917,140.436
161,0.266583,140.287
162,0.26825,140.078
163,0.269917,139.974
164,0.271583,139.974
165,0.27325,140.168
166,0.274917,140.57
167,0.276583,141.077
168,0.278267,141.077
169,0.279917,141.278
170,0.281583,141.345
171,0.28325,140.98
172,0.284917,140.98
173,0.286583,140.622
174,0.28825,140.794
175,0.289917,140.794
176,0.291583,140.615
177,0.293233,140.727
178,0.2949,140.935
179,0.296567,140.935
180,0.298233,140.898
181,0.2999,140.846
182,0.3016,140.965
183,0.303233,140.965
184,0.3049,140.838
185,0.306567,140.727
186,0.308233,140.488
187,0.3099,140.488
188,0.311567,140.451
189,0.313233,140.689
190,0.3149,140.689
191,0.316567,140.563
192,0.318233,140.838
193,0.3199,140.771
194,0.321567,140.771
195,0.323233,140.652
196,0.3249,140.779
197,0.32655,140.667
198,0.328217,140.667
199,0.329883,140.533
200,0.33155,140.451
201,0.333217,140.198
202,0.334883,140.198
203,0.33655,140.011
204,0.338217,139.967
205,0.339883,139.87
206,0.34155,139.87
207,0.343283,139.922
208,0.344883,140.108
209,0.34655,140.108
210,0.348217,140.19
211,0.349883,140.183
212,0.35155,140.339
213,0.3532,140.339
214,0.354867,140.727
215,0.35655,140.868
216,0.3582,140.697
217,0.359867,140.697
218,0.361533,140.6
219,0.3632,140.548
220,0.364867,140.6
221,0.366533,140.6
222,0.3682,140.905
223,0.369867,141.338
224,0.371533,141.338
225,0.3732,141.434
226,0.3749,141.33
227,0.376533,141.665
228,0.3782,141.665
229,0.379867,141.68
230,0.381533,141.516
231,0.3832,142.105
232,0.384867,142.105
233,0.386533,142.217
234,0.3882,142.694
235,0.389867,143.267
236,0.391533,143.267
237,0.3932,143.58
238,0.394867,144.28
239,0.396533,144.28
240,0.3982,144.929
241,0.399867,146.247
242,0.401533,147.544
243,0.4032,147.544
244,0.404867,149.027
245,0.406533,150.8
246,0.4082,152.767
247,0.409867,152.767
248,0.411517,155.054
249,0.413183,157.602
250,0.41485,160.374
251,0.416517,160.374
252,0.418183,163.451
253,0.41985,166.99
254,0.421517,171.095
255,0.423183,171.095
256,0.42485,175.796
257,0.426517,180.721
258,0.428183,180.721
259,0.42985,186.287
260,0.431517,192.657
261,0.433183,199.564
262,0.43485,199.564
263,0.436517,207.677
264,0.438183,216.752
265,0.43985,226.423
266,0.441533,226.423
267,0.443217,237.45
268,0.444867,249.542
269,0.446517,262.834
270,0.448183,262.834
271,0.44985,277.959
272,0.451517,295.095
273,0.453183,295.095
274,0.45485,314.347
275,0.456517,336.334
276,0.458183,360.966
277,0.45985,360.966
278,0.461567,388.712
279,0.463183,420.876
280,0.46485,458.241
281,0.466517,458.241
282,0.468183,501.685
283,0.46985,551.8200000000001
284,0.471517,609.428
285,0.473167,609.428
286,0.474833,675.917
287,0.4765,752.456
288,0.478167,841.3339999999999
289,0.479833,841.3339999999999
290,0.4815,943.527
291,0.483167,1060.21
292,0.484833,1060.21
293,0.4865,1193.583
294,0.488167,1344.912
295,0.489833,1515.85
296,0.4915,1515.85
297,0.493167,1708.209
298,0.494933,1923.174
299,0.4965,2161.607
300,0.498167,2161.607
301,0.499833,2425.194
302,0.5014999999999999,2714.626
303,0.503167,3030.27
304,0.504833,3030.27
305,0.5065,3372.118
306,0.508167,3739.819
307,0.509833,3739.819
308,0.5115,4132.949
309,0.513167,4550.211
310,0.514833,4989.892
311,0.5165,4989.892
312,0.518167,5450.025
313,0.519833,5928.449
314,0.5215,6422.281
315,0.523167,6422.281
316,0.52485,6929.003
317,0.5265,7444.993
318,0.528267,7966.094
319,0.529833,7966.094
320,0.5315,8488.797
321,0.53315,9009.183000000001
322,0.534817,9523.153
323,0.536483,9523.153
324,0.53815,10027.155
325,0.539817,10516.912
326,0.541483,10516.912
327,0.54315,10988.608
328,0.544817,11438.631
329,0.5464830000000001,11863.478
330,0.54815,11863.478
331,0.549817,12260.557
332,0.5515,12627.639
333,0.55315,12962.796
334,0.554817,12962.796
335,0.5564829999999999,13263.718
336,0.55815,13528.488
337,0.559817,13755.851
338,0.561483,13755.851
339,0.56315,13944.932
340,0.564817,14096.126
341,0.566483,14096.126
342,0.56815,14210.373
343,0.569817,14287.605
344,0.571483,14330.245
345,0.57315,14330.245
346,0.574817,14339.03
347,0.576483,14315.918
348,0.5781500000000001,14263.601
349,0.57985,14263.601
350,0.581483,14183.313
351,0.5831499999999999,14077.552
352,0.584817,13948.21
353,0.586483,13948.21
354,0.58815,13797.38
355,0.589817,13627.134
356,0.591467,13627.134
357,0.593167,13439.588
358,0.59485,13236.701
359,0.596517,13021.037
360,0.598133,13021.037
361,0.5998,12794.077
362,0.601467,12558.103
363,0.603133,12315.154
364,0.6048,12315.154
365,0.606467,12065.724
366,0.608133,11811.711
367,0.6098,11554.107
368,0.611467,11554.107
369,0.613233,11293.604
370,0.6148,11031.94
371,0.616467,10769.903
372,0.618117,10769.903
373,0.619783,10508.231
374,0.6214499999999999,10248.117
375,0.623117,10248.117
376,0.624783,9990.029
377,0.62645,9734.459000000001
378,0.628117,9481.690000000001
379,0.629783,9481.690000000001
380,0.63145,9232.208000000001
381,0.633117,8986.019
382,0.634783,8744.067999999999
383,0.63645,8744.067999999999
384,0.638117,8506.819
385,0.639783,8274.309999999999
386,0.64145,8046.612
387,0.643117,8046.612
388,0.644783,7823.467
389,0.64645,7605.024
390,0.6481170000000001,7605.024
391,0.649783,7390.805
392,0.65145,7181.428
393,0.6531,6977.104
394,0.654767,6977.104
395,0.656433,6777.868
396,0.6581,6583.81
397,0.659767,6394.654
398,0.661433,6394.654
399,0.6631,6210.215
400,0.664767,6030.239
401,0.6664330000000001,5855.195
402,0.668133,5855.195
403,0.669783,5685.061
404,0.6714329999999999,5519.219
405,0.6731,5358.368
406,0.674767,5358.368
407,0.676433,5202.204
408,0.6781,5050.682
409,0.679767,5050.682
410,0.681433,4903.875
411,0.6831,4760.98
412,0.684767,4622.012
413,0.686433,4622.012
414,0.6881,4486.672
415,0.689767,4354.82
416,0.691433,4226.669
417,0.6931,4226.669
418,0.694767,4102.133
419,0.696433,3981.426
420,0.698117,3864.169
421,0.699767,3864.169
422,0.701433,3750.287
423,0.7030999999999999,3640.018
424,0.704767,3640.018
425,0.706433,3533.043
426,0.7081,3429.733
427,0.709767,3329.702
428,0.711433,3329.702
429,0.713083,3232.196
430,0.71485,3137.708
431,0.716417,3045.745
432,0.718083,3045.745
433,0.71975,2956.524
434,0.721417,2870.396
435,0.723083,2786.845
436,0.72475,2786.845
437,0.726433,2705.947
438,0.728083,2627.581
439,0.72975,2551.466
440,0.731533,2551.466
441,0.733083,2477.05
442,0.73475,2405.077
443,0.736417,2405.077
444,0.738083,2335.243
445,0.73975,2267.606
446,0.741417,2202.138
447,0.743083,2202.138
448,0.74475,2138.63
449,0.7464499999999999,2077.334
450,0.7480830000000001,2017.595
451,0.749783,2017.595
452,0.751417,1959.95
453,0.7530829999999999,1904.093
454,0.75475,1849.525
455,0.756417,1849.525
456,0.758083,1796.938
457,0.75975,1746.125
458,0.761417,1746.125
459,0.763083,1696.609
460,0.76475,1648.754
461,0.766417,1602.329
462,0.768083,1602.329
463,0.76975,1557.156
464,0.771417,1513.63
465,0.7730669999999999,1471.579
466,0.774733,1471.579
467,0.7764,1430.914
468,0.778067,1391.604
469,0.779733,1353.577
470,0.7814,1353.577
471,0.783067,1316.346
472,0.784733,1280.271
473,0.7864,1280.271
474,0.788067,1245.476
475,0.789733,1211.606
476,0.7914,1179.27
477,0.793067,1179.27
478,0.794733,1147.583
479,0.7964,1116.909
480,0.798067,1087.04
481,0.799733,1087.04
482,0.8014,1058.012
483,0.803067,1030.222
484,0.804733,1003.273
485,0.8064,1003.273
486,0.808067,977.457
487,0.809733,952.497
488,0.8114,928.044
489,0.813067,928.044
490,0.814733,904.158
491,0.816433,881.24
492,0.818067,881.24
493,0.819733,858.933
494,0.8214,837.378
495,0.823083,816.554
496,0.824733,816.554
497,0.8264,796.4299999999999
498,0.828067,776.939
499,0.8297330000000001,758.015
500,0.8314,758.015
501,0.833133,739.8579999999999
502,0.834717,721.768
503,0.836383,704.557
504,0.83805,704.557
505,0.839717,687.83
506,0.841383,671.633
507,0.84305,671.633
508,0.8447170000000001,656.396
509,0.846383,640.9589999999999
510,0.84805,626.415
511,0.8498,626.415
512,0.851383,612.393
513,0.85305,598.55
514,0.8547169999999999,585.362
515,0.856383,585.362
516,0.85805,572.547
517,0.859717,560.008
518,0.861383,548.005
519,0.86305,548.005
520,0.864717,536.501
521,0.8665,524.998
522,0.86805,514.083
523,0.869717,514.083
524,0.871383,503.391
525,0.87305,493.109
526,0.874717,493.109
527,0.876383,483.416
528,0.87805,473.738
529,0.879717,464.506
530,0.881383,464.506
531,0.88305,455.633
532,0.884717,446.804
533,0.886383,438.66
534,0.88805,438.66
535,0.889733,430.338
536,0.891383,421.949
537,0.893033,414.528
538,0.8947000000000001,414.528
539,0.896367,406.936
540,0.898033,399.783
541,0.8997000000000001,399.783
542,0.901367,392.929
543,0.903033,386.022
544,0.9046999999999999,379.145
545,0.906367,379.145
546,0.908017,372.939
547,0.909683,367.142
548,0.911367,361.368
549,0.913017,361.368
550,0.914683,355.721
551,0.91635,350.162
552,0.918017,344.343
553,0.919683,344.343
554,0.92135,338.614
555,0.923017,333.466
556,0.924683,328.25
557,0.92635,328.25
558,0.928017,323.504
559,0.929683,318.989
560,0.93135,318.989
561,0.933017,314.414
562,0.9347,309.981
563,0.93635,305.898
564,0.938017,305.898
565,0.939683,302.151
566,0.94135,298.262
567,0.943017,294.462
568,0.9446830000000001,294.462
569,0.94635,290.558
570,0.948017,286.438
571,0.9496830000000001,283.033
572,0.951383,283.033
573,0.953,279.687
574,0.954667,276.521
575,0.956333,276.521
576,0.958017,273.63
577,0.959717,270.471
578,0.961333,267.603
579,0.963,267.603
580,0.9646670000000001,264.734
581,0.966333,261.933
582,0.96805,259.191
583,0.9696669999999999,259.191
584,0.971333,256.099
585,0.973,253.26
586,0.974667,250.638
587,0.976333,250.638
588,0.978,248.075
589,0.979667,246.085
590,0.981333,246.085
591,0.983,243.977
592,0.9847669999999999,241.779
593,0.986333,239.953
594,0.988,239.953
595,0.989667,237.845
596,0.991333,235.967
597,0.993,234.112
598,0.994667,234.112
599,0.996333,231.825
600,0.998,229.478
601,0.999667,227.332
602,1.00135,227.332
603,1.003,225.32
604,1.004667,223.875
605,1.006333,222.594
606,1.008,222.594
607,1.009667,221.059
608,1.011333,219.613
609,1.012983,219.613
610,1.01465,218.004
611,1.016317,216.462
612,1.017983,214.696
613,1.01965,214.696
614,1.021317,213.087
615,1.022983,211.5
616,1.02465,210.315
617,1.026317,210.315
618,1.027983,209.272
619,1.02965,208.184
620,1.031367,207.193
621,1.032983,207.193
622,1.03465,205.77
623,1.036317,204.802
624,1.037983,204.802
625,1.03965,203.475
626,1.041317,202.224
627,1.042983,201.397
628,1.04465,201.397
629,1.046317,200.324
630,1.047983,199.281
631,1.04965,198.036
632,1.051317,198.036
633,1.052983,196.636
634,1.05465,195.578
635,1.056317,194.922
636,1.057983,194.922
637,1.05965,194.401
638,1.061317,193.596
639,1.062983,192.694
640,1.06465,192.694
641,1.066317,191.577
642,1.067983,190.564
643,1.069633,190.564
644,1.071317,189.945
645,1.072967,189.14
646,1.074633,188.619
647,1.0763,188.619
648,1.077967,187.919
649,1.079633,187.047
650,1.0813,186.332
651,1.082983,186.332
652,1.084667,185.311
653,1.0863,184.61
654,1.087967,184.23
655,1.089633,184.23
656,1.0913,183.664
657,1.092967,183.329
658,1.094633,183.329
659,1.0963,182.621
660,1.097967,181.779
661,1.099633,180.93
662,1.1013,180.93
663,1.103083,180.326
664,1.104633,179.872
665,1.1063,179.358
666,1.107967,179.358
667,1.109683,179.06
668,1.1113,178.426
669,1.112967,177.883
670,1.114633,177.883
671,1.1163,177.48
672,1.117967,176.735
673,1.119633,176.176
674,1.1213,176.176
675,1.122967,175.573
676,1.124633,175.059
677,1.1263,175.059
678,1.127967,174.768
679,1.129633,174.306
680,1.1313,173.979
681,1.13295,173.979
682,1.134617,173.435
683,1.136283,173.166
684,1.13795,172.958
685,1.139617,172.958
686,1.141283,172.533
687,1.14295,172.079
688,1.144617,171.408
689,1.146283,171.408
690,1.14795,171.155
691,1.149617,170.685
692,1.151283,170.685
693,1.15295,170.29
694,1.154617,170.06
695,1.156283,169.665
696,1.15795,169.665
697,1.159617,169.478
698,1.161283,169.218
699,1.16295,169.002
700,1.164617,169.002
701,1.166317,168.338
702,1.16795,167.899
703,1.169617,167.497
704,1.171283,167.497
705,1.17295,167.131
706,1.174617,167.184
707,1.1763,166.781
708,1.17795,166.781
709,1.179617,166.595
710,1.181283,166.334
711,1.18295,166.334
712,1.184617,165.917
713,1.186283,165.828
714,1.188,165.686
715,1.189617,165.686
716,1.191267,165.708
717,1.192933,165.53
718,1.1946,165.358
719,1.196267,165.358
720,1.197933,165.075
721,1.199583,164.524
722,1.20125,163.965
723,1.202917,163.965
724,1.204583,163.838
725,1.20625,163.406
726,1.207917,163.406
727,1.209583,163.153
728,1.21125,163.116
729,1.212917,162.922
730,1.214583,162.922
731,1.21625,162.914
732,1.217917,162.728
733,1.219583,162.467
734,1.221367,162.467
735,1.222917,162.154
736,1.224583,162.08
737,1.22625,161.968
738,1.227917,161.968
739,1.229583,161.931
740,1.23125,161.581
741,1.232917,161.581
742,1.234583,161.223
743,1.23625,161.044
744,1.237917,161.037
745,1.239583,161.037
746,1.24125,160.992
747,1.242917,160.88
748,1.244583,160.716
749,1.24625,160.716
750,1.247917,160.448
751,1.249583,160.329
752,1.251267,160.336
753,1.25295,160.336
754,1.2546,159.979
755,1.256233,159.733
756,1.2579,159.375
757,1.259567,159.375
758,1.261233,159.085
759,1.2629,158.988
760,1.264567,158.988
761,1.266233,158.668
762,1.2679,158.563
763,1.269567,158.265
764,1.271233,158.265
765,1.2729,158.37
766,1.274567,158.593
767,1.276233,158.787
768,1.2779,158.787
769,1.279567,159.025
770,1.281233,158.727
771,1.2829,158.265
772,1.284567,158.265
773,1.286233,157.692
774,1.2879,157.267
775,1.289567,157.267
776,1.291233,157.215
777,1.2929,157.14
778,1.294567,157.304
779,1.296233,157.304
780,1.2979,157.043
781,1.299567,156.954
782,1.301233,157.021
783,1.3029,157.021
784,1.304567,156.76
785,1.306283,156.611
786,1.3079,156.477
787,1.309567,156.477
788,1.311233,156.209
789,1.312883,156
790,1.31455,156.142
791,1.316217,156.142
792,1.317883,155.777
793,1.31955,155.568
794,1.321217,155.568
795,1.322883,155.62
796,1.32455,155.434
797,1.326217,155.538
798,1.32795,155.538
799,1.32965,155.725
800,1.331217,155.523
801,1.332883,155.173
802,1.33455,155.173
803,1.336217,154.749
804,1.337883,154.637
805,1.33965,154.711
806,1.341217,154.711
807,1.342883,154.823
808,1.34455,154.942
809,1.346217,154.942
810,1.347883,155.039
811,1.34955,154.808
812,1.351217,154.704
813,1.352883,154.704
814,1.35455,154.801
815,1.356217,154.451
816,1.3579,154.339
817,1.35955,154.339
818,1.361217,154.331
819,1.362883,154.145
820,1.36455,153.847
821,1.366217,153.847
822,1.367883,153.802
823,1.36955,153.705
824,1.371217,153.705
825,1.372867,153.81
826,1.374533,154.115
827,1.3762,154.018
828,1.377867,154.018
829,1.379533,154.078
830,1.3812,153.914
831,1.382867,153.81
832,1.384533,153.81
833,1.3862,153.691
834,1.387867,153.326
835,1.389533,153.035
836,1.3912,153.035
837,1.392867,152.64
838,1.394533,153.057
839,1.3962,153.162
840,1.3979,153.162
841,1.39955,153.005
842,1.4012,152.916
843,1.402867,152.916
844,1.404533,152.431
845,1.4062,152.104
846,1.407867,152.096
847,1.409533,152.096
848,1.4112,151.828
849,1.412867,151.813
850,1.414533,152.126
851,1.4162,152.126
852,1.417867,152.081
853,1.419533,152.342
854,1.4212,152.104
855,1.422867,152.104
856,1.424583,151.947
857,1.4262,152.133
858,1.427867,152.133
859,1.429533,152.066
860,1.431183,152.342
861,1.43285,152.312
862,1.434517,152.312
863,1.436183,152.23
864,1.43785,151.947
865,1.439517,151.724
866,1.441183,151.724
867,1.44285,151.604
868,1.444517,151.53
869,1.446183,151.947
870,1.44785,151.947
871,1.449517,151.902
872,1.451183,151.888
873,1.45285,151.597
874,1.454517,151.597
875,1.456183,151.202
876,1.457967,151.038
877,1.459517,151.038
878,1.461183,151.053
879,1.46285,151.247
880,1.464517,151.351
881,1.466183,151.351
882,1.46785,151.396
883,1.469517,151.098
884,1.471183,151.023
885,1.47285,151.023
886,1.474517,150.718
887,1.476183,150.591
888,1.477867,150.576
889,1.479567,150.576
890,1.481183,150.308
891,1.48285,150.234
892,1.484517,150.234
893,1.486183,150.368
894,1.48785,150.464
895,1.489517,150.703
896,1.491167,150.703
897,1.492817,150.993
898,1.494483,150.77
899,1.49615,150.591
900,1.497817,150.591
901,1.499483,150.42
902,1.50115,150.122
903,1.502817,149.831
904,1.504483,149.831
905,1.50615,149.809
906,1.507817,149.988
907,1.509483,149.921
908,1.51115,149.921
909,1.512817,150.062
910,1.514483,150.017
911,1.51615,150.017
912,1.517817,149.406
913,1.519483,149.541
914,1.52115,149.615
915,1.522817,149.615
916,1.524483,149.682
917,1.52615,149.861
918,1.527817,149.697
919,1.529483,149.697
920,1.53115,149.533
921,1.532833,149.339
922,1.534483,149.116
923,1.53615,149.116
924,1.537817,148.863
925,1.539483,148.915
926,1.54115,148.915
927,1.542867,149.086
928,1.544483,149.354
929,1.54615,149.742
930,1.547833,149.742
931,1.5495,149.772
932,1.55115,149.511
933,1.5528,149.556
934,1.554467,149.556
935,1.556133,149.511
936,1.5578,149.63
937,1.559567,149.526
938,1.561133,149.526
939,1.5628,149.526
940,1.564467,149.533
941,1.566133,149.533
942,1.5678,149.168
943,1.569467,149.116
944,1.571133,148.863
945,1.5728,148.863
946,1.574467,148.55
947,1.57625,148.84
948,1.5778,149.079
949,1.579467,149.079
950,1.581133,149.094
951,1.5828,149.123
