"ID","sea_time","fid_signal"
1,0,1175.106
2,0.001667,1175.106
3,0.003333,1176.819
4,0.005,1174.807
5,0.006667,1173.168
6,0.008383,1173.168
7,0.01,1172.125
8,0.011667,1171.082
9,0.013333,1170.114
10,0.015,1170.114
11,0.016667,1169.667
12,0.018333,1168.549
13,0.020017,1166.239
14,0.021667,1166.239
15,0.023333,1168.549
16,0.025067,1172.87
17,0.026667,1172.87
18,0.028333,1177.713
19,0.03,1180.172
20,0.031667,1181.588
21,0.033333,1181.588
22,0.035,1181.513
23,0.036667,1179.054
24,0.038333,1180.246
25,0.04,1180.246
26,0.041783,1177.341
27,0.043333,1176.596
28,0.045,1175.627
29,0.046667,1175.627
30,0.04835,1174.286
31,0.05,1174.659
32,0.051667,1174.659
33,0.053333,1173.094
34,0.055,1175.106
35,0.056667,1174.36
36,0.058317,1174.36
37,0.059983,1174.36
38,0.06165,1172.2
39,0.063317,1170.635
40,0.064983,1170.635
41,0.06665,1169.443
42,0.068333,1167.879
43,0.069983,1170.71
44,0.07165000000000001,1170.71
45,0.07331699999999999,1171.827
46,0.07498299999999999,1175.031
47,0.07665,1175.031
48,0.078317,1174.212
49,0.079983,1171.753
50,0.08165,1171.604
51,0.083317,1171.604
52,0.084983,1171.231
53,0.08665,1172.796
54,0.08831700000000001,1173.019
55,0.08998299999999999,1173.019
56,0.09165,1172.051
57,0.093317,1173.541
58,0.094983,1172.796
59,0.09665,1172.796
60,0.098317,1175.031
61,0.099983,1176.521
62,0.10165,1174.807
63,0.103317,1174.807
64,0.104983,1178.011
65,0.10665,1178.086
66,0.108317,1178.086
67,0.109967,1178.533
68,0.111633,1178.309
69,0.113333,1175.404
70,0.114967,1175.404
71,0.116617,1174.957
72,0.118283,1175.106
73,0.11995,1175.925
74,0.121617,1175.925
75,0.123283,1177.266
76,0.12495,1174.957
77,0.126683,1174.733
78,0.128283,1174.733
79,0.12995,1174.435
80,0.131617,1176
81,0.133283,1176
82,0.13495,1178.831
83,0.136617,1176.447
84,0.138283,1177.341
85,0.13995,1177.341
86,0.141617,1176.521
87,0.143367,1178.458
88,0.14495,1180.545
89,0.146617,1180.545
90,0.148283,1175.851
91,0.14995,1175.925
92,0.151617,1176.223
93,0.153283,1176.223
94,0.15495,1172.051
95,0.156633,1174.584
96,0.158283,1173.988
97,0.16005,1173.988
98,0.161617,1169.816
99,0.163283,1171.678
100,0.16495,1171.678
101,0.166617,1171.902
102,0.168283,1170.859
103,0.16995,1173.019
104,0.171617,1173.019
105,0.173283,1173.765
106,0.17495,1173.243
107,0.1766,1174.286
108,0.178267,1174.286
109,0.179933,1174.36
110,0.1816,1172.2
111,0.183267,1172.796
112,0.184933,1172.796
113,0.1866,1174.51
114,0.188267,1174.584
115,0.189933,1174.584
116,0.191617,1175.329
117,0.193317,1173.765
118,0.19495,1170.263
119,0.1966,1170.263
120,0.198267,1170.71
121,0.199933,1171.976
122,0.2016,1174.286
123,0.203267,1174.286
124,0.204933,1178.682
125,0.2066,1177.639
126,0.208267,1179.129
127,0.209933,1179.129
128,0.2116,1177.713
129,0.213267,1175.776
130,0.214933,1176.074
131,0.2166,1176.074
132,0.218267,1173.392
133,0.219933,1174.435
134,0.2216,1174.435
135,0.223267,1173.466
136,0.224933,1173.168
137,0.2266,1174.584
138,0.228267,1174.584
139,0.229933,1172.423
140,0.231617,1170.784
141,0.2333,1173.243
142,0.234933,1173.243
143,0.2366,1173.019
144,0.23825,1174.584
145,0.239917,1177.341
146,0.241583,1177.341
147,0.24325,1176.223
148,0.244933,1174.063
149,0.246583,1174.063
150,0.24825,1172.945
151,0.249917,1173.839
152,0.251583,1172.423
153,0.25325,1172.423
154,0.254917,1175.851
155,0.256583,1175.851
156,0.25825,1176.223
157,0.259917,1176.223
158,0.26165,1178.309
159,0.26325,1178.011
160,0.264967,1182.258
161,0.266583,1182.258
162,0.26825,1180.396
163,0.269917,1176.149
164,0.271583,1176.149
165,0.27325,1172.796
166,0.274917,1167.133
167,0.276583,1165.271
168,0.278367,1165.271
169,0.279917,1168.624
170,0.281583,1172.572
171,0.28325,1174.286
172,0.284917,1174.286
173,0.286583,1175.553
174,0.28825,1175.031
175,0.289917,1175.106
176,0.291583,1175.106
177,0.29325,1176.596
178,0.294917,1176.894
179,0.296583,1175.106
180,0.298233,1175.106
181,0.2999,1175.478
182,0.301567,1175.925
183,0.303233,1175.925
184,0.3049,1175.255
185,0.306567,1175.031
186,0.308233,1171.604
187,0.3099,1171.604
188,0.311567,1171.008
189,0.313233,1171.157
190,0.3149,1171.38
191,0.316567,1171.38
192,0.318233,1173.392
193,0.3199,1173.541
194,0.321567,1173.615
195,0.32325,1173.615
196,0.324933,1176
197,0.326567,1175.404
198,0.328233,1175.404
199,0.3299,1176.447
200,0.331567,1176.074
201,0.333233,1177.341
202,0.334917,1177.341
203,0.336567,1179.501
204,0.338233,1181.513
205,0.3399,1185.76
206,0.341567,1185.76
207,0.343233,1188.144
208,0.3449,1194.701
209,0.346567,1201.183
210,0.348233,1201.183
211,0.3499,1206.92
212,0.351567,1215.413
213,0.353233,1224.577
214,0.3549,1224.577
215,0.35655,1232.55
216,0.358217,1248.643
217,0.359883,1248.643
218,0.36155,1265.481
219,0.3633,1285.374
220,0.364883,1310.706
221,0.36655,1310.706
222,0.368217,1335.293
223,0.369883,1362.637
224,0.37155,1393.259
225,0.373217,1393.259
226,0.374883,1427.904
227,0.37655,1469.925
228,0.378217,1519.62
229,0.379883,1519.62
230,0.38155,1574.084
231,0.383217,1638.755
232,0.384883,1638.755
233,0.38655,1709.387
234,0.388217,1792.163
235,0.389883,1888.126
236,0.39155,1888.126
237,0.393217,1996.905
238,0.394883,2128.631
239,0.396667,2280.25
240,0.398217,2280.25
241,0.399883,2462.715
242,0.401533,2691.001
243,0.4032,2962.574
244,0.404867,2962.574
245,0.406533,3296.882
246,0.4082,3704.28
247,0.409867,3704.28
248,0.41155,4190.803
249,0.413217,4778.057
250,0.414867,5474.985
251,0.416517,5474.985
252,0.418183,6294.847
253,0.41985,7246.658
254,0.421517,8338.615
255,0.423183,8338.615
256,0.42485,9578.839
257,0.426517,10974.258
258,0.428183,12536.72
259,0.42985,12536.72
260,0.431517,14277.25
261,0.433183,16205.311
262,0.43485,18321.35
263,0.436517,18321.35
264,0.438183,20625.889
265,0.43985,23097.844
266,0.441517,23097.844
267,0.443183,25707.111
268,0.44485,28416.664
269,0.446517,31168.088
270,0.448183,31168.088
271,0.44985,33907.594
272,0.451517,36574.156
273,0.453183,39102.508
274,0.45485,39102.508
275,0.456517,41438.641
276,0.458183,43525.023
277,0.45985,45316.594
278,0.461517,45316.594
279,0.463183,46777.801
280,0.46485,47879.293
281,0.466517,47879.293
282,0.468183,48612.207
283,0.46985,48970.73
284,0.471517,48957.316
285,0.473183,48957.316
286,0.474867,48585.609
287,0.47655,47870.949
288,0.478167,46842.023
289,0.47985,46842.023
290,0.481617,45537.277
291,0.483167,43992.996
292,0.484833,42253.137
293,0.4865,42253.137
294,0.488167,40356.59
295,0.489833,38345.309
296,0.4915,36257.355
297,0.493167,36257.355
298,0.494833,34131.109
299,0.4965,32001.957
300,0.498167,32001.957
301,0.499833,29896.871
302,0.5014999999999999,27844.906
303,0.503167,25866.852
304,0.504833,25866.852
305,0.5065,23978.203
306,0.508167,22194.385
307,0.509833,20520.166
308,0.5115,20520.166
309,0.513167,18955.693
310,0.51495,17503.5
311,0.5165,16156.957
312,0.518167,16156.957
313,0.519833,14910.325
314,0.5215,13762.191
315,0.523167,13762.191
316,0.524833,12705.848
317,0.5265,11733.771
318,0.5281670000000001,10835.305
319,0.529833,10835.305
320,0.5315,10005.832
321,0.5331669999999999,9241.328
322,0.534833,8534.789000000001
323,0.536483,8534.789000000001
324,0.53815,7888.153
325,0.539817,7296.95
326,0.541483,6753.877
327,0.54315,6753.877
328,0.544817,6255.358
329,0.5464830000000001,5804.673
330,0.54815,5389.08
331,0.549833,5389.08
332,0.5514829999999999,5008.131
333,0.55315,4664.436
334,0.554817,4664.436
335,0.5564829999999999,4352.033
336,0.55815,4072.636
337,0.559817,3820.285
338,0.561483,3820.285
339,0.56315,3593.49
340,0.564817,3387.108
341,0.566483,3200.546
342,0.568167,3200.546
343,0.569817,3032.833
344,0.571483,2879.128
345,0.57315,2737.12
346,0.574817,2737.12
347,0.576483,2607.48
348,0.5781500000000001,2493.411
349,0.579817,2493.411
350,0.581483,2390.295
351,0.5831499999999999,2298.951
352,0.584817,2219.528
353,0.586483,2219.528
354,0.58815,2143.979
355,0.589817,2079.084
356,0.591483,2019.182
357,0.59315,2019.182
358,0.594817,1962.93
359,0.596467,1914.576
360,0.59815,1869.351
361,0.599867,1869.351
362,0.601467,1830.161
363,0.603133,1796.41
364,0.6048,1760.721
365,0.606467,1760.721
366,0.608133,1725.778
367,0.6098,1696.125
368,0.611467,1696.125
369,0.613133,1667.514
370,0.6148,1644.12
371,0.616467,1623.556
372,0.618133,1623.556
373,0.6198,1600.534
374,0.6215000000000001,1578.853
375,0.623133,1560.673
376,0.6248,1560.673
377,0.626467,1545.25
378,0.6281330000000001,1535.118
379,0.6298,1523.346
380,0.631467,1523.346
381,0.633233,1510.829
382,0.6348,1498.684
383,0.636467,1498.684
384,0.638133,1486.018
385,0.6398,1472.756
386,0.641467,1461.208
387,0.643133,1461.208
388,0.6448,1450.33
389,0.646467,1438.186
390,0.648133,1431.257
391,0.6498,1431.257
392,0.651467,1423.582
393,0.653133,1416.951
394,0.6548,1413.226
395,0.656467,1413.226
396,0.6581669999999999,1406.223
397,0.659783,1403.093
398,0.66145,1403.093
399,0.663117,1396.015
400,0.664783,1389.98
401,0.66645,1385.734
402,0.668117,1385.734
403,0.669783,1381.636
404,0.67145,1381.859
405,0.673117,1375.303
406,0.674783,1375.303
407,0.67645,1370.683
408,0.678117,1363.605
409,0.679783,1356.378
410,0.68145,1356.378
411,0.683117,1355.708
412,0.684783,1355.261
413,0.68645,1351.461
414,0.688117,1351.461
415,0.689783,1348.108
416,0.69145,1341.403
417,0.6931,1341.403
418,0.694767,1334.995
419,0.69645,1331.344
420,0.6981000000000001,1327.917
421,0.699767,1327.917
422,0.701433,1325.458
423,0.7030999999999999,1325.309
424,0.704767,1324.937
425,0.706433,1324.937
426,0.7081,1321.584
427,0.709767,1317.337
428,0.711433,1313.239
429,0.7131,1313.239
430,0.714767,1307.428
431,0.716417,1304.82
432,0.718117,1304.82
433,0.71975,1307.428
434,0.721417,1304.001
435,0.723083,1303.032
436,0.72475,1303.032
437,0.726417,1301.467
438,0.728083,1297.593
439,0.72975,1296.997
440,0.731417,1296.997
441,0.733083,1297.295
442,0.734833,1299.009
443,0.736433,1297.37
444,0.738083,1297.37
445,0.73975,1292.601
446,0.741417,1288.354
447,0.743083,1283.064
448,0.74475,1283.064
449,0.746417,1278.892
450,0.7480830000000001,1279.265
451,0.74975,1279.265
452,0.751517,1277.178
453,0.7530829999999999,1277.551
454,0.75475,1277.924
455,0.756417,1277.924
456,0.758083,1279.637
457,0.75975,1279.19
458,0.761417,1276.508
459,0.763083,1276.508
460,0.76475,1275.465
461,0.766417,1271.442
462,0.768083,1269.206
463,0.76975,1269.206
464,0.771417,1265.556
465,0.773083,1262.054
466,0.774767,1262.054
467,0.77645,1259.521
468,0.778067,1258.85
469,0.779733,1259.67
470,0.7814,1259.67
471,0.783067,1262.65
472,0.784733,1261.83
473,0.7864,1261.756
474,0.788067,1261.756
475,0.789733,1261.011
476,0.7914,1258.627
477,0.793067,1258.254
478,0.794733,1258.254
479,0.7964,1256.391
480,0.798067,1255.944
481,0.799733,1254.752
482,0.8014,1254.752
483,0.803067,1255.125
484,0.804733,1256.54
485,0.8064,1256.54
486,0.808067,1255.646
487,0.809733,1255.572
488,0.8114,1253.784
489,0.813067,1253.784
490,0.814733,1254.231
491,0.8164,1251.698
492,0.818117,1249.09
493,0.819733,1249.09
494,0.8214,1247.898
495,0.823067,1245.365
496,0.824733,1246.929
497,0.826417,1246.929
498,0.828067,1246.557
499,0.8297330000000001,1247.004
500,0.8314,1247.004
501,0.833067,1247.153
502,0.8347329999999999,1244.917
503,0.836417,1244.247
504,0.83805,1244.247
505,0.839717,1241.639
506,0.841383,1239.181
507,0.8431,1239.404
508,0.8447170000000001,1239.404
509,0.846383,1238.212
510,0.84805,1238.957
511,0.8497169999999999,1238.063
512,0.851383,1238.063
513,0.8531,1239.181
514,0.8547169999999999,1242.235
515,0.856383,1242.235
516,0.85805,1242.533
517,0.859717,1242.459
518,0.861383,1241.639
519,0.86305,1241.639
520,0.864717,1239.031
521,0.866383,1237.392
522,0.86805,1235.083
523,0.869783,1235.083
524,0.871383,1233.295
525,0.87305,1229.271
526,0.874717,1229.42
527,0.876383,1229.42
528,0.87805,1231.804
529,0.879717,1230.612
530,0.881383,1234.263
531,0.88305,1234.263
532,0.884717,1233.742
533,0.8865,1234.412
534,0.88805,1234.412
535,0.889717,1235.306
536,0.891383,1233.593
537,0.89305,1233.146
538,0.894717,1233.146
539,0.896367,1231.581
540,0.898033,1230.761
541,0.8997000000000001,1231.804
542,0.901367,1231.804
543,0.903033,1232.401
544,0.9046999999999999,1232.028
545,0.906367,1229.346
546,0.908033,1229.346
547,0.909717,1228.75
548,0.911367,1228.526
549,0.913033,1228.526
550,0.9147,1225.62
551,0.916367,1225.77
552,0.91805,1226.217
553,0.9197,1226.217
554,0.921367,1226.887
555,0.923033,1229.346
556,0.9247,1229.271
557,0.9263670000000001,1229.271
558,0.928033,1227.483
559,0.9297,1223.236
560,0.9313669999999999,1221.821
561,0.933033,1221.821
562,0.9347,1224.875
563,0.9363669999999999,1223.162
564,0.938033,1225.248
565,0.9397,1225.248
566,0.941367,1224.354
567,0.943033,1220.554
568,0.9447,1220.554
569,0.946367,1222.789
570,0.948033,1220.629
571,0.9497,1221.97
572,0.951367,1221.97
573,0.953033,1223.013
574,0.9547,1219.809
575,0.95635,1218.021
576,0.958017,1218.021
577,0.959683,1217.574
578,0.96135,1216.158
579,0.963017,1216.754
580,0.964683,1216.754
581,0.96635,1216.009
582,0.968017,1213.849
583,0.969683,1213.849
584,0.971433,1211.241
585,0.973017,1209.304
586,0.974683,1212.582
587,0.9763500000000001,1212.582
588,0.978017,1212.433
589,0.979683,1214.594
590,0.9813499999999999,1214.37
591,0.983,1214.37
592,0.984667,1212.806
593,0.986333,1212.06
594,0.988067,1215.115
595,0.989733,1215.115
596,0.991333,1216.754
597,0.993,1214.892
598,0.994667,1214.221
599,0.996333,1214.221
600,0.998,1211.315
601,0.999667,1211.539
602,1.00135,1211.539
603,1.003,1212.88
604,1.004783,1213.998
605,1.006333,1214.519
606,1.008,1214.519
607,1.009667,1214.296
608,1.011333,1214.37
609,1.013,1215.562
610,1.014667,1215.562
611,1.016317,1214.817
612,1.017983,1215.041
613,1.01965,1216.382
614,1.021317,1216.382
615,1.022983,1213.7
616,1.02465,1213.551
617,1.026317,1213.551
618,1.027983,1210.868
619,1.02965,1207.963
620,1.031317,1209.229
621,1.032983,1209.229
622,1.03465,1211.39
623,1.036317,1213.625
624,1.037983,1212.656
625,1.03965,1212.656
626,1.041317,1210.272
627,1.042983,1205.951
628,1.04465,1205.653
629,1.046317,1205.653
630,1.047983,1207.367
631,1.04965,1208.857
632,1.051317,1208.857
633,1.052983,1210.049
634,1.05465,1209.155
635,1.056317,1207.367
636,1.057983,1207.367
637,1.05965,1208.559
638,1.061333,1205.802
639,1.063,1206.1
640,1.06465,1206.1
641,1.066317,1205.876
642,1.067983,1202.449
643,1.06965,1206.398
644,1.071317,1206.398
645,1.072983,1205.206
646,1.07465,1205.727
647,1.076317,1205.131
648,1.077967,1205.131
649,1.079633,1202.896
650,1.0813,1201.332
651,1.082967,1201.332
652,1.084633,1200.214
653,1.0863,1202.747
654,1.087967,1205.057
655,1.089633,1205.057
656,1.0913,1205.28
657,1.092967,1205.131
658,1.094633,1205.355
659,1.0963,1205.355
660,1.097967,1202.002
661,1.099633,1201.555
662,1.1013,1203.269
663,1.102967,1203.269
664,1.104633,1200.289
665,1.106333,1200.661
666,1.107967,1200.661
667,1.109633,1203.418
668,1.1113,1202.226
669,1.112967,1203.418
670,1.114633,1203.418
671,1.1163,1206.771
672,1.117967,1203.716
673,1.119633,1203.567
674,1.1213,1203.567
675,1.123017,1202.747
676,1.124633,1199.618
677,1.1263,1202.077
678,1.127967,1202.077
679,1.129633,1202.971
680,1.1313,1204.014
681,1.132967,1203.79
682,1.134617,1203.79
683,1.136283,1202.598
684,1.137983,1204.908
685,1.139667,1204.908
686,1.141317,1206.398
687,1.14295,1205.727
688,1.144617,1207.367
689,1.146283,1207.367
690,1.14795,1204.759
691,1.149617,1203.269
692,1.151283,1204.833
693,1.15295,1204.833
694,1.154617,1203.269
695,1.156283,1204.163
696,1.15795,1204.759
697,1.159617,1204.759
698,1.161283,1203.716
699,1.16295,1202.449
700,1.164617,1202.449
701,1.166283,1202.524
702,1.16795,1200.512
703,1.169617,1201.332
704,1.171283,1201.332
705,1.17295,1200.661
706,1.174617,1199.916
707,1.176283,1200.14
708,1.17795,1200.14
709,1.179617,1198.128
710,1.181283,1199.469
711,1.18295,1199.99
712,1.184617,1199.99
713,1.186283,1200.885
714,1.18795,1201.853
715,1.189617,1198.798
716,1.191283,1198.798
717,1.19295,1197.085
718,1.194617,1198.053
719,1.196267,1198.053
720,1.197933,1199.469
721,1.1996,1201.928
722,1.201267,1204.908
723,1.202933,1204.908
724,1.2046,1203.716
725,1.2063,1202.598
726,1.208,1202.077
727,1.2096,1202.077
728,1.211267,1200.065
729,1.212933,1198.649
730,1.2146,1196.563
731,1.216267,1196.563
732,1.217933,1196.936
733,1.2196,1197.83
734,1.221267,1197.83
735,1.222933,1198.351
736,1.2246,1199.543
737,1.226267,1199.842
738,1.227933,1199.842
739,1.229617,1196.414
740,1.231267,1196.414
741,1.232933,1197.532
742,1.2346,1197.532
743,1.236267,1195.371
744,1.237933,1195.595
745,1.2396,1193.359
746,1.241367,1193.359
747,1.242933,1192.018
748,1.2446,1192.465
749,1.246267,1193.136
750,1.247933,1193.136
751,1.2496,1195.073
752,1.251267,1193.136
753,1.252933,1193.136
754,1.2546,1194.403
755,1.25625,1194.775
756,1.257917,1195.222
757,1.259583,1195.222
758,1.26125,1194.626
759,1.262917,1191.571
760,1.264583,1191.199
761,1.26625,1191.199
762,1.267917,1189.038
763,1.269583,1188.293
764,1.27125,1188.591
765,1.272917,1188.591
766,1.274567,1187.697
767,1.276233,1187.921
768,1.2779,1187.921
769,1.2796,1188.293
770,1.281233,1187.548
771,1.2829,1186.43
772,1.284567,1186.43
773,1.286233,1184.493
774,1.2879,1185.983
775,1.289567,1189.336
776,1.291233,1189.336
777,1.2929,1191.795
778,1.294567,1194.85
779,1.296233,1194.924
780,1.2979,1194.924
781,1.299567,1192.316
782,1.301233,1189.783
783,1.3029,1189.783
784,1.304567,1190.826
785,1.306233,1192.391
786,1.3079,1194.179
787,1.309567,1194.179
788,1.311233,1196.414
789,1.3129,1193.434
790,1.314567,1190.305
791,1.316217,1190.305
792,1.317883,1190.901
793,1.31955,1189.709
794,1.321217,1190.901
795,1.322883,1190.901
796,1.32455,1191.422
797,1.3263,1188.964
798,1.327883,1189.932
799,1.32955,1189.932
800,1.331217,1188.293
801,1.332883,1189.56
802,1.33455,1189.56
803,1.336217,1189.783
804,1.337883,1190.528
805,1.33955,1193.434
806,1.341217,1193.434
807,1.342917,1196.191
808,1.34455,1195.893
809,1.346217,1192.614
810,1.347883,1192.614
811,1.349567,1191.571
812,1.35125,1191.05
813,1.352883,1192.54
814,1.35455,1192.54
815,1.356217,1194.254
816,1.357883,1193.21
817,1.359667,1191.571
818,1.361233,1191.571
819,1.362883,1189.783
820,1.36455,1192.689
821,1.366217,1192.689
822,1.367883,1194.999
823,1.36955,1193.136
824,1.371217,1192.912
825,1.372883,1192.912
826,1.37455,1187.623
827,1.3762,1183.823
828,1.377867,1183.525
829,1.379533,1183.525
830,1.3812,1185.834
831,1.382867,1187.101
832,1.384533,1187.921
833,1.3862,1187.921
834,1.387867,1190.007
835,1.389533,1187.697
836,1.3912,1187.697
837,1.392867,1187.995
838,1.394533,1189.783
839,1.3962,1190.752
840,1.397867,1190.752
841,1.399533,1192.391
842,1.4012,1191.72
843,1.402867,1191.944
844,1.40455,1191.944
845,1.4062,1187.995
846,1.407867,1188.591
847,1.409533,1188.293
848,1.4112,1188.293
849,1.412867,1186.729
850,1.414533,1189.411
851,1.4162,1189.411
852,1.417883,1190.23
853,1.419533,1192.689
854,1.4212,1192.763
855,1.422867,1192.763
856,1.424533,1191.795
857,1.426217,1190.677
858,1.427867,1191.124
859,1.429533,1191.124
860,1.4312,1189.783
861,1.432867,1190.23
862,1.434533,1188.368
863,1.436183,1188.368
864,1.43785,1185.909
865,1.439517,1186.729
866,1.441183,1186.729
867,1.44285,1185.089
868,1.444583,1187.697
869,1.446183,1189.858
870,1.44785,1189.858
871,1.449517,1190.081
872,1.451183,1189.262
873,1.45285,1186.729
874,1.454517,1186.729
875,1.456183,1184.94
876,1.45785,1183.003
877,1.459517,1183.227
878,1.461183,1183.227
879,1.46285,1183.376
880,1.464517,1181.96
881,1.466183,1182.407
882,1.46785,1182.407
883,1.469517,1182.705
884,1.471183,1182.407
885,1.47285,1182.407
886,1.474517,1184.568
887,1.476183,1187.548
888,1.477967,1188.666
889,1.479517,1188.666
890,1.481183,1191.497
891,1.48285,1192.763
892,1.484517,1191.273
893,1.486183,1191.273
894,1.48785,1191.869
895,1.489517,1187.697
896,1.491183,1184.642
897,1.49285,1184.642
898,1.494517,1183.599
899,1.496183,1183.897
900,1.4979,1184.344
901,1.4995,1184.344
902,1.501167,1183.823
903,1.502833,1183.748
904,1.5045,1183.748
905,1.506167,1182.109
906,1.507833,1183.152
907,1.5095,1183.972
908,1.511167,1183.972
909,1.512833,1183.525
910,1.5145,1180.843
911,1.516167,1180.321
912,1.517833,1180.321
913,1.519517,1178.682
914,1.521167,1179.054
915,1.522833,1180.843
916,1.5245,1180.843
917,1.526167,1183.897
918,1.527833,1185.387
919,1.5295,1185.387
920,1.531167,1186.207
