"ID","sea_time","fid_signal"
1,0,1181.588
2,0.001667,1181.588
3,0.00345,1180.396
4,0.005,1182.035
5,0.006667,1183.897
6,0.008333,1183.897
7,0.01,1183.972
8,0.011667,1184.568
9,0.013333,1184.568
10,0.015,1183.152
11,0.016667,1184.568
12,0.018333,1185.313
13,0.02,1185.313
14,0.021667,1188.442
15,0.023333,1186.952
16,0.025,1183.45
17,0.026667,1183.45
18,0.028333,1180.619
19,0.03,1178.607
20,0.031667,1178.905
21,0.033333,1178.905
22,0.035017,1181.141
23,0.036667,1183.599
24,0.038333,1183.301
25,0.04,1183.301
26,0.041667,1183.972
27,0.043333,1183.152
28,0.045,1183.152
29,0.04665,1181.811
30,0.048317,1183.674
31,0.049983,1183.823
32,0.05165,1183.823
33,0.053317,1186.058
34,0.055,1185.164
35,0.056683,1183.525
36,0.058317,1183.525
37,0.059983,1182.78
38,0.06165,1179.278
39,0.063317,1179.054
40,0.064983,1179.054
41,0.06665,1178.607
42,0.068317,1177.341
43,0.069983,1177.341
44,0.07165000000000001,1178.309
45,0.07331699999999999,1178.756
46,0.07498299999999999,1176.968
47,0.07665,1176.968
48,0.078317,1178.831
49,0.079983,1179.65
50,0.08165,1178.607
51,0.083317,1178.607
52,0.084983,1177.788
53,0.08665,1174.807
54,0.08831700000000001,1174.51
55,0.08998299999999999,1174.51
56,0.09165,1174.435
57,0.093317,1176.894
58,0.094983,1181.215
59,0.09665,1181.215
60,0.098317,1179.799
61,0.099983,1180.246
62,0.10165,1180.246
63,0.103317,1180.768
64,0.104967,1179.129
65,0.10665,1180.545
66,0.1083,1180.545
67,0.109967,1182.109
68,0.111633,1183.674
69,0.1133,1182.854
70,0.114967,1182.854
71,0.116633,1181.439
72,0.1183,1179.054
73,0.119967,1178.086
74,0.12175,1178.086
75,0.1233,1179.725
76,0.124967,1180.693
77,0.126633,1180.693
78,0.1283,1184.046
79,0.129967,1183.301
80,0.131633,1182.407
81,0.1333,1182.407
82,0.134967,1180.843
83,0.136633,1176.596
84,0.1383,1176.372
85,0.139967,1176.372
86,0.141633,1178.905
87,0.1433,1182.929
88,0.144967,1184.344
89,0.146667,1184.344
90,0.1483,1183.227
91,0.149967,1182.333
92,0.151633,1178.309
93,0.1533,1178.309
94,0.154967,1180.321
95,0.156633,1180.843
96,0.1583,1180.843
97,0.159967,1178.086
98,0.161633,1180.619
99,0.1633,1180.619
100,0.164967,1180.619
101,0.166633,1185.387
102,0.168283,1190.528
103,0.16995,1189.187
104,0.1716,1189.187
105,0.173267,1189.56
106,0.174933,1186.952
107,0.176617,1181.737
108,0.1783,1181.737
109,0.179933,1181.811
110,0.1816,1180.693
111,0.183267,1180.693
112,0.184933,1180.023
113,0.1866,1180.768
114,0.188267,1181.737
115,0.189933,1181.737
116,0.1916,1178.607
117,0.193267,1178.16
118,0.194933,1179.278
119,0.1966,1179.278
120,0.198267,1178.235
121,0.199933,1179.948
122,0.2016,1180.097
123,0.203267,1180.097
124,0.204933,1178.98
125,0.20665,1179.427
126,0.208267,1179.427
127,0.209933,1182.407
128,0.2116,1181.588
129,0.213267,1184.121
130,0.214933,1184.121
131,0.2166,1183.525
132,0.218267,1180.172
133,0.219933,1179.501
134,0.2216,1179.501
135,0.223283,1176.745
136,0.224933,1176.67
137,0.226583,1178.384
138,0.22825,1178.384
139,0.229917,1179.948
140,0.231583,1182.482
141,0.23325,1184.27
142,0.234917,1184.27
143,0.236583,1186.058
144,0.23825,1186.654
145,0.240033,1184.121
146,0.241583,1184.121
147,0.24325,1182.556
148,0.244917,1178.756
149,0.246583,1178.756
150,0.24825,1178.607
151,0.249917,1180.023
152,0.251583,1179.278
153,0.253283,1179.278
154,0.254917,1181.141
155,0.256583,1182.556
156,0.25825,1181.29
157,0.259917,1181.29
158,0.261583,1181.066
159,0.26325,1180.693
160,0.264917,1180.693
161,0.266583,1178.384
162,0.26825,1180.246
163,0.269917,1183.674
164,0.271583,1183.674
165,0.27325,1183.45
166,0.274917,1183.897
167,0.276583,1182.333
168,0.27825,1182.333
169,0.279917,1182.333
170,0.281583,1182.929
171,0.28325,1181.513
172,0.284917,1181.513
173,0.286567,1180.321
174,0.288233,1179.799
175,0.2899,1182.184
176,0.291567,1182.184
177,0.293233,1186.356
178,0.2949,1187.474
179,0.296583,1187.474
180,0.298233,1186.207
181,0.2999,1181.96
182,0.301567,1176.819
183,0.303233,1176.819
184,0.3049,1178.309
185,0.306567,1179.278
186,0.308233,1179.948
187,0.309933,1179.948
188,0.311567,1180.992
189,0.313233,1178.011
190,0.3149,1175.851
191,0.316567,1175.851
192,0.318233,1175.553
193,0.3199,1176.596
194,0.321567,1176.596
195,0.32325,1178.011
196,0.3249,1176.596
197,0.326567,1177.788
198,0.328233,1177.788
199,0.3299,1179.501
200,0.331567,1181.811
201,0.333233,1187.101
202,0.3349,1187.101
203,0.336567,1187.548
204,0.338233,1186.058
205,0.3399,1184.344
206,0.341567,1184.344
207,0.343233,1181.513
208,0.344883,1180.47
209,0.34655,1180.47
210,0.348217,1179.427
211,0.349883,1179.203
212,0.35155,1176.298
213,0.353217,1176.298
214,0.354883,1175.925
215,0.35655,1176.074
216,0.358317,1176.298
217,0.359883,1176.298
218,0.36155,1179.278
219,0.363217,1177.341
220,0.364883,1176.745
221,0.36655,1176.745
222,0.368217,1176.819
223,0.369883,1173.69
224,0.37155,1175.702
225,0.373217,1175.702
226,0.374883,1176.298
227,0.37655,1176.745
228,0.378217,1176.745
229,0.379883,1180.097
230,0.38155,1180.321
231,0.383217,1180.693
232,0.384883,1180.693
233,0.38655,1180.992
234,0.388217,1177.49
235,0.389883,1175.404
236,0.39155,1175.404
237,0.393217,1174.063
238,0.394883,1170.561
239,0.39655,1172.349
240,0.398233,1172.349
241,0.399883,1174.957
242,0.40155,1177.49
243,0.40325,1181.588
244,0.404867,1181.588
245,0.40655,1187.474
246,0.4082,1194.85
247,0.409867,1194.85
248,0.411533,1204.833
249,0.4132,1224.95
250,0.414867,1252.815
251,0.416533,1252.815
252,0.4182,1295.283
253,0.419867,1360.7
254,0.421533,1456.439
255,0.4232,1456.439
256,0.424867,1592.115
257,0.426533,1788.139
258,0.4282,2058.074
259,0.429867,2058.074
260,0.431533,2421.141
261,0.4332,2899.841
262,0.434867,2899.841
263,0.436533,3512.651
264,0.4382,4282.296
265,0.439867,5225.39
266,0.441533,5225.39
267,0.44325,6357.655
268,0.444867,7686.019
269,0.446533,9218.603999999999
270,0.4482,9218.603999999999
271,0.449867,10954.663
272,0.451533,12885.928
273,0.4532,15005.842
274,0.454867,15005.842
275,0.456533,17300.695
276,0.4582,19743.889
277,0.459867,19743.889
278,0.461533,22314.041
279,0.463183,24971.664
280,0.46485,27670.859
281,0.4665,27670.859
282,0.468167,30374.75
283,0.469833,33031.852
284,0.471517,35589.039
285,0.473167,35589.039
286,0.474833,37998.258
287,0.4766,40205.645
288,0.478167,42165.219
289,0.479833,42165.219
290,0.4815,43838.246
291,0.483167,45191.645
292,0.484833,46207.234
293,0.4865,46207.234
294,0.488167,46874.805
295,0.489833,47196.523
296,0.4915,47196.523
297,0.493167,47182.367
298,0.494833,46847.461
299,0.4965,46222.211
300,0.498167,46222.211
301,0.499833,45337.676
302,0.5014999999999999,44227.094
303,0.503167,42929.426
304,0.504833,42929.426
305,0.5065,41479.02
306,0.508167,39911.344
307,0.509833,38263.574
308,0.5115,38263.574
309,0.513167,36562.16
310,0.514833,34835.191
311,0.5165,34835.191
312,0.518167,33110.453
313,0.519833,31404.496
314,0.5215,29736.385
315,0.523167,29736.385
316,0.524833,28118.119
317,0.526483,26554.391
318,0.52815,25055.334
319,0.529817,25055.334
320,0.531483,23624.301
321,0.53315,22264.793
322,0.534817,20975.023
323,0.536483,20975.023
324,0.53815,19757.076
325,0.539817,18608.123
326,0.541533,17526.895
327,0.54315,17526.895
328,0.544817,16516
329,0.5464830000000001,15567.02
330,0.54815,15567.02
331,0.549817,14683.083
332,0.5514829999999999,13852.79
333,0.55315,13078.079
334,0.554817,13078.079
335,0.5564829999999999,12352.243
336,0.55815,11674.836
337,0.559817,11046.23
338,0.561567,11046.23
339,0.56315,10457.858
340,0.564817,9911.284
341,0.566483,9401.440000000001
342,0.56815,9401.440000000001
343,0.569817,8924.901
344,0.571483,8479.432000000001
345,0.57315,8479.432000000001
346,0.574817,8067.116
347,0.576483,7678.345
348,0.57825,7313.416
349,0.579817,7313.416
350,0.581483,6973.296
351,0.5831499999999999,6652.102
352,0.584817,6355.792
353,0.586467,6355.792
354,0.588133,6083.623
355,0.5898,5828.664
356,0.591467,5592.704
357,0.593133,5592.704
358,0.594917,5368.963
359,0.596467,5159.75
360,0.598133,5159.75
361,0.5998,4964.471
362,0.601467,4781.41
363,0.603133,4608.78
364,0.6048,4608.78
365,0.606467,4445.463
366,0.608133,4291.162
367,0.6098,4148.26
368,0.611467,4148.26
369,0.613133,4014.149
370,0.6148,3885.031
371,0.616467,3769.025
372,0.618167,3769.025
373,0.6198,3656.149
374,0.621467,3550.947
375,0.623133,3452.45
376,0.6248,3452.45
377,0.626467,3356.114
378,0.6281330000000001,3267.899
379,0.6298,3267.899
380,0.631467,3185.57
381,0.6331329999999999,3109.798
382,0.6348,3037.602
383,0.636467,3037.602
384,0.638133,2967.939
385,0.6398,2902.523
386,0.641467,2838.671
387,0.643133,2838.671
388,0.6448,2779.812
389,0.6465,2724.007
390,0.6481170000000001,2670.139
391,0.649783,2670.139
392,0.65145,2621.412
393,0.6531169999999999,2571.419
394,0.654783,2571.419
395,0.65645,2526.417
396,0.658117,2480.522
397,0.659783,2435.297
398,0.66145,2435.297
399,0.663117,2395.809
400,0.664783,2355.352
401,0.66645,2319.664
402,0.668117,2319.664
403,0.669783,2287.701
404,0.67145,2256.259
405,0.673117,2221.838
406,0.674783,2221.838
407,0.67645,2191.514
408,0.678117,2160.296
409,0.679833,2129.525
410,0.68145,2129.525
411,0.683117,2104.118
412,0.68485,2077.818
413,0.68645,2077.818
414,0.688117,2053.827
415,0.689783,2031.997
416,0.69145,2011.88
417,0.693117,2011.88
418,0.694783,1990.199
419,0.6965,1969.933
420,0.698117,1949.221
421,0.699783,1949.221
422,0.70145,1927.54
423,0.703117,1908.839
424,0.704783,1889.616
425,0.706433,1889.616
426,0.7081,1871.064
427,0.709767,1857.504
428,0.711433,1857.504
429,0.71315,1840.144
430,0.714767,1824.349
431,0.716433,1811.311
432,0.7181,1811.311
433,0.719767,1793.802
434,0.721433,1782.626
435,0.7231,1769.14
436,0.7247670000000001,1769.14
437,0.726433,1753.271
438,0.7281,1739.487
439,0.7298829999999999,1727.119
440,0.731433,1727.119
441,0.7331,1714.826
442,0.7347669999999999,1707.897
443,0.736433,1700.073
444,0.738133,1700.073
445,0.739767,1688.451
446,0.741433,1680.255
447,0.7431,1680.255
448,0.744767,1668.483
449,0.746433,1656.711
450,0.7481,1647.323
451,0.749767,1647.323
452,0.751433,1638.904
453,0.753117,1629.069
454,0.75475,1620.874
455,0.756417,1620.874
456,0.758083,1611.561
457,0.75975,1603.737
458,0.761417,1598.82
459,0.763117,1598.82
460,0.76475,1590.997
461,0.7664,1583.323
462,0.7680670000000001,1583.323
463,0.769733,1573.339
464,0.7714,1561.418
465,0.7730669999999999,1553.446
466,0.774733,1553.446
467,0.7764,1546.443
468,0.778067,1540.855
469,0.779733,1539.29
470,0.7814,1539.29
471,0.783067,1537.204
472,0.784733,1534.149
473,0.7864,1526.698
474,0.788067,1526.698
475,0.789733,1519.918
476,0.7914,1511.201
477,0.793067,1511.201
478,0.794733,1502.41
479,0.7964,1500.696
480,0.798067,1494.139
481,0.799733,1494.139
482,0.8014,1488.179
483,0.803067,1486.167
484,0.804733,1481.771
485,0.8064,1481.771
486,0.808067,1479.983
487,0.809733,1478.046
488,0.8114,1472.682
489,0.813067,1472.682
490,0.814833,1468.584
491,0.8164,1464.635
492,0.818067,1462.102
493,0.819733,1462.102
494,0.8214,1460.612
495,0.823067,1455.322
496,0.824733,1455.322
497,0.826383,1448.765
498,0.82805,1440.495
499,0.829717,1436.025
500,0.831467,1436.025
501,0.83305,1434.162
502,0.8347329999999999,1431.778
503,0.83645,1432.523
504,0.83805,1432.523
505,0.839717,1428.798
506,0.841383,1423.359
507,0.84305,1418.144
508,0.8447170000000001,1418.144
509,0.846383,1416.057
510,0.848167,1412.705
511,0.8497169999999999,1412.705
512,0.851383,1411.289
513,0.85305,1408.458
514,0.8547169999999999,1403.242
515,0.856383,1403.242
516,0.85805,1400.635
517,0.859717,1396.239
518,0.861383,1394.525
519,0.86305,1394.525
520,0.864717,1389.757
521,0.866383,1384.02
522,0.86805,1379.55
523,0.869717,1379.55
524,0.871383,1379.401
525,0.87305,1380.891
526,0.874717,1380.518
527,0.876383,1380.518
528,0.87805,1382.306
529,0.879717,1378.804
530,0.881383,1378.804
531,0.88305,1374.93
532,0.884717,1371.875
533,0.886367,1366.287
534,0.888033,1366.287
535,0.8897,1361.072
536,0.891367,1359.358
537,0.893033,1358.39
538,0.8947000000000001,1358.39
539,0.896367,1356.378
540,0.898033,1355.41
541,0.899733,1352.429
542,0.901367,1352.429
543,0.90305,1348.63
544,0.9047500000000001,1347.065
545,0.906367,1347.065
546,0.908033,1347.512
547,0.9097,1346.32
548,0.911367,1349.077
549,0.913033,1349.077
550,0.9147,1350.865
551,0.916367,1346.394
552,0.918033,1342.595
553,0.9197,1342.595
554,0.921367,1339.763
555,0.923033,1336.187
556,0.9247,1336.187
557,0.9263670000000001,1336.187
558,0.92805,1335.07
559,0.9297,1331.642
560,0.9313669999999999,1329.631
561,0.93305,1329.631
562,0.9347,1327.991
563,0.9363669999999999,1327.843
564,0.938033,1327.843
565,0.9397,1327.395
566,0.941367,1326.501
567,0.943033,1324.862
568,0.9447,1324.862
569,0.94635,1324.862
570,0.948017,1323.074
571,0.949733,1320.392
572,0.95135,1320.392
573,0.953017,1319.572
574,0.9546829999999999,1316.443
575,0.95635,1313.537
576,0.958017,1313.537
577,0.959683,1312.569
578,0.96135,1311.675
579,0.963017,1311.675
580,0.964683,1310.334
581,0.966483,1312.569
582,0.968017,1313.463
583,0.969683,1313.463
584,0.97135,1313.984
585,0.973017,1313.239
586,0.974683,1311.6
587,0.9763500000000001,1311.6
588,0.97805,1309.887
589,0.979683,1305.64
590,0.9814000000000001,1304.373
591,0.983017,1304.373
592,0.984683,1303.256
593,0.9863499999999999,1299.456
594,0.988017,1299.456
595,0.989683,1299.828
596,0.99135,1298.711
597,0.993017,1294.613
598,0.994683,1294.613
599,0.99635,1291.856
600,0.998017,1288.205
601,0.999683,1284.927
602,1.00135,1284.927
603,1.003017,1285.449
604,1.004683,1288.503
605,1.006333,1289.696
606,1.008,1289.696
607,1.009667,1291.409
608,1.011333,1292.303
609,1.013,1291.484
610,1.014667,1291.484
611,1.016333,1289.025
612,1.018,1285.374
613,1.019667,1285.374
614,1.021333,1280.084
615,1.023,1280.904
616,1.024667,1281.351
617,1.026333,1281.351
618,1.028,1283.81
619,1.029667,1285.225
620,1.031333,1280.68
621,1.033,1280.68
622,1.034683,1279.265
623,1.036333,1275.763
624,1.038,1275.018
625,1.039667,1275.018
626,1.041333,1275.688
627,1.043017,1273.379
628,1.044667,1273.379
629,1.046317,1274.124
630,1.047983,1273.006
631,1.04965,1272.559
632,1.051317,1272.559
633,1.052983,1275.167
634,1.05465,1274.943
635,1.056317,1277.178
636,1.057983,1277.178
637,1.05965,1273.826
638,1.061317,1272.336
639,1.062983,1272.783
640,1.06465,1272.783
641,1.0663,1268.536
642,1.067967,1267.791
643,1.069633,1266.301
644,1.0713,1266.301
645,1.072967,1265.556
646,1.074633,1266.226
647,1.0763,1266.226
648,1.077967,1266.003
649,1.079633,1266.599
650,1.0813,1263.022
651,1.082967,1263.022
652,1.084733,1263.842
653,1.0863,1265.928
654,1.087967,1263.842
655,1.089633,1263.842
656,1.0913,1265.481
657,1.092967,1264.513
658,1.094633,1264.066
659,1.0963,1264.066
660,1.097967,1266.45
661,1.099633,1266.152
662,1.1013,1266.152
663,1.102983,1265.332
664,1.104633,1263.917
665,1.1063,1262.724
666,1.107967,1262.724
667,1.109633,1261.011
668,1.1113,1260.042
669,1.112967,1261.309
670,1.114633,1261.309
671,1.1163,1257.36
672,1.117967,1254.156
673,1.119633,1253.411
674,1.121333,1253.411
675,1.122983,1250.878
676,1.124633,1252.517
677,1.126283,1252.517
678,1.12795,1252.89
679,1.129617,1252.964
680,1.131283,1251.772
681,1.13295,1251.772
682,1.134617,1250.878
683,1.136283,1251.25
684,1.13795,1250.505
685,1.139617,1250.505
686,1.141283,1252.666
687,1.14295,1254.901
688,1.144617,1256.168
689,1.146283,1256.168
690,1.14795,1257.286
691,1.149617,1254.454
692,1.151283,1250.58
693,1.15295,1250.58
694,1.154617,1251.623
695,1.156283,1250.505
696,1.15795,1250.505
697,1.159617,1250.58
698,1.161283,1248.643
699,1.16295,1246.78
700,1.164617,1246.78
701,1.166283,1245.141
702,1.16795,1244.47
703,1.1697,1245.067
704,1.171283,1245.067
705,1.17295,1243.353
706,1.174617,1241.49
707,1.176283,1239.553
708,1.17795,1239.553
709,1.179617,1240.298
710,1.181283,1241.416
711,1.18295,1241.416
712,1.184617,1244.545
713,1.186317,1245.216
714,1.187933,1242.459
715,1.189617,1242.459
716,1.191317,1241.565
717,1.192933,1238.286
718,1.1946,1238.584
719,1.196267,1238.584
720,1.197933,1244.321
721,1.199633,1245.216
722,1.201267,1244.396
723,1.20305,1244.396
724,1.2046,1246.929
725,1.206267,1243.055
726,1.207933,1242.012
727,1.2096,1242.012
728,1.211267,1241.788
729,1.212933,1238.51
730,1.2146,1238.51
731,1.216267,1239.33
732,1.217933,1237.318
733,1.2196,1237.989
734,1.221267,1237.989
735,1.222933,1237.169
736,1.2246,1237.616
737,1.226267,1236.945
738,1.227933,1236.945
739,1.2296,1236.051
740,1.231267,1238.063
741,1.232933,1238.659
742,1.2346,1238.659
743,1.236267,1238.286
744,1.237933,1239.404
745,1.2396,1239.404
746,1.241267,1236.871
747,1.242933,1234.785
748,1.2446,1236.051
749,1.24625,1236.051
750,1.247917,1235.157
751,1.249583,1235.53
752,1.25125,1234.71
753,1.252917,1234.71
754,1.254583,1232.848
755,1.25625,1230.761
756,1.257917,1230.687
757,1.259583,1230.687
758,1.26125,1229.346
759,1.26295,1228.601
760,1.264583,1230.016
761,1.26625,1230.016
762,1.267917,1228.228
763,1.269583,1225.919
764,1.27125,1225.919
765,1.272917,1228.303
766,1.274583,1228.005
767,1.27625,1229.346
768,1.27795,1229.346
769,1.279583,1232.401
770,1.28125,1232.177
771,1.282917,1231.283
772,1.284583,1231.283
773,1.28625,1233.22
774,1.287967,1232.475
775,1.289583,1231.804
776,1.29125,1231.804
777,1.292917,1231.656
778,1.294583,1230.389
779,1.29625,1230.389
780,1.297917,1230.836
781,1.299583,1229.271
782,1.30125,1230.91
783,1.302917,1230.91
784,1.304567,1229.569
785,1.306233,1226.217
786,1.3079,1228.675
787,1.309567,1228.675
788,1.311233,1225.844
789,1.3129,1225.024
790,1.314567,1224.95
791,1.316233,1224.95
792,1.3179,1221.97
793,1.319567,1221.15
794,1.32135,1219.586
795,1.3229,1219.586
796,1.324567,1219.66
797,1.326233,1219.66
798,1.3279,1219.66
799,1.329567,1221.15
800,1.33125,1223.758
801,1.3329,1226.068
802,1.334567,1226.068
803,1.336233,1228.228
804,1.337883,1228.079
805,1.33955,1224.428
806,1.341267,1224.428
807,1.342883,1221.895
808,1.34455,1215.339
809,1.346217,1214.519
810,1.347883,1214.519
811,1.34955,1216.456
812,1.351217,1218.021
813,1.352883,1218.021
814,1.35455,1223.236
815,1.356217,1224.875
816,1.357883,1225.77
817,1.35955,1225.77
818,1.361217,1225.919
819,1.362883,1226.515
820,1.36455,1224.503
821,1.366233,1224.503
822,1.367917,1222.64
823,1.369533,1220.778
824,1.3712,1221.15
825,1.372867,1221.15
826,1.374533,1221.374
827,1.3762,1221.448
828,1.377867,1221.448
829,1.379533,1220.703
830,1.3812,1218.915
831,1.382867,1214.817
832,1.384533,1214.817
833,1.3862,1213.998
834,1.387867,1214.817
835,1.389533,1213.402
836,1.3912,1213.402
837,1.392867,1215.19
838,1.394533,1215.637
839,1.3962,1216.68
840,1.397867,1216.68
841,1.399533,1217.574
842,1.4012,1218.393
843,1.402867,1217.574
844,1.404533,1217.574
845,1.406283,1215.488
846,1.407867,1215.935
847,1.409533,1215.935
848,1.4112,1219.884
849,1.412867,1222.64
850,1.414533,1222.789
851,1.4162,1222.789
852,1.417867,1222.193
853,1.419533,1218.99
854,1.4212,1217.35
855,1.422867,1217.35
856,1.424533,1217.872
857,1.426183,1216.754
858,1.42785,1212.507
859,1.429517,1212.507
860,1.431183,1208.484
861,1.43285,1206.026
862,1.434517,1206.026
863,1.436183,1206.174
864,1.43785,1209.378
865,1.439617,1213.774
866,1.441183,1213.774
867,1.44285,1217.052
868,1.444517,1217.127
869,1.446183,1219.213
870,1.44785,1219.213
871,1.449517,1215.711
872,1.451183,1214.817
873,1.45285,1214.743
874,1.454517,1214.743
875,1.456183,1212.284
876,1.45785,1212.954
877,1.45955,1212.88
878,1.461183,1212.88
879,1.46285,1213.849
880,1.464517,1212.06
881,1.466183,1212.06
882,1.46785,1210.943
883,1.469517,1211.39
884,1.471183,1208.559
885,1.47285,1208.559
886,1.474517,1208.782
887,1.476183,1210.123
888,1.47785,1206.771
889,1.479517,1206.771
890,1.481183,1208.484
891,1.482883,1210.049
892,1.484517,1207.888
893,1.486167,1207.888
894,1.487833,1209.974
895,1.4895,1211.017
896,1.491167,1211.017
897,1.492833,1212.88
898,1.4945,1215.488
899,1.496167,1214.966
900,1.497833,1214.966
901,1.4995,1211.688
902,1.501167,1211.315
903,1.502833,1210.794
904,1.5045,1210.794
905,1.506183,1209.527
906,1.507833,1210.645
907,1.5095,1209.453
908,1.511167,1209.453
909,1.512833,1208.41
910,1.5145,1211.017
911,1.516167,1212.06
912,1.517833,1212.06
913,1.5195,1210.347
914,1.521167,1213.476
915,1.522833,1213.476
916,1.524517,1210.421
917,1.526167,1207.814
918,1.527833,1208.261
919,1.5295,1208.261
