"ID","sea_time","fid_signal"
1,0,1163.706
2,0.001667,1163.706
3,0.003333,1163.408
4,0.005,1162.887
5,0.006667,1158.789
6,0.008333,1158.789
7,0.01,1157.969
8,0.011667,1159.161
9,0.013333,1159.161
10,0.015,1159.906
11,0.016683,1163.632
12,0.018333,1167.282
13,0.02,1167.282
14,0.021667,1168.475
15,0.023333,1168.475
16,0.025,1167.133
17,0.026667,1167.133
18,0.028317,1164.973
19,0.029983,1166.165
20,0.03165,1168.251
21,0.033333,1168.251
22,0.034983,1167.879
23,0.03665,1168.922
24,0.038317,1168.922
25,0.039983,1167.729
26,0.041683,1168.773
27,0.043317,1168.549
28,0.044983,1168.549
29,0.04665,1168.698
30,0.048317,1168.326
31,0.049983,1167.208
32,0.05165,1167.208
33,0.053317,1166.463
34,0.054983,1165.643
35,0.05665,1168.027
36,0.058317,1168.027
37,0.059983,1165.494
38,0.06165,1167.804
39,0.063317,1167.804
40,0.064983,1167.804
41,0.06665,1168.549
42,0.068317,1170.486
43,0.069983,1170.486
44,0.07165000000000001,1169.22
45,0.07331699999999999,1171.529
46,0.07498299999999999,1170.188
47,0.076683,1170.188
48,0.07829999999999999,1172.721
49,0.079967,1175.106
50,0.081633,1175.702
51,0.0833,1175.702
52,0.084967,1175.031
53,0.086633,1171.678
54,0.088283,1169.22
55,0.08995,1169.22
56,0.091617,1165.345
57,0.093283,1164.451
58,0.09495000000000001,1164.451
59,0.096633,1167.133
60,0.098317,1169.145
61,0.09995,1172.721
62,0.101617,1172.721
63,0.103283,1175.18
64,0.10495,1175.776
65,0.106617,1177.117
66,0.108283,1177.117
67,0.11005,1174.807
68,0.111617,1171.306
69,0.113283,1169.518
70,0.11495,1169.518
71,0.116617,1167.282
72,0.1183,1165.42
73,0.11995,1165.42
74,0.121617,1164.675
75,0.123283,1161.993
76,0.12495,1159.683
77,0.126617,1159.683
78,0.128283,1159.236
79,0.12995,1160.577
80,0.131617,1164.973
81,0.133283,1164.973
82,0.13495,1166.537
83,0.136617,1171.455
84,0.138283,1173.466
85,0.13995,1173.466
86,0.141617,1173.765
87,0.143283,1174.957
88,0.14495,1172.125
89,0.146617,1172.125
90,0.148267,1166.835
91,0.149933,1163.259
92,0.1516,1163.259
93,0.153267,1161.247
94,0.154933,1163.483
95,0.1566,1167.432
96,0.158267,1167.432
97,0.159933,1167.58
98,0.1616,1168.177
99,0.163267,1165.569
100,0.164933,1165.569
101,0.1666,1167.804
102,0.168267,1171.529
103,0.169933,1171.753
104,0.1716,1171.753
105,0.173267,1171.008
106,0.174933,1167.432
107,0.1766,1167.432
108,0.178267,1164.675
109,0.179933,1163.93
110,0.181633,1163.185
111,0.183267,1163.185
112,0.184933,1164.302
113,0.18665,1163.706
114,0.188267,1163.706
115,0.189933,1163.706
116,0.1916,1165.122
117,0.193267,1166.463
118,0.194983,1165.643
119,0.1966,1165.643
120,0.198267,1167.282
121,0.199933,1166.686
122,0.2016,1164.898
123,0.203267,1164.898
124,0.204933,1165.569
125,0.206583,1164.302
126,0.208267,1164.302
127,0.209917,1165.196
128,0.211667,1165.122
129,0.21325,1167.879
130,0.214917,1167.879
131,0.216583,1171.157
132,0.21825,1173.69
133,0.219917,1176.372
134,0.221583,1176.372
135,0.22325,1174.137
136,0.224917,1170.933
137,0.226583,1167.879
138,0.228267,1167.879
139,0.229917,1168.624
140,0.231583,1171.827
141,0.23325,1171.827
142,0.234917,1174.51
143,0.236583,1178.458
144,0.23825,1173.541
145,0.239917,1173.541
146,0.241583,1170.859
147,0.24325,1171.157
148,0.244917,1171.306
149,0.246583,1171.306
150,0.24825,1172.721
151,0.249917,1172.796
152,0.251583,1173.168
153,0.25325,1173.168
154,0.254917,1171.604
155,0.256583,1173.168
156,0.25825,1173.541
157,0.259917,1173.541
158,0.2616,1169.741
159,0.26325,1167.133
160,0.264933,1167.133
161,0.266583,1164.228
162,0.268233,1163.408
163,0.2699,1163.781
164,0.271567,1163.781
165,0.273233,1165.047
166,0.2749,1168.027
167,0.276567,1170.337
168,0.278233,1170.337
169,0.2799,1171.231
170,0.281567,1171.827
171,0.283233,1168.847
172,0.2849,1168.847
173,0.286567,1165.196
174,0.288233,1165.792
175,0.2899,1165.792
176,0.291567,1164.302
177,0.293233,1164.675
178,0.2949,1164.675
179,0.296567,1164.675
180,0.298233,1161.695
181,0.2999,1162.365
182,0.301567,1163.557
183,0.303233,1163.557
184,0.3049,1162.887
185,0.306567,1164.079
186,0.308233,1165.867
187,0.3099,1165.867
188,0.311567,1165.271
189,0.313267,1166.984
190,0.3149,1166.984
191,0.316567,1170.784
192,0.318233,1168.102
193,0.3199,1167.804
194,0.321567,1167.804
195,0.323233,1169.592
196,0.3249,1165.122
197,0.32655,1165.569
198,0.328217,1165.569
199,0.33,1169.965
200,0.33155,1168.102
201,0.333233,1169.667
202,0.334933,1169.667
203,0.3366,1172.945
204,0.338217,1168.847
205,0.339883,1168.251
206,0.34155,1168.251
207,0.343217,1168.698
208,0.344883,1166.984
209,0.346567,1166.984
210,0.348217,1166.612
211,0.349883,1169.816
212,0.35155,1171.38
213,0.353217,1171.38
214,0.354883,1168.773
215,0.35655,1170.412
216,0.358217,1171.008
217,0.359883,1171.008
218,0.36155,1168.698
219,0.363333,1169.145
220,0.364883,1167.133
221,0.36655,1167.133
222,0.3682,1163.855
223,0.369867,1162.738
224,0.371533,1162.738
225,0.3732,1160.204
226,0.374867,1161.024
227,0.376533,1160.651
228,0.3782,1160.651
229,0.379867,1161.993
230,0.381533,1164.6
231,0.3832,1167.357
232,0.384867,1167.357
233,0.386517,1170.561
234,0.388183,1172.125
235,0.38985,1174.957
236,0.391517,1174.957
237,0.393183,1172.796
238,0.39485,1170.412
239,0.396517,1171.157
240,0.398183,1171.157
241,0.39985,1172.945
242,0.401517,1173.392
243,0.403183,1173.392
244,0.40485,1176
245,0.40655,1179.054
246,0.408183,1178.309
247,0.40985,1178.309
248,0.411517,1181.364
249,0.413183,1182.854
250,0.41485,1181.439
251,0.41655,1181.439
252,0.418183,1185.238
253,0.41985,1188.517
254,0.421517,1191.124
255,0.423183,1191.124
256,0.42485,1192.465
257,0.426517,1191.944
258,0.428183,1191.944
259,0.42985,1189.932
260,0.431517,1187.623
261,0.433183,1187.399
262,0.43485,1187.399
263,0.436517,1188.368
264,0.438183,1187.921
265,0.43985,1191.199
266,0.441517,1191.199
267,0.443183,1194.701
268,0.44485,1197.457
269,0.446517,1202.077
270,0.44825,1202.077
271,0.449833,1202.524
272,0.4515,1202.673
273,0.453167,1202.673
274,0.454833,1200.587
275,0.4565,1201.183
276,0.458167,1202.151
277,0.459833,1202.151
278,0.4615,1203.12
279,0.463167,1206.1
280,0.464883,1203.492
281,0.4665,1203.492
282,0.468167,1202.3
283,0.469833,1204.312
284,0.4715,1204.833
285,0.473167,1204.833
286,0.474833,1207.665
287,0.4765,1208.782
288,0.478167,1204.312
289,0.479833,1204.312
290,0.481617,1201.928
291,0.483167,1200.14
292,0.48485,1200.14
293,0.4865,1197.681
294,0.488167,1196.34
295,0.489833,1195.595
296,0.4915,1195.595
297,0.493167,1197.83
298,0.494833,1199.469
299,0.4965,1201.63
300,0.498167,1201.63
301,0.499833,1202.524
302,0.5014999999999999,1200.14
303,0.503167,1198.649
304,0.504817,1198.649
305,0.506517,1199.096
306,0.50815,1202.151
307,0.509817,1202.151
308,0.511483,1205.429
309,0.51315,1212.731
310,0.514817,1217.35
311,0.516483,1217.35
312,0.51815,1219.586
313,0.519817,1227.409
314,0.521483,1232.251
315,0.52315,1232.251
316,0.524817,1241.639
317,0.526483,1255.199
318,0.52815,1268.61
319,0.529817,1268.61
320,0.531483,1283.884
321,0.53315,1304.895
322,0.534817,1328.215
323,0.536483,1328.215
324,0.53815,1361.072
325,0.539817,1405.105
326,0.541483,1405.105
327,0.54315,1455.098
328,0.544817,1510.531
329,0.5464830000000001,1577.362
330,0.54815,1577.362
331,0.549833,1653.582
332,0.5514829999999999,1743.436
333,0.55315,1852.587
334,0.554817,1852.587
335,0.5564829999999999,1970.306
336,0.55815,2111.197
337,0.559817,2271.16
338,0.561483,2271.16
339,0.56315,2451.092
340,0.564817,2655.685
341,0.566517,2884.045
342,0.568133,2884.045
343,0.5698,3140.718
344,0.5714669999999999,3433.004
345,0.573133,3433.004
346,0.5748,3756.285
347,0.576467,4109.07
348,0.578133,4496.425
349,0.5798,4496.425
350,0.581467,4912.242
351,0.583183,5365.461
352,0.5848,5857.05
353,0.586467,5857.05
354,0.588133,6383.21
355,0.5898,6942.302
356,0.591467,7538.423
357,0.59315,7538.423
358,0.5948,8165.091
359,0.596467,8822.828
360,0.598133,8822.828
361,0.5998830000000001,9516.924999999999
362,0.601467,10236.576
363,0.603133,10989.159
364,0.6048,10989.159
365,0.606467,11765.957
366,0.608133,12569.055
367,0.6098,13399.198
368,0.611467,13399.198
369,0.613133,14251.545
370,0.6148,15128.404
371,0.616467,16024.411
372,0.618133,16024.411
373,0.6198,16936.586
374,0.621467,17863.215
375,0.623133,17863.215
376,0.6248,18806.234
377,0.626467,19762.59
378,0.628117,20728.484
379,0.629817,20728.484
380,0.6315,21704.063
381,0.633117,22683.889
382,0.634783,23668.408
383,0.63645,23668.408
384,0.638117,24657.621
385,0.639783,25645.271
386,0.64145,26634.186
387,0.643117,26634.186
388,0.644783,27615.727
389,0.64645,28592.422
390,0.6481170000000001,29561.371
391,0.649783,29561.371
392,0.65145,30516.387
393,0.6531169999999999,31461.418
394,0.654783,31461.418
395,0.65645,32391.771
396,0.658117,33306.105
397,0.659767,34203.531
398,0.661433,34203.531
399,0.6631,35080.387
400,0.664767,35931.84
401,0.66645,36758.781
402,0.6681,36758.781
403,0.669767,37553.387
404,0.6714329999999999,38314.91
405,0.6731,39041.563
406,0.674767,39041.563
407,0.676433,39730.668
408,0.6781,40385.5
409,0.679767,40385.5
410,0.681433,41004.793
411,0.6831,41579.156
412,0.684767,42108.445
413,0.6864170000000001,42108.445
414,0.688083,42589.383
415,0.68975,43012.203
416,0.6914169999999999,43384.805
417,0.693083,43384.805
418,0.69475,43698.996
419,0.69645,43954.551
420,0.698083,44155.793
421,0.69975,44155.793
422,0.701417,44291.02
423,0.703083,44360.234
424,0.70475,44360.234
425,0.706417,44361.426
426,0.708083,44286.699
427,0.70975,44139.027
428,0.711417,44139.027
429,0.713083,43923.332
430,0.71475,43636.188
431,0.716417,43280.199
432,0.7181999999999999,43280.199
433,0.71975,42865.277
434,0.721417,42385.086
435,0.723083,41848.199
436,0.72475,41848.199
437,0.726417,41260.273
438,0.728083,40620.117
439,0.72975,39936.602
440,0.731417,39936.602
441,0.733083,39211.734
442,0.73475,38455.875
443,0.736417,38455.875
444,0.738083,37676.172
445,0.73975,36880.152
446,0.741417,36076.828
447,0.743083,36076.828
448,0.74475,35266.727
449,0.7464,34456.402
450,0.748067,33646.82
451,0.749733,33646.82
452,0.7514,32842.383
453,0.753067,32049.715
454,0.754733,31272.023
455,0.7564,31272.023
456,0.758067,30514.523
457,0.75975,29774.234
458,0.7614,29774.234
459,0.7630670000000001,29052.869
460,0.764733,28348.789
461,0.7664,27664.975
462,0.768117,27664.975
463,0.769733,27006.344
464,0.7714,26370.063
465,0.7730669999999999,25753.156
466,0.774733,25753.156
467,0.7764,25158.674
468,0.778067,24581.328
469,0.779733,24021.342
470,0.7814,24021.342
471,0.783067,23485.869
472,0.784733,22960.977
473,0.7864,22455.305
474,0.788067,22455.305
475,0.789733,21965.131
476,0.7914,21491.199
477,0.793067,21491.199
478,0.794733,21039.023
479,0.7964,20599.291
480,0.798067,20175.203
481,0.799733,20175.203
482,0.8014,19764.23
483,0.803133,19368.381
484,0.804733,18985.494
485,0.8064,18985.494
486,0.80805,18614.531
487,0.809717,18255.711
488,0.811383,17906.354
489,0.8130500000000001,17906.354
490,0.814717,17565.266
491,0.816383,17236.695
492,0.8180500000000001,17236.695
493,0.819717,16920.193
494,0.821383,16610.025
495,0.8230499999999999,16314.983
496,0.824717,16314.983
497,0.826383,16027.838
498,0.82805,15747.622
499,0.829717,15474.707
500,0.831383,15474.707
501,0.83305,15210.51
502,0.834717,14951.899
503,0.836483,14699.474
504,0.83805,14699.474
505,0.839733,14455.021
506,0.841417,14211.685
507,0.84305,13980.791
508,0.844767,13980.791
509,0.846383,13753.399
510,0.84805,13533.011
511,0.8497169999999999,13533.011
512,0.851383,13319.999
513,0.85305,13108.179
514,0.8547169999999999,12905.3
515,0.856383,12905.3
516,0.85805,12708.008
517,0.859717,12518.391
518,0.861383,12334.361
519,0.86305,12334.361
520,0.864717,12152.195
521,0.866367,11975.84
522,0.8680330000000001,11800.006
523,0.8697,11800.006
524,0.871367,11626.557
525,0.8730329999999999,11458.174
526,0.8747,11458.174
527,0.876367,11292.473
528,0.878033,11132.955
529,0.8797,10977.238
530,0.881367,10977.238
531,0.883033,10824.8
532,0.8847,10678.098
533,0.886367,10533.929
534,0.888033,10533.929
535,0.8897,10395.571
536,0.891367,10256.916
537,0.893033,10118.708
538,0.8947000000000001,10118.708
539,0.896367,9987.727000000001
540,0.898033,9855.404
541,0.8997000000000001,9855.404
542,0.901367,9730.085999999999
543,0.903033,9607.002
544,0.9046999999999999,9483.023999999999
545,0.906367,9483.023999999999
546,0.908033,9363.964
547,0.909733,9246.841
548,0.911367,9132.772000000001
549,0.913067,9132.772000000001
550,0.9147,9018.778
551,0.916367,8907.169
552,0.918033,8795.708000000001
553,0.9197,8795.708000000001
554,0.921417,8689.091
555,0.923033,8583.516
556,0.9247,8481.368
557,0.92635,8481.368
558,0.928017,8382.797
559,0.929683,8282.811
560,0.93135,8282.811
561,0.933017,8186.996
562,0.934683,8090.585
563,0.93635,7995.665
564,0.938117,7995.665
565,0.939683,7904.917
566,0.94135,7814.765
567,0.943017,7726.401
568,0.9446830000000001,7726.401
569,0.94635,7642.731
570,0.948017,7558.092
571,0.949667,7479.116
572,0.951333,7479.116
573,0.953,7398.203
574,0.954767,7319.003
575,0.956333,7319.003
576,0.958,7239.58
577,0.959667,7158.22
578,0.961333,7084.161
579,0.963,7084.161
580,0.9646670000000001,7006.898
581,0.966333,6932.095
582,0.968,6862.208
583,0.9696669999999999,6862.208
584,0.971333,6790.459
585,0.973,6722.584
586,0.974667,6655.604
587,0.976333,6655.604
588,0.978,6585.792
589,0.979667,6518.141
590,0.981333,6450.266
591,0.983,6450.266
592,0.984667,6386.563
593,0.986333,6323.01
594,0.9880330000000001,6323.01
595,0.98965,6261.17
596,0.991317,6200.149
597,0.9929829999999999,6136.671
598,0.99465,6136.671
599,0.996317,6079.599
600,0.997983,6019.398
601,0.99965,5959.645
602,1.001317,5959.645
603,1.002983,5904.138
604,1.004683,5845.949
605,1.006317,5794.316
606,1.007983,5794.316
607,1.00965,5743.206
608,1.011317,5688.742
609,1.012983,5688.742
610,1.014667,5634.129
611,1.016317,5580.336
612,1.017983,5527.735
613,1.01965,5527.735
614,1.021317,5478.71
615,1.022983,5432.814
616,1.02465,5383.641
617,1.026317,5383.641
618,1.027983,5337.894
619,1.02965,5290.434
620,1.031317,5241.111
621,1.032983,5241.111
622,1.03465,5195.066
623,1.036317,5149.32
624,1.037983,5103.35
625,1.0397,5103.35
626,1.041317,5057.603
627,1.042983,5011.856
628,1.04465,5011.856
629,1.0463,4967.6
630,1.047967,4928.187
631,1.049633,4888.4
632,1.0513,4888.4
633,1.052967,4848.093
634,1.05465,4805.997
635,1.056433,4763.603
636,1.057967,4763.603
637,1.059633,4723.892
638,1.0613,4686.266
639,1.062967,4648.194
640,1.064633,4648.194
641,1.0663,4611.015
642,1.067967,4573.315
643,1.069633,4573.315
644,1.0713,4535.094
645,1.073083,4500.449
646,1.074633,4463.419
647,1.0763,4463.419
648,1.077967,4429.37
649,1.079633,4392.937
650,1.0813,4356.429
651,1.082967,4356.429
652,1.084633,4321.262
653,1.0863,4284.382
654,1.087967,4252.866
655,1.089633,4252.866
656,1.091317,4220.009
657,1.092967,4189.387
658,1.094633,4189.387
659,1.0963,4158.765
660,1.097967,4126.876
661,1.099633,4094.168
662,1.1013,4094.168
663,1.102967,4060.343
664,1.104633,4032.329
665,1.1063,4001.781
666,1.10795,4001.781
667,1.109617,3973.32
668,1.111283,3945.231
669,1.11295,3912.225
670,1.114617,3912.225
671,1.116283,3882.646
672,1.11795,3856.42
673,1.119617,3827.736
674,1.121283,3827.736
675,1.12295,3799.796
676,1.12465,3773.793
677,1.126283,3773.793
678,1.12795,3746.748
679,1.129617,3721.714
680,1.131283,3699.064
681,1.13295,3699.064
682,1.134617,3674.85
683,1.136283,3649.741
684,1.13795,3625.378
685,1.139617,3625.378
686,1.141283,3597.96
687,1.14295,3573.969
688,1.144617,3550.202
689,1.146283,3550.202
690,1.14795,3528.893
691,1.149617,3506.914
692,1.151283,3506.914
693,1.15295,3481.731
694,1.154617,3452.599
695,1.156283,3425.405
696,1.157983,3425.405
697,1.159617,3403.574
698,1.161283,3379.583
699,1.16295,3359.988
700,1.164617,3359.988
701,1.1663,3340.095
702,1.167933,3318.861
703,1.1696,3298.372
704,1.171267,3298.372
705,1.172933,3280.789
706,1.1747,3260.3
707,1.176267,3238.842
708,1.177933,3238.842
709,1.1796,3219.768
710,1.181267,3198.013
711,1.182933,3198.013
712,1.1846,3177.971
713,1.186267,3157.481
714,1.187933,3137.439
715,1.1896,3137.439
716,1.191333,3115.609
717,1.192933,3096.983
718,1.1946,3075.823
719,1.1963,3075.823
720,1.197933,3058.165
721,1.1996,3039.539
722,1.201267,3020.242
723,1.202933,3020.242
724,1.2046,3004.67
725,1.206267,2985.224
726,1.20805,2970.77
727,1.2096,2970.77
728,1.211267,2955.198
729,1.212933,2939.105
730,1.2146,2939.105
731,1.216267,2924.055
732,1.217933,2906.918
733,1.2196,2889.559
734,1.221267,2889.559
735,1.222933,2869.219
736,1.2246,2847.835
737,1.22625,2828.836
738,1.227917,2828.836
739,1.229583,2809.018
740,1.23125,2794.787
741,1.232917,2783.686
742,1.234583,2783.686
743,1.23625,2770.573
744,1.237917,2757.46
745,1.239583,2757.46
746,1.241233,2741.218
747,1.2429,2723.336
748,1.244567,2707.317
749,1.246233,2707.317
750,1.2479,2695.173
751,1.249567,2683.177
752,1.251233,2671.48
753,1.252917,2671.48
754,1.2546,2655.834
755,1.256233,2639.741
756,1.2579,2627.82
757,1.259567,2627.82
758,1.261233,2612.174
759,1.2629,2599.806
760,1.264617,2599.806
761,1.266233,2585.799
762,1.2679,2568.513
763,1.269567,2555.549
764,1.271233,2555.549
765,1.2729,2543.181
766,1.274567,2529.323
767,1.276233,2517.104
768,1.2779,2517.104
769,1.279567,2506.748
770,1.281233,2495.051
771,1.2829,2482.682
772,1.284567,2482.682
773,1.286217,2470.464
774,1.287883,2454.594
775,1.28955,2454.594
776,1.291217,2439.618
777,1.29295,2428.368
778,1.29455,2416.894
779,1.296217,2416.894
780,1.297883,2406.985
781,1.29955,2396.032
782,1.301217,2382.919
783,1.302883,2382.919
784,1.30455,2369.881
785,1.306217,2356.172
786,1.307883,2347.082
787,1.309617,2347.082
788,1.311217,2338.663
789,1.312883,2330.244
790,1.31455,2320.558
791,1.316217,2320.558
792,1.317883,2309.233
793,1.31955,2296.791
794,1.321217,2296.791
795,1.322883,2285.167
796,1.32455,2277.419
797,1.326317,2264.38
798,1.327883,2264.38
799,1.32955,2256.632
800,1.331217,2247.319
801,1.332883,2238.75
802,1.33455,2238.75
803,1.336217,2231.598
804,1.337883,2220.347
805,1.33955,2210.885
806,1.341217,2210.885
807,1.3429,2199.933
808,1.3446,2189.279
809,1.3462,2189.279
810,1.347867,2180.338
811,1.349533,2171.248
812,1.3512,2161.711
813,1.352867,2161.711
814,1.354533,2154.186
815,1.3562,2143.606
816,1.357867,2133.772
817,1.359533,2133.772
818,1.3612,2124.384
819,1.362867,2115.071
820,1.364533,2106.726
821,1.3662,2106.726
822,1.367867,2096.37
823,1.369533,2086.759
824,1.3712,2076.328
825,1.372867,2076.328
826,1.374533,2066.791
827,1.3762,2060.16
828,1.377867,2060.16
829,1.379533,2051.517
830,1.3812,2046.674
831,1.382867,2039.596
832,1.384533,2039.596
833,1.3862,2032.891
834,1.387867,2028.57
835,1.389533,2021.492
836,1.3912,2021.492
837,1.392867,2014.041
838,1.394533,2002.94
839,1.3962,1992.062
840,1.397867,1992.062
841,1.399533,1981.258
842,1.4012,1972.169
843,1.402867,1972.169
844,1.404517,1965.91
845,1.4062,1957.119
846,1.40785,1953.542
847,1.409517,1953.542
848,1.411267,1949.742
849,1.41285,1944.229
850,1.414517,1940.578
851,1.416183,1940.578
852,1.417867,1929.03
853,1.419533,1922.324
854,1.421183,1914.129
855,1.42285,1914.129
856,1.424517,1907.498
857,1.426183,1902.357
858,1.427867,1895.726
859,1.429517,1895.726
860,1.431183,1893.267
861,1.43285,1887.307
862,1.434517,1887.307
863,1.436183,1883.06
864,1.43785,1873.076
865,1.439517,1862.496
866,1.441183,1862.496
867,1.44285,1853.63
868,1.444633,1846.03
869,1.446183,1841.262
870,1.44785,1841.262
871,1.449517,1838.133
872,1.451183,1835.004
873,1.45285,1829.341
874,1.454517,1829.341
875,1.456183,1824.349
876,1.45785,1816.899
877,1.459517,1816.899
878,1.461183,1808.703
879,1.46285,1799.613
880,1.464517,1794.919
881,1.466167,1794.919
882,1.467833,1790.822
883,1.4695,1788.363
884,1.471167,1784.712
885,1.472833,1784.712
886,1.4745,1777.634
887,1.476167,1770.705
888,1.477833,1762.584
889,1.4795,1762.584
890,1.481167,1755.431
891,1.482833,1750.067
892,1.4845,1750.067
893,1.486183,1747.31
894,1.487833,1745.448
895,1.4895,1743.585
896,1.491167,1743.585
897,1.492833,1738.593
898,1.4945,1734.197
899,1.496167,1726.896
900,1.497833,1726.896
901,1.4995,1721.904
902,1.5012,1718.551
903,1.502833,1712.069
904,1.5045,1712.069
905,1.506167,1708.791
906,1.507833,1704.395
907,1.5095,1699.776
908,1.511167,1699.776
909,1.512833,1694.56
910,1.5145,1690.164
911,1.516167,1690.164
