"ID","sea_time","fid_signal"
1,0,1164.377
2,0.001667,1164.377
3,0.003333,1166.239
4,0.005,1165.494
5,0.006667,1165.494
6,0.008333,1166.761
7,0.01,1166.984
8,0.011667,1163.781
9,0.013333,1163.781
10,0.015,1164.451
11,0.016667,1162.589
12,0.018333,1162.812
13,0.02,1162.812
14,0.021667,1163.408
15,0.023317,1166.91
16,0.025017,1167.953
17,0.02665,1167.953
18,0.028317,1167.58
19,0.029983,1168.251
20,0.03165,1163.185
21,0.033317,1163.185
22,0.034983,1165.271
23,0.0367,1164.004
24,0.038317,1164.004
25,0.039983,1163.259
26,0.041667,1165.047
27,0.043317,1165.42
28,0.044983,1165.42
29,0.046667,1167.58
30,0.04835,1168.027
31,0.049983,1167.879
32,0.05165,1167.879
33,0.053317,1166.314
34,0.054983,1165.196
35,0.05665,1166.016
36,0.058317,1166.016
37,0.059983,1168.847
38,0.06165,1171.306
39,0.063317,1171.306
40,0.064983,1171.008
41,0.06665,1170.337
42,0.068317,1168.773
43,0.0701,1168.773
44,0.07165000000000001,1166.016
45,0.07331699999999999,1165.569
46,0.07498299999999999,1165.494
47,0.07665,1165.494
48,0.078317,1165.42
49,0.079983,1166.612
50,0.08165,1168.624
51,0.083317,1168.624
52,0.084967,1168.773
53,0.086633,1166.91
54,0.0883,1166.91
55,0.08996700000000001,1164.451
56,0.09163300000000001,1162.291
57,0.09329999999999999,1164.228
58,0.094967,1164.228
59,0.096633,1164.675
60,0.0983,1166.91
61,0.099967,1167.357
62,0.101633,1167.357
63,0.1033,1165.122
64,0.104967,1168.102
65,0.106633,1170.561
66,0.1083,1170.561
67,0.109967,1171.455
68,0.111633,1171.529
69,0.1133,1168.251
70,0.114967,1168.251
71,0.116633,1165.867
72,0.118333,1164.824
73,0.119967,1164.824
74,0.12165,1165.122
75,0.1233,1166.612
76,0.124967,1164.898
77,0.126633,1164.898
78,0.1283,1164.153
79,0.129967,1166.239
80,0.131633,1167.432
81,0.1333,1167.432
82,0.134967,1168.251
83,0.136633,1173.615
84,0.1383,1171.082
85,0.139967,1171.082
86,0.141617,1168.698
87,0.1433,1168.549
88,0.14495,1168.549
89,0.146617,1165.941
90,0.148283,1166.165
91,0.149933,1166.835
92,0.1516,1166.835
93,0.153267,1169.816
94,0.154983,1167.506
95,0.1566,1168.847
96,0.158267,1168.847
97,0.159933,1168.996
98,0.1616,1165.271
99,0.163267,1164.973
100,0.164933,1164.973
101,0.1666,1164.451
102,0.168267,1164.302
103,0.169933,1165.122
104,0.171717,1165.122
105,0.173267,1165.941
106,0.174933,1164.079
107,0.1766,1164.079
108,0.178267,1163.706
109,0.179933,1165.494
110,0.1816,1168.773
111,0.183267,1168.773
112,0.184933,1168.624
113,0.1866,1167.432
114,0.188317,1166.165
115,0.189933,1166.165
116,0.1916,1161.918
117,0.193283,1162.961
118,0.194933,1165.196
119,0.1966,1165.196
120,0.198267,1167.655
121,0.19995,1170.71
122,0.201633,1170.71
123,0.20325,1170.486
124,0.204917,1169.369
125,0.206583,1166.686
126,0.20825,1166.686
127,0.209917,1166.314
128,0.211583,1167.655
129,0.21325,1171.604
130,0.214917,1171.604
131,0.2166,1170.263
132,0.21825,1167.133
133,0.219917,1164.675
134,0.221583,1164.675
135,0.22325,1161.695
136,0.224917,1162.663
137,0.226583,1165.196
138,0.22825,1165.196
139,0.229917,1165.569
140,0.231583,1163.93
141,0.23325,1163.93
142,0.234917,1163.557
143,0.236583,1164.004
144,0.23825,1165.867
145,0.239917,1165.867
146,0.241583,1169.741
147,0.24325,1170.039
148,0.244917,1170.933
149,0.246583,1170.933
150,0.24825,1169.145
151,0.249917,1167.357
152,0.251583,1167.432
153,0.25325,1167.432
154,0.254917,1164.228
155,0.256583,1165.196
156,0.25825,1165.196
157,0.259917,1162.738
158,0.261583,1161.471
159,0.263233,1164.824
160,0.264917,1164.824
161,0.266617,1164.526
162,0.268233,1166.91
163,0.269967,1169.369
164,0.271567,1169.369
165,0.27325,1169.369
166,0.2749,1171.38
167,0.276567,1170.486
168,0.278233,1170.486
169,0.2799,1170.039
170,0.281567,1165.047
171,0.283233,1165.047
172,0.2849,1162.514
173,0.286567,1161.024
174,0.288233,1160.651
175,0.29,1160.651
176,0.291567,1162.961
177,0.293233,1165.122
178,0.2949,1170.486
179,0.296567,1170.486
180,0.298233,1171.455
181,0.2999,1172.647
182,0.301567,1171.678
183,0.303233,1171.678
184,0.3049,1168.251
185,0.306667,1166.463
186,0.308233,1165.271
187,0.3099,1165.271
188,0.311567,1164.004
189,0.313233,1163.557
190,0.3149,1163.557
191,0.316567,1165.494
192,0.318233,1169.22
193,0.3199,1169.667
194,0.321567,1169.667
195,0.323333,1168.847
196,0.324883,1168.549
197,0.32655,1167.804
198,0.328217,1167.804
199,0.329883,1167.729
200,0.33155,1167.059
201,0.333217,1164.377
202,0.334883,1164.377
203,0.33655,1162.291
204,0.338217,1165.047
205,0.339883,1165.047
206,0.34155,1165.42
207,0.343217,1167.282
208,0.344917,1166.165
209,0.346617,1166.165
210,0.348217,1165.867
211,0.349883,1168.4
212,0.35155,1170.039
213,0.353217,1170.039
214,0.354883,1170.784
215,0.35655,1167.879
216,0.358217,1169.22
217,0.359883,1169.22
218,0.36155,1168.922
219,0.363217,1172.274
220,0.364883,1173.765
221,0.36655,1173.765
222,0.368217,1170.412
223,0.369883,1167.282
224,0.37155,1167.282
225,0.373217,1164.079
226,0.374883,1165.345
227,0.37655,1169.071
228,0.378217,1169.071
229,0.379883,1172.498
230,0.38155,1174.435
231,0.383217,1175.478
232,0.384867,1175.478
233,0.386533,1173.765
234,0.3882,1173.243
235,0.389867,1174.286
236,0.391567,1174.286
237,0.3932,1174.51
238,0.394867,1175.851
239,0.396533,1175.851
240,0.3982,1180.023
241,0.399867,1183.823
242,0.401533,1187.176
243,0.4032,1187.176
244,0.404867,1189.262
245,0.406533,1190.826
246,0.408267,1195.595
247,0.409867,1195.595
248,0.411533,1199.171
249,0.4132,1203.343
250,0.414867,1209.751
251,0.416533,1209.751
252,0.418233,1213.7
253,0.419883,1217.201
254,0.421533,1224.95
255,0.4232,1224.95
256,0.42495,1229.346
257,0.426533,1235.232
258,0.4282,1235.232
259,0.429867,1242.682
260,0.431533,1247.153
261,0.4332,1252.07
262,0.434867,1252.07
263,0.436533,1253.337
264,0.4382,1254.901
265,0.439867,1257.211
266,0.441617,1257.211
267,0.443183,1257.583
268,0.444833,1257.286
269,0.4465,1260.564
270,0.448167,1260.564
271,0.449833,1262.128
272,0.4515,1264.289
273,0.453167,1264.289
274,0.454833,1266.897
275,0.4565,1267.642
276,0.458167,1267.642
277,0.459833,1267.642
278,0.4615,1265.63
279,0.463167,1265.258
280,0.464833,1262.873
281,0.4665,1262.873
282,0.468167,1261.309
283,0.469833,1260.787
284,0.4715,1260.564
285,0.473167,1260.564
286,0.474833,1256.168
287,0.4765,1254.976
288,0.478167,1254.976
289,0.479833,1251.101
290,0.4815,1245.216
291,0.483167,1243.204
292,0.484833,1243.204
293,0.4865,1240.671
294,0.488167,1239.255
295,0.489833,1235.157
296,0.4915,1235.157
297,0.4932,1235.232
298,0.4949,1230.016
299,0.4965,1229.048
300,0.498167,1229.048
301,0.499833,1227.409
302,0.5014999999999999,1222.938
303,0.503167,1221.97
304,0.504817,1221.97
305,0.506483,1218.393
306,0.50815,1215.86
307,0.509817,1215.86
308,0.511483,1213.774
309,0.51315,1209.08
310,0.514817,1204.461
311,0.516483,1204.461
312,0.51815,1201.704
313,0.519817,1197.755
314,0.521483,1195.595
315,0.52315,1195.595
316,0.524817,1195.52
317,0.526517,1195.52
318,0.52815,1196.489
319,0.529817,1196.489
320,0.531483,1195.297
321,0.53315,1191.795
322,0.534817,1191.795
323,0.536483,1188.07
324,0.53815,1184.717
325,0.539817,1183.003
326,0.541483,1183.003
327,0.5432,1182.109
328,0.544817,1183.525
329,0.5464830000000001,1183.599
330,0.54815,1183.599
331,0.549817,1187.176
332,0.5514829999999999,1189.038
333,0.55315,1190.677
334,0.554817,1190.677
335,0.5564829999999999,1190.528
336,0.55815,1186.654
337,0.5599,1183.525
338,0.561483,1183.525
339,0.56315,1178.533
340,0.5648,1176.372
341,0.5664670000000001,1176.372
342,0.568133,1174.659
343,0.5698,1174.063
344,0.5714669999999999,1174.957
345,0.573133,1174.957
346,0.574833,1175.702
347,0.576467,1176.447
348,0.578133,1175.702
349,0.5798,1175.702
350,0.581467,1176.596
351,0.583133,1173.839
352,0.5848,1175.18
353,0.586467,1175.18
354,0.588133,1176
355,0.5898,1172.274
356,0.591467,1172.274
357,0.593133,1175.553
358,0.5948,1173.839
359,0.596467,1173.765
360,0.598133,1173.765
361,0.5998,1176
362,0.601467,1175.702
363,0.603133,1175.329
364,0.6048,1175.329
365,0.606467,1172.572
366,0.608133,1171.38
367,0.6098,1168.847
368,0.611467,1168.847
369,0.613133,1168.4
370,0.6148,1169.965
371,0.616467,1173.913
372,0.618133,1173.913
373,0.6198,1172.274
374,0.621467,1170.933
375,0.623133,1170.933
376,0.624783,1171.827
377,0.62645,1167.208
378,0.628117,1166.463
379,0.629783,1166.463
380,0.63145,1170.337
381,0.633117,1171.455
382,0.634817,1171.753
383,0.63645,1171.753
384,0.638117,1175.106
385,0.639783,1173.243
386,0.641483,1172.2
387,0.643117,1172.2
388,0.644783,1174.957
389,0.64645,1172.498
390,0.6481170000000001,1172.498
391,0.649783,1170.114
392,0.65145,1168.177
393,0.6531169999999999,1164.6
394,0.654783,1164.6
395,0.65645,1164.6
396,0.658117,1164.973
397,0.659783,1165.345
398,0.66145,1165.345
399,0.663117,1167.804
400,0.664783,1169.071
401,0.66645,1171.38
402,0.668117,1171.38
403,0.669783,1173.988
404,0.67145,1174.435
405,0.673133,1176.298
406,0.674783,1176.298
407,0.67645,1173.168
408,0.678233,1173.541
409,0.679783,1173.541
410,0.68145,1171.678
411,0.683117,1171.753
412,0.684767,1173.168
413,0.686433,1173.168
414,0.6881,1172.572
415,0.689767,1174.807
416,0.691433,1174.063
417,0.6931,1174.063
418,0.694767,1174.807
419,0.696433,1172.572
420,0.6981000000000001,1171.604
421,0.699767,1171.604
422,0.701433,1170.337
423,0.7030999999999999,1169.592
424,0.704767,1169.592
425,0.706433,1170.486
426,0.7081,1170.859
427,0.709767,1171.827
428,0.71145,1171.827
429,0.7131,1172.796
430,0.714767,1172.945
431,0.716433,1170.859
432,0.7181,1170.859
433,0.719767,1170.561
434,0.721433,1169.443
435,0.7231,1169.443
436,0.7247670000000001,1169.443
437,0.726433,1172.2
438,0.728133,1173.243
439,0.7297670000000001,1173.243
440,0.731417,1173.317
441,0.733083,1174.435
442,0.73475,1172.125
443,0.736417,1172.125
444,0.738083,1171.455
445,0.73975,1173.988
446,0.741417,1172.051
447,0.743067,1172.051
448,0.744733,1174.063
449,0.7464,1172.423
450,0.748067,1169.741
451,0.749733,1169.741
452,0.7514,1171.976
453,0.753067,1169.667
454,0.754733,1169.145
455,0.7564,1169.145
456,0.758067,1168.624
457,0.759733,1169.145
458,0.7614,1169.145
459,0.7631,1169.667
460,0.764733,1170.486
461,0.7664,1175.478
462,0.7680670000000001,1175.478
463,0.769733,1175.553
464,0.7714,1179.799
465,0.7730669999999999,1184.419
466,0.774733,1184.419
467,0.7764,1183.152
468,0.778067,1184.419
469,0.779783,1184.27
470,0.7814,1184.27
471,0.783067,1186.356
472,0.784733,1188.07
473,0.7864,1188.07
474,0.788067,1187.995
475,0.789733,1187.995
476,0.7914,1190.007
477,0.793067,1190.007
478,0.794733,1194.552
479,0.796517,1198.724
480,0.798067,1203.194
481,0.799733,1203.194
482,0.8014,1200.512
483,0.80305,1199.618
484,0.804717,1203.343
485,0.806383,1203.343
486,0.80805,1205.876
487,0.809717,1212.06
488,0.811383,1213.327
489,0.8130500000000001,1213.327
490,0.814717,1213.551
491,0.816383,1217.127
492,0.8180500000000001,1217.127
493,0.81975,1217.499
494,0.821383,1224.354
495,0.8230499999999999,1228.452
496,0.824717,1228.452
497,0.826383,1230.687
498,0.82805,1236.424
499,0.829717,1239.926
500,0.831383,1239.926
501,0.83305,1242.533
502,0.834717,1244.47
503,0.836383,1245.588
504,0.83805,1245.588
505,0.839717,1245.067
506,0.841383,1249.239
507,0.84305,1249.239
508,0.8447170000000001,1256.913
509,0.846383,1264.364
510,0.848067,1274.124
511,0.8497169999999999,1274.124
512,0.8514,1279.637
513,0.85305,1283.437
514,0.8547169999999999,1288.801
515,0.856383,1288.801
516,0.85805,1292.303
517,0.859717,1299.307
518,0.861383,1304.746
519,0.8630330000000001,1304.746
520,0.8647,1308.396
521,0.866367,1312.271
522,0.8680330000000001,1312.271
523,0.8697,1317.784
524,0.871367,1321.957
525,0.8730329999999999,1327.843
526,0.8747,1327.843
527,0.876367,1332.685
528,0.878033,1335.442
529,0.8797,1341.924
530,0.881417,1341.924
531,0.883033,1349.226
532,0.8847,1356.676
533,0.886367,1364.797
534,0.888033,1364.797
535,0.8897,1371.875
536,0.891367,1378.953
537,0.893033,1388.937
538,0.8947000000000001,1388.937
539,0.896367,1397.58
540,0.89805,1404.583
541,0.8997000000000001,1404.583
542,0.901367,1411.438
543,0.903033,1414.642
544,0.9046999999999999,1422.241
545,0.906367,1422.241
546,0.908033,1430.511
547,0.9097,1437.366
548,0.911367,1446.754
549,0.913033,1446.754
550,0.914717,1454.055
551,0.916367,1460.388
552,0.918033,1469.031
553,0.9197,1469.031
554,0.921367,1476.258
555,0.923033,1482.964
556,0.924683,1482.964
557,0.92635,1491.904
558,0.928017,1500.025
559,0.929683,1509.115
560,0.9313669999999999,1509.115
561,0.933033,1518.279
562,0.934683,1527.891
563,0.93635,1537.353
564,0.938017,1537.353
565,0.939683,1548.529
566,0.94135,1558.363
567,0.943017,1570.21
568,0.9446830000000001,1570.21
569,0.94635,1580.492
570,0.948017,1588.017
571,0.9496830000000001,1597.33
572,0.95135,1597.33
573,0.953017,1602.024
574,0.9546829999999999,1611.114
575,0.95635,1611.114
576,0.958017,1621.097
577,0.959683,1631.975
578,0.96135,1643.524
579,0.963017,1643.524
580,0.964683,1652.241
581,0.96635,1663.119
582,0.968017,1671.314
583,0.969683,1671.314
584,0.97135,1680.926
585,0.973017,1692.176
586,0.974683,1702.383
587,0.976367,1702.383
588,0.978017,1715.794
589,0.979683,1727.79
590,0.9813499999999999,1727.79
591,0.983,1742.393
592,0.984667,1757.517
593,0.986333,1768.47
594,0.988,1768.47
595,0.989667,1780.912
596,0.991333,1789.48
597,0.993,1800.582
598,0.994667,1800.582
599,0.996333,1813.62
600,0.9980329999999999,1826.882
601,0.999683,1838.356
602,1.001333,1838.356
603,1.003,1850.575
604,1.004667,1861.528
605,1.006333,1875.982
606,1.008,1875.982
607,1.009667,1892.522
608,1.011333,1906.455
609,1.013,1906.455
610,1.014667,1923.665
611,1.01645,1937.822
612,1.018,1952.127
613,1.019667,1952.127
614,1.021333,1965.687
615,1.023,1977.533
616,1.02465,1993.403
617,1.026317,1993.403
618,1.027983,2008.453
619,1.02965,2025.813
620,1.031317,2042.875
621,1.033083,2042.875
622,1.03465,2057.999
623,1.036317,2073.05
624,1.037983,2073.05
625,1.03965,2085.79
626,1.041317,2099.872
627,1.042967,2115.071
628,1.044633,2115.071
629,1.0463,2134.219
630,1.047967,2152.249
631,1.049633,2168.79
632,1.0513,2168.79
633,1.052967,2185.851
634,1.054633,2199.709
635,1.0563,2216.25
636,1.057967,2216.25
637,1.059633,2235.77
638,1.0613,2253.354
639,1.062967,2253.354
640,1.064633,2272.278
641,1.0663,2289.116
642,1.067967,2307.072
643,1.06965,2307.072
644,1.0713,2326.667
645,1.072983,2346.486
646,1.074633,2367.05
647,1.0763,2367.05
648,1.077967,2384.409
649,1.079633,2398.267
650,1.0813,2413.69
651,1.082967,2413.69
652,1.084633,2431.646
653,1.0863,2451.39
654,1.087967,2472.848
655,1.089633,2472.848
656,1.0913,2492.815
657,1.092967,2514.124
658,1.094633,2514.124
659,1.0963,2532.303
660,1.097967,2550.11
661,1.099633,2569.258
662,1.1013,2569.258
663,1.102967,2583.787
664,1.104617,2603.009
665,1.106283,2623.796
666,1.10795,2623.796
667,1.109617,2641.603
668,1.111283,2660.304
669,1.11295,2678.037
670,1.114617,2678.037
671,1.116283,2694.949
672,1.11795,2714.619
673,1.119617,2714.619
674,1.121283,2735.928
675,1.12295,2753.586
676,1.124617,2774.298
677,1.126283,2774.298
678,1.12795,2793.819
679,1.129617,2812.743
680,1.131283,2834.797
681,1.13295,2834.797
682,1.134617,2852.753
683,1.136283,2871.305
684,1.13795,2891.794
685,1.139617,2891.794
686,1.141283,2909.303
687,1.14295,2930.76
688,1.144617,2951.92
689,1.1463,2951.92
690,1.148017,2970.174
691,1.149617,2991.259
692,1.151367,2991.259
693,1.15295,3007.129
694,1.154617,3023.371
695,1.156283,3039.911
696,1.15795,3039.911
697,1.159617,3054.589
698,1.161283,3070.086
699,1.16295,3087.67
700,1.1646,3087.67
701,1.166267,3105.998
702,1.168067,3124.029
703,1.1696,3142.804
704,1.171267,3142.804
705,1.172933,3161.579
706,1.1746,3179.088
707,1.176267,3179.088
708,1.177933,3199.652
709,1.1796,3217.98
710,1.181267,3233.328
711,1.182933,3233.328
712,1.1846,3252.253
713,1.186267,3270.432
714,1.187933,3289.878
715,1.1896,3289.878
716,1.191267,3307.76
717,1.192933,3324.151
718,1.1946,3341.138
719,1.196267,3341.138
720,1.197933,3355.071
721,1.1996,3374.145
722,1.201267,3388.375
723,1.202933,3388.375
724,1.2046,3400.52
725,1.206267,3414.825
726,1.207933,3414.825
727,1.2096,3425.926
728,1.211267,3439.114
729,1.212933,3453.791
730,1.2146,3453.791
731,1.216267,3466.606
732,1.217933,3479.794
733,1.219633,3495.813
734,1.221267,3495.813
735,1.222917,3507.063
736,1.224583,3522.262
737,1.226267,3537.238
738,1.227967,3537.238
739,1.229583,3549.978
740,1.23125,3565.326
741,1.232917,3565.326
742,1.234583,3579.408
743,1.23625,3592.148
744,1.237917,3602.132
745,1.239583,3602.132
746,1.24125,3614.649
747,1.242917,3625.08
748,1.244583,3634.17
749,1.24625,3634.17
750,1.247917,3647.804
751,1.249583,3656.372
752,1.251267,3665.76
753,1.252967,3665.76
754,1.254583,3675.371
755,1.25625,3685.728
756,1.257917,3696.084
757,1.259583,3696.084
758,1.26125,3707.781
759,1.262917,3719.33
760,1.264583,3719.33
761,1.26625,3726.11
762,1.267917,3735.051
763,1.269633,3742.203
764,1.27125,3742.203
765,1.272917,3746.971
766,1.274583,3755.316
767,1.27625,3761.5
768,1.277917,3761.5
769,1.279583,3767.461
770,1.28125,3776.103
771,1.282917,3785.789
772,1.284567,3785.789
773,1.2863,3794.357
774,1.2879,3806.129
775,1.289567,3806.129
776,1.291233,3813.431
777,1.2929,3816.783
778,1.294567,3821.626
779,1.296233,3821.626
780,1.29795,3823.191
781,1.299567,3830.865
782,1.301233,3836.677
783,1.3029,3836.677
784,1.304567,3844.127
785,1.306233,3851.95
786,1.3079,3855.229
787,1.309567,3855.229
788,1.311233,3859.848
789,1.3129,3861.562
790,1.31455,3861.562
791,1.31625,3866.032
792,1.317883,3871.769
793,1.31955,3875.345
794,1.321217,3875.345
795,1.322883,3878.772
796,1.32455,3878.996
797,1.326217,3879.592
798,1.327883,3879.592
799,1.32955,3881.827
800,1.331217,3883.615
801,1.332883,3888.309
802,1.33455,3888.309
803,1.336217,3891.811
804,1.337883,3896.43
805,1.33955,3900.9
806,1.341217,3900.9
807,1.342867,3903.359
808,1.344533,3902.391
809,1.3462,3902.391
810,1.347867,3901.273
811,1.349533,3899.857
812,1.3512,3895.685
813,1.352867,3895.685
814,1.354533,3898.144
815,1.3562,3899.261
816,1.357867,3899.261
817,1.359533,3899.261
818,1.361217,3901.72
819,1.362867,3901.198
820,1.364533,3899.708
821,1.3662,3899.708
822,1.367867,3898.889
823,1.369533,3900.006
824,1.371233,3900.006
825,1.372867,3900.156
826,1.374533,3901.497
827,1.3762,3903.136
828,1.377867,3903.136
829,1.379533,3899.261
830,1.3812,3897.771
831,1.382867,3896.877
832,1.384533,3896.877
833,1.3862,3896.505
834,1.387933,3896.207
835,1.389533,3894.642
836,1.3912,3894.642
837,1.392867,3892.407
838,1.394533,3886.893
839,1.3962,3881.082
840,1.397867,3881.082
841,1.399533,3877.58
842,1.4012,3875.271
843,1.40285,3875.271
844,1.404633,3874.898
845,1.406183,3876.09
846,1.40785,3871.843
847,1.409517,3871.843
848,1.411183,3866.33
849,1.41285,3862.604
850,1.414517,3858.581
851,1.416183,3858.581
852,1.41785,3854.483
853,1.419517,3850.311
854,1.421183,3846.437
855,1.42285,3846.437
856,1.424517,3843.531
857,1.4262,3842.264
858,1.42785,3842.264
859,1.429517,3840.402
860,1.431183,3837.794
861,1.43285,3832.355
862,1.434517,3832.355
863,1.436183,3827.14
864,1.43785,3822.595
865,1.439517,3813.803
866,1.4412,3813.803
867,1.44285,3809.333
868,1.444517,3804.788
869,1.446183,3797.412
870,1.44785,3797.412
871,1.449517,3795.102
872,1.451183,3789.812
873,1.45285,3785.789
874,1.454517,3785.789
875,1.456183,3780.052
876,1.45785,3774.986
877,1.459517,3774.986
878,1.461183,3769.174
879,1.46285,3760.755
880,1.4645,3755.689
881,1.466167,3755.689
882,1.467833,3752.634
883,1.4695,3749.058
884,1.471167,3746.897
885,1.472833,3746.897
886,1.4745,3744.364
887,1.476167,3735.125
888,1.477833,3728.271
889,1.479533,3728.271
890,1.481167,3720.373
891,1.482833,3710.762
892,1.4845,3710.762
893,1.486167,3706.217
894,1.487833,3697.202
895,1.489517,3691.688
896,1.491167,3691.688
897,1.492833,3684.387
898,1.4945,3675.818
899,1.496167,3671.423
900,1.497833,3671.423
901,1.4995,3663.376
902,1.501167,3657.788
903,1.502833,3651.828
904,1.5045,3651.828
905,1.506217,3646.91
906,1.507833,3639.981
907,1.5095,3639.981
908,1.511167,3632.829
909,1.512833,3629.401
910,1.5145,3621.802
911,1.5162,3621.802
912,1.517833,3614.649
913,1.5195,3609.285
914,1.521167,3600.195
915,1.52295,3600.195
916,1.524483,3593.564
917,1.52615,3587.753
918,1.527817,3582.016
919,1.529483,3582.016
920,1.53115,3575.161
921,1.532817,3567.115
922,1.534483,3560.707
