"ID","sea_time","fid_signal"
1,0,144.854
2,0.001667,144.4
3,0.003333,144.4
4,0.005,144.035
5,0.006667,143.915
6,0.008333,143.811
7,0.01,143.811
8,0.011667,143.96
9,0.013333,143.722
10,0.015,143.722
11,0.016667,143.491
12,0.018333,143.342
13,0.019983,143.126
14,0.02165,143.126
15,0.023317,143.126
16,0.024983,143.424
17,0.02665,143.357
18,0.028317,143.357
19,0.029983,143.543
20,0.03165,143.565
21,0.03335,143.61
22,0.034983,143.61
23,0.03665,143.893
24,0.038317,143.833
25,0.039983,143.714
26,0.04165,143.714
27,0.043317,143.223
28,0.045,143.006
29,0.04665,143.006
30,0.048383,142.939
31,0.049983,143.103
32,0.05165,143.267
33,0.053317,143.267
34,0.054983,143.252
35,0.05665,143.386
36,0.058317,143.275
37,0.059983,143.275
38,0.06165,143.245
39,0.063317,143.185
40,0.065,143.014
41,0.06665,143.014
42,0.068317,143.074
43,0.069983,143.133
44,0.07165000000000001,143.133
45,0.07331699999999999,143.327
46,0.07498299999999999,143.304
47,0.07665,143.558
48,0.078317,143.558
49,0.079967,143.662
50,0.08175,143.625
51,0.0833,143.64
52,0.084967,143.64
53,0.086633,143.617
54,0.0883,143.58
55,0.08995,143.662
56,0.091617,143.662
57,0.093283,143.945
58,0.09495000000000001,143.908
59,0.09661699999999999,144.012
60,0.098283,144.012
61,0.09995,143.99
62,0.101617,143.826
63,0.103283,143.826
64,0.10495,143.841
65,0.10665,143.908
66,0.108283,143.819
67,0.10995,143.819
68,0.111617,143.975
69,0.113283,144.169
70,0.11495,143.93
71,0.116617,143.93
72,0.118283,143.915
73,0.11995,143.677
74,0.121617,143.439
75,0.123283,143.439
76,0.12495,143.506
77,0.126633,143.558
78,0.128283,143.558
79,0.12995,143.498
80,0.131633,143.334
81,0.133283,143.327
82,0.13495,143.327
83,0.136617,143.334
84,0.138283,143.409
85,0.139933,143.602
86,0.1416,143.602
87,0.143267,143.565
88,0.144933,143.513
89,0.1466,143.521
90,0.148267,143.521
91,0.149933,143.282
92,0.1516,143.55
93,0.153267,143.55
94,0.154933,143.453
95,0.1566,143.468
96,0.158267,143.796
97,0.159933,143.796
98,0.1616,143.684
99,0.163267,143.856
100,0.164933,143.953
101,0.16665,143.953
102,0.168267,143.759
103,0.169933,143.908
104,0.1716,144.027
105,0.173267,144.027
106,0.174933,143.901
107,0.1766,144.035
108,0.178283,144.035
109,0.179933,144.035
110,0.1816,144.072
111,0.183267,144.273
112,0.184933,144.273
113,0.1866,144.392
114,0.188267,144.213
115,0.189933,144.035
116,0.1916,144.035
117,0.193267,143.811
118,0.194933,143.416
119,0.1966,143.357
120,0.198267,143.357
121,0.200033,143.252
122,0.201583,143.148
123,0.20325,143.193
124,0.204917,143.193
125,0.206583,142.954
126,0.20825,142.85
127,0.209917,142.85
128,0.211583,142.82
129,0.21325,142.783
130,0.214917,143.066
131,0.216583,143.066
132,0.21825,143.275
133,0.219917,143.297
134,0.221583,143.349
135,0.22325,143.349
136,0.224933,143.208
137,0.226583,143.297
138,0.22825,143.424
139,0.229917,143.424
140,0.231583,143.692
141,0.23325,143.714
142,0.234917,143.789
143,0.236583,143.789
144,0.23825,143.737
145,0.239917,143.483
146,0.241583,143.483
147,0.24325,143.543
148,0.244917,143.282
149,0.246583,143.349
150,0.248267,143.349
151,0.249917,143.349
152,0.251583,143.431
153,0.25325,143.23
154,0.254917,143.23
155,0.256583,143.141
156,0.25825,143.059
157,0.2599,143.088
158,0.261567,143.088
159,0.263233,143.23
160,0.2649,143.245
161,0.266567,143.245
162,0.268233,143.252
163,0.2699,142.977
164,0.271567,142.887
165,0.273233,142.887
166,0.2749,142.865
167,0.276567,143.021
168,0.278233,143.141
169,0.2799,143.141
170,0.281567,143.468
171,0.283233,143.729
172,0.284967,143.602
173,0.286567,143.602
174,0.288233,143.64
175,0.2899,143.431
176,0.291567,143.304
177,0.293233,143.304
178,0.2949,143.617
179,0.296567,143.796
180,0.298233,143.796
181,0.2999,143.908
182,0.301567,143.804
183,0.303233,143.67
184,0.304933,143.67
185,0.306567,143.692
186,0.308233,143.945
187,0.3099,144.064
188,0.311567,144.064
189,0.313233,143.982
190,0.3149,143.945
191,0.316567,143.811
192,0.31835,143.811
193,0.319883,144.035
194,0.32155,144.333
195,0.323217,144.333
196,0.324883,144.586
197,0.326567,145.093
198,0.328267,145.912
199,0.329883,145.912
200,0.33155,146.903
201,0.333217,148.259
202,0.334883,149.965
203,0.33655,149.965
204,0.338217,151.94
205,0.339883,154.562
206,0.34155,157.624
207,0.343217,157.624
208,0.344883,161.603
209,0.34655,166.245
210,0.348217,172.056
211,0.349883,172.056
212,0.35155,179.298
213,0.353217,187.725
214,0.3549,187.725
215,0.35655,198.364
216,0.358217,210.918
217,0.359883,225.551
218,0.36155,225.551
219,0.363217,242.718
220,0.364883,262.178
221,0.36655,284.351
222,0.368217,284.351
223,0.369883,309.989
224,0.37155,339.188
225,0.373217,372.358
226,0.374883,372.358
227,0.37655,409.946
228,0.378217,451.967
229,0.37985,451.967
230,0.381517,499.122
231,0.383183,551.976
232,0.38485,611.775
233,0.386533,611.775
234,0.388233,679.1130000000001
235,0.389883,754.9
236,0.391517,840.716
237,0.393183,840.716
238,0.39485,938.0359999999999
239,0.396517,1049.452
240,0.398183,1177.803
241,0.39985,1177.803
242,0.401517,1326.941
243,0.403233,1500.703
244,0.40485,1500.703
245,0.406517,1703.277
246,0.408183,1940.385
247,0.40985,2217.047
248,0.411517,2217.047
249,0.413183,2538.51
250,0.41485,2911.59
251,0.416517,3340.147
252,0.418183,3340.147
253,0.419933,3828.593
254,0.421517,4380.644
255,0.423183,4997.335
256,0.42485,4997.335
257,0.426517,5679.704
258,0.428183,6426.751
259,0.42985,7235.833
260,0.431517,7235.833
261,0.433183,8103.065
262,0.43485,9023.121999999999
263,0.436617,9989.82
264,0.438183,9989.82
265,0.439833,10995.693
266,0.4415,12030.937
267,0.443167,12030.937
268,0.444833,13084.441
269,0.4465,14142.588
270,0.448167,15189.104
271,0.449833,15189.104
272,0.4515,16207.419
273,0.453167,17179.221
274,0.454833,18085.531
275,0.4565,18085.531
276,0.458167,18908.568
277,0.459833,19631.021
278,0.4615,19631.021
279,0.4632,20238.563
280,0.46485,20718.895
281,0.4665,21062.955
282,0.468167,21062.955
283,0.469833,21265.939
284,0.4715,21325.924
285,0.473167,21246.471
286,0.474833,21246.471
287,0.4765,21035.188
288,0.478167,20701.111
289,0.479833,20256.088
290,0.4815,20256.088
291,0.483167,19713.813
292,0.484833,19088.484
293,0.4865,18395.469
294,0.488167,18395.469
295,0.489833,17650.164
296,0.4915,16866.408
297,0.493167,16866.408
298,0.494833,16056.933
299,0.4965,15233.896
300,0.498167,14407.068
301,0.499817,14407.068
302,0.501483,13585.411
303,0.50315,12776.024
304,0.504817,11984.572
305,0.506483,11984.572
306,0.50815,11216.06
307,0.509817,10473.162
308,0.511483,9759.099
309,0.51315,9759.099
310,0.514817,9075.851000000001
311,0.516483,8424.825999999999
312,0.51815,8424.825999999999
313,0.519817,7807.098
314,0.521483,7222.921
315,0.52315,6672.055
316,0.524817,6672.055
317,0.526483,6154.284
318,0.52815,5669.422
319,0.529833,5216.33
320,0.531483,5216.33
321,0.53315,4794.493
322,0.534817,4403.211
323,0.536533,4040.986
324,0.538283,4040.986
325,0.539817,3707.193
326,0.541483,3400.192
327,0.54315,3118.329
328,0.544817,3118.329
329,0.5464830000000001,2860.576
330,0.54815,2625.085
331,0.549817,2625.085
332,0.5514829999999999,2410.375
333,0.55315,2214.916
334,0.554917,2037.041
335,0.5564829999999999,2037.041
336,0.55815,1875.296
337,0.5598,1728.564
338,0.561467,1595.549
339,0.563133,1595.549
340,0.5648,1475.409
341,0.5664670000000001,1366.951
342,0.568133,1268.819
343,0.5698,1268.819
344,0.571583,1180.381
345,0.573133,1100.182
346,0.5748,1100.182
347,0.576467,1027.368
348,0.578133,961.8920000000001
349,0.5798,902.407
350,0.581467,902.407
351,0.583133,848.509
352,0.5848,799.991
353,0.586467,755.63
354,0.588133,755.63
355,0.5898,715.2859999999999
356,0.591467,678.688
357,0.593133,645.436
358,0.5948,645.436
359,0.596467,615.083
360,0.598133,587.672
361,0.5998,587.672
362,0.601467,562.586
363,0.603133,539.355
364,0.6048,518.672
365,0.606467,518.672
366,0.608167,499.45
367,0.6098,481.494
368,0.611467,465.259
369,0.613133,465.259
370,0.6148,449.762
371,0.616467,435.196
372,0.618133,422.269
373,0.619783,422.269
374,0.621483,410.08
375,0.623117,398.703
376,0.624783,388.496
377,0.62645,388.496
378,0.628117,379.048
379,0.629783,370.212
380,0.63145,370.212
381,0.633117,361.919
382,0.634783,353.985
383,0.63645,346.437
384,0.638117,346.437
385,0.639783,339.232
386,0.64145,332.825
387,0.643117,326.797
388,0.644783,326.797
389,0.64645,320.926
390,0.6481170000000001,315.54
391,0.649783,310.22
392,0.65145,310.22
393,0.6531169999999999,305.31
394,0.654783,300.758
395,0.6565,296.339
396,0.658117,296.339
397,0.659783,292.473
398,0.66145,288.963
399,0.663117,288.963
400,0.664783,285.409
401,0.66645,281.908
402,0.668117,278.398
403,0.669783,278.398
404,0.6714329999999999,275.023
405,0.67315,271.939
406,0.674767,269.227
407,0.676433,269.227
408,0.678117,266.753
409,0.67975,263.818
410,0.6814170000000001,261.113
411,0.683083,261.113
412,0.68475,258.699
413,0.6864170000000001,256.218
414,0.688083,256.218
415,0.68975,254.184
416,0.6914169999999999,252.098
417,0.693083,249.855
418,0.69475,249.855
419,0.696417,247.56
420,0.698083,245.608
421,0.69975,244.014
422,0.701417,244.014
423,0.703083,242.196
424,0.704767,240.542
425,0.706417,238.672
426,0.708083,238.672
427,0.70975,236.63
428,0.711417,235.029
429,0.713083,235.029
430,0.7147829999999999,233.3
431,0.716417,231.579
432,0.718083,230.111
433,0.71975,230.111
434,0.721417,228.643
435,0.723083,227.496
436,0.72475,226.334
437,0.726417,226.334
438,0.728083,225.104
439,0.72975,223.972
440,0.731417,222.713
441,0.733083,222.713
442,0.73475,221.618
443,0.736417,220.5
444,0.738083,220.5
445,0.739733,219.3
446,0.7413999999999999,218.101
447,0.743067,216.797
448,0.744733,216.797
449,0.7464,215.918
450,0.748117,214.949
451,0.749733,214.115
452,0.7514,214.115
453,0.753067,213.504
454,0.754733,212.282
455,0.7564,211.559
456,0.758067,211.559
457,0.759733,210.531
458,0.7614,209.421
459,0.7630670000000001,208.452
460,0.764733,208.452
461,0.7664,207.365
462,0.7680670000000001,206.448
463,0.769733,206.448
464,0.7714,206.061
465,0.7730669999999999,205.383
466,0.774783,204.712
467,0.7764,204.712
468,0.778067,203.915
469,0.779733,202.924
470,0.7814,202.395
471,0.783067,202.395
472,0.784733,201.859
473,0.7864,201.561
474,0.788067,200.95
475,0.789733,200.95
476,0.79145,200.391
477,0.793067,199.728
478,0.794733,199.728
479,0.7964,198.901
480,0.798083,198.193
481,0.799717,197.5
482,0.801383,197.5
483,0.80305,196.576
484,0.804717,195.771
485,0.806383,195.265
486,0.808167,195.265
487,0.809717,194.572
488,0.811383,194.088
489,0.8130500000000001,193.737
490,0.814717,193.737
491,0.816383,193
492,0.8180500000000001,192.359
493,0.819717,191.636
494,0.821383,191.636
495,0.8230499999999999,190.996
496,0.82475,190.586
497,0.826383,190.586
498,0.82805,190.31
499,0.829717,190.325
500,0.831383,189.923
501,0.83305,189.923
502,0.834717,189.446
503,0.836383,188.798
504,0.83805,187.881
505,0.839717,187.881
506,0.841383,187.419
507,0.84305,187.121
508,0.8447170000000001,186.875
509,0.846383,186.875
510,0.84805,186.831
511,0.8497169999999999,186.391
512,0.851383,186.391
513,0.85305,185.937
514,0.8547169999999999,185.758
515,0.856383,185.207
516,0.85805,185.207
517,0.8597,185.028
518,0.861367,184.581
519,0.8630330000000001,184.074
520,0.8647,184.074
521,0.866367,184.022
522,0.8680330000000001,183.664
523,0.8697,183.411
524,0.871367,183.411
525,0.8730329999999999,183.016
526,0.8747,182.547
527,0.876367,182.204
528,0.878033,182.204
529,0.8797,181.943
530,0.8814,181.563
531,0.883033,181.563
532,0.8847,181.235
533,0.886367,181.071
534,0.888033,180.9
535,0.8897,180.9
536,0.891367,180.371
537,0.89305,179.82
538,0.8947000000000001,179.313
539,0.896367,179.313
540,0.898033,178.754
541,0.8997000000000001,178.605
542,0.901367,178.292
543,0.903033,178.292
544,0.9046999999999999,178.181
545,0.906367,177.845
546,0.908033,177.845
547,0.9097,177.57
548,0.911367,177.316
549,0.913033,176.802
550,0.9147,176.802
551,0.916367,176.437
552,0.918033,176.407
553,0.919683,176.281
554,0.92135,176.281
555,0.923017,176.296
556,0.924683,176.214
557,0.926467,175.662
558,0.928017,175.662
559,0.929683,175.074
560,0.93135,174.463
561,0.933033,174.083
562,0.934683,174.083
563,0.93635,173.971
564,0.938017,173.979
565,0.939683,173.979
566,0.94135,173.755
567,0.943017,173.815
568,0.9446830000000001,173.606
569,0.94635,173.606
570,0.948017,173.405
571,0.9496830000000001,173.308
572,0.95135,173.04
573,0.953017,173.04
574,0.9546829999999999,172.794
575,0.95635,172.377
576,0.958017,172.108
577,0.959683,172.108
578,0.96135,171.728
579,0.963,171.46
580,0.9646670000000001,171.46
581,0.96635,171.557
582,0.96805,171.758
583,0.9696669999999999,171.527
584,0.971333,171.527
585,0.973,171.371
586,0.974667,170.968
587,0.976333,170.618
588,0.978,170.618
589,0.97965,170.536
590,0.981317,170.328
591,0.9829830000000001,170.469
592,0.98465,170.469
593,0.986317,170.35
594,0.9879829999999999,170.223
595,0.98965,170.223
596,0.991317,169.881
597,0.9929829999999999,169.21
598,0.99465,168.607
599,0.996317,168.607
600,0.997983,168.368
601,0.99965,168.174
602,1.001317,168.487
603,1.002983,168.487
604,1.00465,168.532
605,1.006317,168.435
606,1.007983,168.577
607,1.00965,168.577
608,1.011367,168.368
609,1.012983,168.137
610,1.01465,167.854
611,1.016317,167.854
612,1.017983,167.66
613,1.01965,167.228
614,1.021317,167.228
615,1.022983,167.377
616,1.02465,167.042
617,1.026317,166.722
618,1.027983,166.722
619,1.02965,166.789
620,1.031317,166.342
621,1.032983,166.446
622,1.03465,166.446
623,1.036317,166.498
624,1.037983,166.2
625,1.039667,166.103
626,1.04135,166.103
627,1.042967,165.79
628,1.0447,165.679
629,1.0463,165.679
630,1.047967,165.887
631,1.049633,165.842
632,1.0513,165.932
633,1.052967,165.932
634,1.054633,165.775
635,1.0563,165.41
636,1.057967,165.291
637,1.059633,165.291
638,1.0613,165.276
639,1.062967,165.269
640,1.064633,165.164
641,1.0663,165.164
642,1.067967,164.896
643,1.069633,164.39
644,1.0713,164.203
645,1.072967,164.203
646,1.074633,164.255
647,1.0763,164.263
648,1.077967,164.263
649,1.079633,164.457
650,1.0813,164.382
651,1.082967,163.965
652,1.084633,163.965
653,1.0863,163.823
654,1.087967,163.421
655,1.089633,163.063
656,1.0913,163.063
657,1.092967,163.19
658,1.094633,162.944
659,1.0963,163.026
660,1.097967,163.026
661,1.099617,162.87
662,1.101283,162.542
663,1.10295,162.542
664,1.104617,162.564
665,1.106283,162.408
666,1.107967,162.326
667,1.109617,162.326
668,1.111283,162.207
669,1.11295,162.296
670,1.1147,162.221
671,1.116283,162.221
672,1.11795,162.385
673,1.119617,162.229
674,1.121283,161.864
675,1.12295,161.864
676,1.124617,161.842
677,1.126283,161.506
678,1.12795,161.767
679,1.129683,161.767
680,1.131283,161.521
681,1.13295,161.082
682,1.134617,161.082
683,1.136283,160.903
684,1.13795,160.396
685,1.139617,160.404
686,1.141283,160.404
687,1.14295,160.329
688,1.144617,160.329
689,1.146283,160.657
690,1.14795,160.657
691,1.149617,160.769
692,1.151283,161.029
693,1.15295,160.947
694,1.154617,160.947
695,1.156283,160.627
696,1.15795,160.53
697,1.1596,160.53
698,1.161267,160.165
699,1.163067,160.128
700,1.1646,159.822
701,1.166267,159.822
702,1.167933,159.606
703,1.1696,159.442
704,1.171267,159.293
705,1.172933,159.293
706,1.1746,159.383
707,1.176267,159.48
708,1.177933,159.703
709,1.1796,159.703
710,1.181267,159.763
711,1.182933,159.755
712,1.1846,159.755
713,1.186267,159.442
714,1.18795,159.033
715,1.189633,158.69
716,1.191283,158.69
717,1.192933,158.712
718,1.1946,158.519
719,1.196267,158.653
720,1.197933,158.653
721,1.1996,158.697
722,1.201267,158.399
723,1.202933,158.34
724,1.2046,158.34
725,1.206267,158.317
726,1.207933,158.28
727,1.2096,158.295
728,1.211267,158.295
729,1.212933,158.28
730,1.2146,158.198
731,1.216267,158.198
732,1.217933,157.811
733,1.219583,157.49
734,1.22125,157.624
735,1.222917,157.624
736,1.224583,157.647
737,1.22625,157.982
738,1.227917,157.982
739,1.229583,157.982
740,1.23125,157.937
741,1.232917,157.759
742,1.234583,157.669
743,1.23625,157.669
744,1.237917,157.818
745,1.239583,157.52
746,1.24125,157.52
747,1.242917,157.2
748,1.244583,157.192
749,1.24625,156.872
750,1.247983,156.872
751,1.249583,156.842
752,1.25125,157.267
753,1.252917,157.125
754,1.254567,157.125
755,1.256233,157.125
756,1.2579,157.073
757,1.259567,156.589
758,1.261267,156.589
759,1.262917,156.455
760,1.264617,156.395
761,1.266233,156.574
762,1.2679,156.574
763,1.269567,156.753
764,1.271233,157.014
765,1.2729,157.014
766,1.274567,157.155
767,1.276233,157.081
768,1.2779,156.783
769,1.27955,156.783
770,1.281333,156.529
771,1.2829,156.388
772,1.28455,156.105
773,1.286217,156.105
774,1.287883,156.47
775,1.28955,156.298
776,1.291217,156.052
777,1.292883,156.052
778,1.29455,156.06
779,1.296217,155.672
780,1.297883,155.672
781,1.29955,155.821
782,1.301217,155.993
783,1.302883,155.792
784,1.30455,155.792
785,1.306217,155.687
786,1.307883,155.382
787,1.30955,155.136
788,1.311217,155.136
789,1.312883,154.987
790,1.31455,154.95
791,1.316217,155.129
792,1.317883,155.129
793,1.31955,155.456
794,1.321217,155.784
795,1.322883,156.038
796,1.32455,156.038
797,1.326217,156.015
798,1.327883,155.62
799,1.32955,155.62
800,1.331233,155.635
801,1.332883,155.337
802,1.33455,155.151
803,1.336217,155.151
804,1.337883,155.285
805,1.339533,155.106
806,1.3412,155.076
807,1.342867,155.076
808,1.344533,155.069
809,1.3462,155.129
810,1.347867,154.972
811,1.349533,154.972
812,1.351217,154.98
813,1.352867,154.771
814,1.354533,154.771
815,1.3562,154.428
816,1.357867,154.383
817,1.359533,154.383
818,1.3612,154.383
819,1.362867,154.197
820,1.364533,154.167
821,1.366233,154.182
822,1.367867,154.182
823,1.369533,153.996
824,1.3712,153.854
825,1.372867,153.683
826,1.374533,153.683
827,1.3762,153.631
828,1.377867,153.713
829,1.379533,153.713
830,1.3812,153.862
831,1.382967,153.951
832,1.384533,153.936
833,1.3862,153.936
834,1.387867,153.877
835,1.389533,154.197
836,1.3912,154.316
837,1.392867,154.316
838,1.394533,153.981
839,1.3962,153.907
840,1.397867,153.676
841,1.399617,153.676
842,1.401183,153.698
843,1.40285,154.026
844,1.404517,154.033
845,1.406183,154.033
846,1.40785,153.72
847,1.409517,153.407
848,1.4112,153.407
849,1.41285,153.206
850,1.414517,153.214
851,1.416283,153.199
852,1.41785,153.199
853,1.419517,153.303
854,1.421183,153.348
855,1.42285,153.385
856,1.424517,153.385
857,1.426183,153.467
858,1.42785,153.333
859,1.429517,153.378
860,1.431183,153.378
861,1.43285,153.378
862,1.434517,153.318
863,1.436183,153.318
864,1.437883,153.296
865,1.439517,153.162
866,1.441183,152.819
867,1.44285,152.819
868,1.444517,152.7
869,1.446183,152.804
870,1.44785,152.834
871,1.449517,152.834
872,1.451183,152.871
873,1.45285,152.953
874,1.454517,153.02
875,1.456183,153.02
876,1.45785,152.662
877,1.4595,152.588
878,1.461167,152.67
879,1.462833,152.67
880,1.4645,152.491
881,1.466167,152.692
882,1.467833,152.692
883,1.4695,152.923
884,1.471167,153.109
885,1.472833,152.983
886,1.4745,152.983
887,1.476167,152.923
888,1.477833,152.908
889,1.4795,152.811
890,1.481167,152.811
891,1.482833,152.953
892,1.484517,153.117
893,1.486167,152.938
894,1.487833,152.938
895,1.4895,152.379
896,1.491167,152.141
897,1.492833,152.141
898,1.4945,152.193
899,1.496167,151.977
900,1.497833,152.074
901,1.4995,152.074
902,1.501267,151.888
903,1.502833,151.418
904,1.5045,151.619
905,1.506167,151.619
906,1.507833,151.888
907,1.5095,152.133
908,1.511167,152.238
909,1.512833,152.238
910,1.5145,151.925
911,1.516167,151.575
912,1.517867,151.56
913,1.5195,151.56
914,1.52115,151.321
915,1.522817,151.53
916,1.524483,151.53
917,1.52615,151.582
918,1.527817,151.381
919,1.529483,151.768
920,1.53115,151.768
921,1.532817,151.56
922,1.5346,151.508
923,1.53615,151.739
924,1.537817,151.739
925,1.539483,151.381
926,1.54115,151.493
927,1.542817,151.522
928,1.544483,151.522
929,1.546133,151.239
930,1.5478,151.396
931,1.549467,151.396
932,1.551133,151.485
933,1.5528,151.612
934,1.554467,151.791
935,1.556133,151.791
936,1.5578,151.843
937,1.559467,151.731
938,1.561133,151.575
939,1.562817,151.575
940,1.564467,151.418
941,1.566133,151.224
942,1.5678,151.053
943,1.569467,151.053
944,1.571133,150.979
945,1.5728,150.971
946,1.574467,150.971
947,1.576133,150.844
948,1.577783,150.643
949,1.57945,150.591
950,1.581117,150.591
951,1.582783,150.695
952,1.58445,150.815
953,1.586117,150.904
