"ID","sea_time","fid_signal"
1,0,1186.132
2,0.001667,1185.089
3,0.003333,1182.556
4,0.005,1182.556
5,0.006667,1180.843
6,0.008333,1180.992
7,0.010067,1179.799
8,0.011667,1179.799
9,0.013317,1178.905
10,0.014983,1177.266
11,0.01665,1174.137
12,0.018317,1174.137
13,0.019983,1173.839
14,0.02165,1176
15,0.023317,1175.031
16,0.024983,1175.031
17,0.026733,1177.192
18,0.028317,1177.713
19,0.029983,1177.713
20,0.03165,1176.894
21,0.033317,1175.851
22,0.034983,1174.212
23,0.03665,1174.212
24,0.038317,1172.423
25,0.039983,1168.996
26,0.04165,1171.157
27,0.043417,1171.157
28,0.044983,1173.839
29,0.04665,1175.106
30,0.0483,1178.831
31,0.049967,1178.831
32,0.051633,1176.298
33,0.0533,1172.647
34,0.054967,1172.647
35,0.056683,1173.541
36,0.0583,1169.965
37,0.059967,1170.263
38,0.061633,1170.263
39,0.0633,1173.988
40,0.064967,1174.137
41,0.066633,1177.415
42,0.0683,1177.415
43,0.069967,1180.693
44,0.071633,1179.054
45,0.0733,1181.215
46,0.07496700000000001,1181.215
47,0.07663300000000001,1180.321
48,0.07829999999999999,1180.768
49,0.079983,1180.246
50,0.081667,1180.246
51,0.0833,1177.937
52,0.084967,1177.341
53,0.086633,1177.341
54,0.0883,1175.776
55,0.08996700000000001,1176.745
56,0.09163300000000001,1178.309
57,0.09329999999999999,1178.309
58,0.094967,1178.011
59,0.096633,1181.29
60,0.0983,1183.972
61,0.099967,1183.972
62,0.101633,1186.132
63,0.1033,1185.983
64,0.104967,1183.748
65,0.106633,1183.748
66,0.1083,1180.917
67,0.10995,1177.415
68,0.11165,1177.117
69,0.113283,1177.117
70,0.11495,1173.839
71,0.116617,1171.902
72,0.118283,1171.902
73,0.119967,1173.615
74,0.12165,1174.51
75,0.123283,1179.278
76,0.12495,1179.278
77,0.126617,1180.545
78,0.128333,1181.215
79,0.12995,1184.121
80,0.131617,1184.121
81,0.133283,1181.662
82,0.13495,1181.29
83,0.136617,1179.799
84,0.138283,1179.799
85,0.13995,1179.203
86,0.141617,1181.737
87,0.143283,1181.737
88,0.145,1183.227
89,0.146617,1182.631
90,0.148283,1178.607
91,0.14995,1178.607
92,0.151617,1174.659
93,0.153283,1172.945
94,0.15495,1173.168
95,0.156617,1173.168
96,0.158283,1176
97,0.15995,1180.246
98,0.161717,1182.631
99,0.163283,1182.631
100,0.16495,1184.344
101,0.166617,1181.588
102,0.168283,1181.588
103,0.169967,1177.713
104,0.171667,1173.69
105,0.173267,1172.349
106,0.174933,1172.349
107,0.1766,1174.957
108,0.178267,1176.521
109,0.179933,1181.811
110,0.1816,1181.811
111,0.183267,1183.003
112,0.184933,1182.556
113,0.1866,1180.321
114,0.188267,1180.321
115,0.189933,1177.117
116,0.1916,1175.925
117,0.193267,1177.266
118,0.19495,1177.266
119,0.1966,1178.831
120,0.198267,1178.309
121,0.199933,1178.309
122,0.2016,1175.18
123,0.203267,1171.38
124,0.204933,1172.498
125,0.2066,1172.498
126,0.208267,1173.466
127,0.209933,1173.466
128,0.2116,1176.149
129,0.213267,1176.149
130,0.214933,1173.168
131,0.2166,1171.902
132,0.218267,1174.435
133,0.219933,1174.435
134,0.2216,1176.521
135,0.223267,1177.415
136,0.224933,1177.415
137,0.2266,1180.768
138,0.228267,1180.47
139,0.229917,1179.203
140,0.231583,1179.203
141,0.23325,1180.917
142,0.234917,1178.309
143,0.236583,1177.788
144,0.23825,1177.788
145,0.239933,1176.149
146,0.241583,1175.925
147,0.24325,1175.255
148,0.244917,1175.255
149,0.246617,1177.266
150,0.24825,1175.255
151,0.249917,1174.435
152,0.251583,1174.435
153,0.253283,1176.596
154,0.254917,1174.584
155,0.256583,1174.584
156,0.25825,1177.266
157,0.259917,1179.874
158,0.261583,1178.458
159,0.2633,1178.458
160,0.264917,1179.948
161,0.266583,1177.192
162,0.268267,1172.572
163,0.269917,1172.572
164,0.271583,1173.392
165,0.27325,1172.647
166,0.274917,1174.659
167,0.276583,1174.659
168,0.27825,1179.725
169,0.280033,1181.364
170,0.281583,1181.364
171,0.28325,1182.258
172,0.284917,1183.525
173,0.286583,1181.96
174,0.288233,1181.96
175,0.2899,1179.948
176,0.291567,1176.745
177,0.293233,1172.945
178,0.2949,1172.945
179,0.296567,1172.721
180,0.298233,1173.913
181,0.2999,1177.788
182,0.301567,1177.788
183,0.303217,1184.344
184,0.304883,1186.207
185,0.30655,1186.207
186,0.308217,1183.301
187,0.309883,1179.576
188,0.31155,1173.168
189,0.313217,1173.168
190,0.314883,1168.4
191,0.31655,1169.294
192,0.318217,1168.847
193,0.319883,1168.847
194,0.32155,1171.231
195,0.323217,1174.36
196,0.324883,1175.404
197,0.32655,1175.404
198,0.328217,1178.458
199,0.329883,1178.384
200,0.33155,1175.478
201,0.333217,1175.478
202,0.3349,1175.776
203,0.33655,1176.149
204,0.338233,1176.149
205,0.339883,1176.67
206,0.34155,1181.364
207,0.343217,1181.29
208,0.344883,1181.29
209,0.34655,1179.576
210,0.348217,1179.203
211,0.349867,1176.447
212,0.351533,1176.447
213,0.3532,1176.447
214,0.354867,1175.478
215,0.356533,1172.274
216,0.3582,1172.274
217,0.359867,1172.796
218,0.361533,1173.317
219,0.3632,1173.317
220,0.364933,1174.286
221,0.366533,1178.011
222,0.3682,1177.49
223,0.369867,1177.49
224,0.371533,1176.447
225,0.3732,1177.788
226,0.374867,1178.533
227,0.376533,1178.533
228,0.3782,1175.851
229,0.379867,1175.329
230,0.381533,1172.647
231,0.3832,1172.647
232,0.384867,1172.051
233,0.386533,1175.031
234,0.3882,1175.329
235,0.389867,1175.329
236,0.391533,1178.011
237,0.3932,1176.894
238,0.394867,1176.894
239,0.396533,1179.054
240,0.398317,1183.972
241,0.399867,1183.972
242,0.401533,1183.972
243,0.4032,1187.548
244,0.404867,1188.293
245,0.406533,1188.889
246,0.4082,1188.889
247,0.40985,1193.807
248,0.411517,1199.022
249,0.413183,1206.323
250,0.414867,1206.323
251,0.416533,1217.872
252,0.418233,1238.584
253,0.419933,1267.865
254,0.421517,1267.865
255,0.423183,1313.686
256,0.42485,1377.612
257,0.426517,1377.612
258,0.428183,1466.87
259,0.42985,1586.75
260,0.431517,1747.087
261,0.433183,1747.087
262,0.43485,1961.887
263,0.436517,2241.731
264,0.438183,2598.39
265,0.43985,2598.39
266,0.441517,3037.453
267,0.443183,3569.573
268,0.44485,4201.084
269,0.446517,4201.084
270,0.448183,4941.97
271,0.44985,5795.732
272,0.451517,5795.732
273,0.453183,6756.932
274,0.45485,7819.086
275,0.456517,8972.511
276,0.458183,8972.511
277,0.45985,10206.104
278,0.461517,11504.665
279,0.463183,12853.295
280,0.46485,12853.295
281,0.466517,14228.522
282,0.468183,15612.096
283,0.469833,16978.01
284,0.4715,16978.01
285,0.473167,18307.045
286,0.474833,19576.699
287,0.4765,19576.699
288,0.478167,20764.023
289,0.479833,21848.902
290,0.4815,22811.814
291,0.483217,22811.814
292,0.484833,23640.916
293,0.486533,24321.377
294,0.488167,24851.039
295,0.489867,24851.039
296,0.4915,25225.953
297,0.493167,25446.191
298,0.494833,25515.035
299,0.4965,25515.035
300,0.498167,25441.273
301,0.499833,25229.752
302,0.5014999999999999,25229.752
303,0.503167,24894.477
304,0.504833,24457.35
305,0.5065,23924.635
306,0.508167,23924.635
307,0.509833,23316.443
308,0.5115,22644.699
309,0.513167,21918.863
310,0.514833,21918.863
311,0.516617,21158.83
312,0.518167,20370.707
313,0.519833,19569.77
314,0.5215,19569.77
315,0.523167,18758.699
316,0.524833,17949.045
317,0.5265,17152.279
318,0.5281670000000001,17152.279
319,0.529833,16370.564
320,0.531483,15607.998
321,0.53315,15607.998
322,0.534817,14871.434
323,0.536483,14155.135
324,0.53815,13465.285
325,0.539817,13465.285
326,0.541483,12805.462
327,0.54315,12174.1
328,0.544817,11570.677
329,0.5464830000000001,11570.677
330,0.54815,10996.089
331,0.549817,10455.921
332,0.5514829999999999,9940.638999999999
333,0.55315,9940.638999999999
334,0.554817,9458.288
335,0.5564829999999999,9004.175999999999
336,0.55815,9004.175999999999
337,0.559817,8572.191000000001
338,0.561517,8163.601
339,0.56315,7782.131
340,0.564817,7782.131
341,0.566483,7421.375
342,0.56815,7083.565
343,0.569817,6767.139
344,0.571483,6767.139
345,0.573167,6467.104
346,0.574817,6187.111
347,0.576483,5923.286
348,0.5781500000000001,5923.286
349,0.579817,5676.299
350,0.581483,5442.276
351,0.5831499999999999,5222.187
352,0.584817,5222.187
353,0.586483,5018.488
354,0.58815,4828.498
355,0.5898,4828.498
356,0.591467,4653.707
357,0.593133,4487.634
358,0.594783,4328.042
359,0.59645,4328.042
360,0.598117,4178.583
361,0.599783,4036.948
362,0.6015,3906.042
363,0.603117,3906.042
364,0.604783,3781.542
365,0.60645,3664.494
366,0.608117,3555.491
367,0.609783,3555.491
368,0.61145,3450.289
369,0.613117,3355.741
370,0.614783,3355.741
371,0.6164500000000001,3264.919
372,0.618117,3177.822
373,0.619783,3097.132
374,0.6214499999999999,3097.132
375,0.623117,3018.081
376,0.624783,2944.544
377,0.62645,2875.328
378,0.628117,2875.328
379,0.629783,2808.943
380,0.63145,2749.413
381,0.633117,2694.13
382,0.6348,2694.13
383,0.63645,2638.549
384,0.638117,2585.426
385,0.639783,2532.452
386,0.64145,2532.452
387,0.643117,2482.012
388,0.644783,2435.744
389,0.64645,2435.744
390,0.6481170000000001,2391.785
391,0.649767,2349.392
392,0.651433,2308.339
393,0.6531,2308.339
394,0.654767,2272.576
395,0.656433,2237.484
396,0.6581,2204.254
397,0.659767,2204.254
398,0.661433,2173.409
399,0.663133,2141.893
400,0.664767,2113.283
401,0.6664330000000001,2113.283
402,0.6681,2087.504
403,0.669767,2057.105
404,0.6714329999999999,2057.105
405,0.6731,2031.848
406,0.674767,2007.484
407,0.676433,1984.686
408,0.6781,1984.686
409,0.679767,1964.793
410,0.681433,1942.515
411,0.6831,1923.74
412,0.684767,1923.74
413,0.686433,1900.271
414,0.6881,1880.303
415,0.689767,1858.547
416,0.691433,1858.547
417,0.6931,1837.537
418,0.694767,1820.996
419,0.696433,1820.996
420,0.6981000000000001,1804.68
421,0.699767,1791.492
422,0.701433,1776.144
423,0.7030999999999999,1776.144
424,0.704767,1758.635
425,0.706467,1744.777
426,0.7081,1728.982
427,0.70975,1728.982
428,0.711417,1715.049
429,0.713083,1706.108
430,0.71475,1694.113
431,0.716417,1694.113
432,0.718083,1683.608
433,0.71975,1672.059
434,0.721417,1661.554
435,0.723083,1661.554
436,0.72475,1653.06
437,0.726417,1642.555
438,0.728083,1642.555
439,0.72975,1632.646
440,0.731417,1622.96
441,0.733083,1611.039
442,0.73475,1611.039
443,0.736533,1599.714
444,0.738083,1590.103
445,0.739767,1580.641
446,0.741417,1580.641
447,0.743083,1572.818
448,0.74475,1568.198
449,0.746417,1562.834
450,0.7480830000000001,1562.834
451,0.74975,1552.925
452,0.751417,1544.058
453,0.7532,1536.012
454,0.75475,1536.012
455,0.756417,1530.275
456,0.758083,1526.177
457,0.75975,1526.177
458,0.761417,1520.515
459,0.763083,1514.479
460,0.76475,1507.849
461,0.766417,1507.849
462,0.768083,1503.006
463,0.769733,1496.673
464,0.7714,1491.383
465,0.7730669999999999,1491.383
466,0.774733,1485.571
467,0.7764,1478.791
468,0.778067,1476.333
469,0.779733,1476.333
470,0.7814,1468.435
471,0.783067,1461.282
472,0.784767,1461.282
473,0.7864,1457.036
474,0.788067,1449.659
475,0.789733,1448.914
476,0.7914,1448.914
477,0.793067,1447.126
478,0.794733,1441.613
479,0.7964,1438.26
480,0.798067,1438.26
481,0.799733,1434.684
482,0.8014,1430.288
483,0.803067,1425.147
484,0.804733,1425.147
485,0.8064,1420.528
486,0.808067,1414.865
487,0.809733,1414.865
488,0.8114,1410.618
489,0.813067,1407.638
490,0.814733,1403.093
491,0.8164,1403.093
492,0.818067,1394.227
493,0.819733,1391.917
494,0.821433,1389.98
495,0.823067,1389.98
496,0.824733,1389.533
497,0.8264,1392.141
498,0.828067,1389.757
499,0.829717,1389.757
500,0.831383,1388.267
501,0.83305,1385.212
502,0.834717,1382.53
503,0.836383,1382.53
504,0.83805,1378.059
505,0.839717,1374.483
506,0.841383,1374.483
507,0.84305,1374.185
508,0.8447170000000001,1369.64
509,0.846383,1364.946
510,0.84805,1364.946
511,0.8497169999999999,1363.903
512,0.851383,1360.401
513,0.853083,1358.688
514,0.8548,1358.688
515,0.856383,1359.582
516,0.85805,1355.261
517,0.859717,1352.504
518,0.861383,1352.504
519,0.86305,1352.057
520,0.864717,1349.449
521,0.866383,1349.449
522,0.86805,1346.394
523,0.869717,1344.234
524,0.871467,1343.563
525,0.87305,1343.563
526,0.874717,1340.881
527,0.876383,1338.199
528,0.87805,1332.983
529,0.879717,1332.983
530,0.881383,1328.215
531,0.88305,1326.576
532,0.8847,1326.278
533,0.886367,1326.278
534,0.888117,1327.321
535,0.889683,1325.831
536,0.89135,1325.831
537,0.8930169999999999,1324.043
538,0.894683,1324.564
539,0.89635,1325.16
540,0.898017,1325.16
541,0.899683,1322.776
542,0.90135,1320.392
543,0.903017,1319.498
544,0.904683,1319.498
545,0.90635,1317.859
546,0.908017,1318.231
547,0.909683,1319.2
548,0.91135,1319.2
549,0.91305,1316.518
550,0.914683,1311.377
551,0.91635,1307.651
552,0.918017,1307.651
553,0.919683,1302.958
554,0.92135,1298.413
555,0.923017,1298.413
556,0.924683,1296.774
557,0.9264,1293.495
558,0.928017,1293.048
559,0.929683,1293.048
560,0.93135,1291.558
561,0.933017,1291.26
562,0.934683,1292.154
563,0.93635,1292.154
564,0.938017,1291.037
565,0.939683,1292.378
566,0.94135,1292.899
567,0.943017,1292.899
568,0.9446830000000001,1290.739
569,0.94635,1287.907
570,0.948017,1287.907
571,0.949667,1287.758
572,0.951333,1283.958
573,0.953,1284.778
574,0.954667,1284.778
575,0.956333,1285.97
576,0.958,1285.076
577,0.959667,1285.225
578,0.961333,1285.225
579,0.963,1284.033
580,0.9646670000000001,1284.331
581,0.966333,1281.053
582,0.968,1281.053
583,0.9696669999999999,1279.563
584,0.971333,1278.296
585,0.97305,1275.539
586,0.974667,1275.539
587,0.976333,1275.167
588,0.978,1275.092
589,0.979667,1275.092
590,0.981333,1276.061
591,0.983,1273.23
592,0.984667,1270.995
593,0.986333,1270.995
594,0.988,1268.536
595,0.989717,1267.046
596,0.99135,1268.461
597,0.993,1268.461
598,0.994667,1268.908
599,0.996333,1270.25
600,0.9980329999999999,1268.089
601,0.999667,1268.089
602,1.001333,1267.716
603,1.003,1269.281
604,1.004667,1269.281
605,1.006433,1266.301
606,1.008,1265.258
607,1.00965,1261.16
608,1.011317,1261.16
609,1.012983,1256.093
610,1.01465,1256.615
611,1.016317,1257.733
612,1.017983,1257.733
613,1.01965,1259.968
614,1.021317,1260.713
615,1.022983,1259.744
616,1.02465,1259.744
617,1.026317,1257.434
618,1.027983,1255.423
619,1.02965,1253.113
620,1.031317,1253.113
621,1.032983,1252.815
622,1.03465,1251.996
623,1.036317,1251.996
624,1.037983,1252.517
625,1.03965,1251.25
626,1.041317,1249.388
627,1.042983,1249.388
628,1.04465,1248.941
629,1.046333,1249.015
630,1.047983,1251.772
631,1.04965,1251.772
632,1.051317,1252.294
633,1.052983,1252.07
634,1.05465,1249.239
635,1.056317,1249.239
636,1.057983,1248.866
637,1.05965,1249.835
638,1.061317,1249.835
639,1.062983,1248.494
640,1.064667,1250.505
641,1.066367,1249.462
642,1.067967,1249.462
643,1.069633,1247.749
644,1.0713,1247.972
645,1.072967,1246.333
646,1.074633,1246.333
647,1.0763,1246.184
648,1.077967,1243.576
649,1.079633,1242.608
650,1.0813,1242.608
651,1.082967,1240.522
652,1.084633,1237.541
653,1.0863,1237.541
654,1.087967,1239.479
655,1.089633,1241.714
656,1.0913,1243.427
657,1.092967,1243.427
658,1.094633,1246.259
659,1.0963,1246.259
660,1.097967,1242.906
661,1.099633,1242.906
662,1.1013,1242.012
663,1.102967,1240.596
664,1.104633,1238.361
665,1.1063,1238.361
666,1.107967,1240.671
667,1.109633,1239.404
668,1.1113,1239.181
669,1.112967,1239.181
670,1.114633,1240.075
671,1.1163,1237.02
672,1.117967,1237.02
673,1.119633,1234.785
674,1.1213,1232.922
675,1.122967,1229.569
676,1.1247,1229.569
677,1.1263,1228.601
678,1.12795,1230.836
679,1.129617,1231.804
680,1.131283,1231.804
681,1.13295,1234.412
682,1.134617,1232.55
683,1.136283,1233.146
684,1.13795,1233.146
685,1.139617,1231.804
686,1.141283,1229.942
687,1.14295,1229.942
688,1.1447,1230.016
689,1.146283,1226.44
690,1.14795,1225.323
691,1.149617,1225.323
692,1.151283,1227.036
693,1.15295,1230.091
694,1.154617,1233.816
695,1.156283,1233.816
696,1.15795,1233.22
697,1.159617,1230.985
698,1.161283,1230.91
699,1.16295,1230.91
700,1.164617,1227.707
701,1.166283,1227.93
702,1.16795,1227.632
703,1.169617,1227.632
704,1.171283,1227.036
705,1.17295,1229.197
706,1.174617,1229.197
707,1.176267,1229.271
708,1.177933,1232.699
709,1.1796,1230.91
710,1.181267,1230.91
711,1.182933,1227.036
712,1.1846,1228.526
713,1.186267,1227.483
714,1.187933,1227.483
715,1.189583,1227.483
716,1.19125,1227.707
717,1.192917,1224.205
718,1.194583,1224.205
719,1.19625,1223.087
720,1.197917,1226.44
721,1.199583,1226.44
722,1.20125,1227.409
723,1.202917,1226.738
724,1.204583,1223.534
725,1.20625,1223.534
726,1.207917,1218.915
727,1.209683,1216.084
728,1.21125,1217.052
729,1.212917,1217.052
730,1.214583,1217.276
731,1.21625,1219.139
732,1.217917,1221.523
733,1.219583,1221.523
734,1.221267,1223.683
735,1.222917,1223.534
736,1.224583,1222.193
737,1.22625,1222.193
738,1.227917,1225.024
739,1.229583,1223.311
740,1.23125,1223.311
741,1.232917,1222.864
742,1.234583,1220.256
743,1.23625,1216.084
744,1.237917,1216.084
745,1.239583,1218.021
746,1.24125,1216.754
747,1.243033,1219.064
748,1.244583,1219.064
749,1.246233,1219.734
750,1.247917,1215.711
751,1.249567,1218.617
752,1.251233,1218.617
753,1.2529,1218.84
754,1.254567,1219.139
755,1.256233,1219.139
756,1.2579,1219.958
757,1.259567,1218.542
758,1.261233,1217.425
759,1.2629,1217.425
760,1.264567,1214.072
761,1.266233,1215.19
762,1.2679,1213.774
763,1.269567,1213.774
764,1.271233,1211.911
765,1.2729,1213.849
766,1.274567,1211.986
767,1.276233,1211.986
768,1.2779,1211.241
769,1.279567,1212.209
770,1.281233,1212.209
771,1.2829,1212.284
772,1.284583,1212.731
773,1.286233,1213.774
774,1.2879,1213.774
775,1.289567,1215.041
776,1.291233,1216.382
777,1.2929,1216.978
778,1.2946,1216.978
779,1.296233,1219.064
780,1.2979,1217.574
781,1.299567,1215.935
782,1.301233,1215.935
783,1.3029,1216.158
784,1.304567,1211.539
785,1.306233,1210.049
786,1.307883,1210.049
787,1.30955,1209.676
788,1.311217,1205.802
789,1.312883,1205.802
790,1.31455,1208.559
791,1.316217,1209.006
792,1.317883,1206.845
793,1.31955,1206.845
794,1.321217,1206.92
795,1.322883,1207.739
796,1.32455,1206.696
797,1.326217,1206.696
798,1.327933,1209.527
799,1.32955,1209.155
800,1.331217,1206.994
801,1.332883,1206.994
802,1.33455,1209.453
803,1.336217,1209.453
804,1.337883,1209.453
805,1.33955,1213.327
806,1.341217,1212.88
807,1.342883,1213.551
808,1.34455,1213.551
809,1.346217,1211.539
810,1.347883,1207.814
811,1.34955,1209.527
812,1.351217,1209.527
813,1.352883,1208.112
814,1.35455,1206.92
815,1.356217,1207.218
816,1.357883,1207.218
817,1.35955,1207.665
818,1.361267,1207.441
819,1.362883,1208.112
820,1.36455,1208.112
821,1.366217,1208.484
822,1.367883,1205.355
823,1.369533,1205.355
824,1.3712,1206.026
825,1.372867,1209.378
826,1.374533,1210.868
827,1.3762,1210.868
828,1.377867,1209.751
829,1.379533,1209.08
830,1.3812,1206.026
831,1.382867,1206.026
832,1.384533,1203.79
833,1.38625,1204.684
834,1.387867,1201.555
835,1.389533,1201.555
836,1.3912,1204.386
837,1.392867,1204.163
838,1.394533,1204.163
839,1.3962,1206.026
840,1.397867,1208.782
841,1.399533,1206.473
842,1.4012,1206.473
843,1.402867,1206.547
844,1.404533,1205.355
845,1.4062,1204.386
846,1.407867,1204.386
847,1.409533,1203.492
848,1.4112,1205.876
849,1.412867,1205.802
850,1.414533,1205.802
851,1.4162,1206.92
852,1.417867,1206.771
853,1.419533,1205.355
854,1.4212,1205.355
855,1.422867,1204.014
856,1.424533,1202.002
857,1.4262,1202.002
858,1.427867,1202.449
859,1.429533,1201.257
860,1.431233,1202.077
861,1.43285,1202.077
862,1.434517,1202.226
863,1.436183,1203.865
864,1.43785,1203.269
865,1.439517,1203.269
866,1.441183,1201.406
867,1.44285,1201.928
868,1.444517,1199.618
869,1.446217,1199.618
870,1.44785,1201.853
871,1.449533,1202.747
872,1.451183,1202.747
873,1.45285,1202.151
874,1.454517,1203.716
875,1.456183,1202.449
876,1.45785,1202.449
877,1.459517,1201.257
878,1.461183,1200.363
879,1.46295,1199.171
880,1.46455,1199.171
881,1.466183,1197.308
882,1.467833,1199.096
883,1.4695,1199.99
884,1.471167,1199.99
885,1.472833,1198.798
886,1.4745,1200.736
887,1.476167,1200.736
888,1.477833,1202.747
889,1.4795,1201.183
890,1.481167,1202.673
891,1.482833,1202.673
892,1.4845,1200.736
893,1.486167,1198.5
894,1.487817,1202.151
895,1.489483,1202.151
896,1.49115,1201.406
897,1.492817,1205.206
898,1.494483,1204.312
899,1.49615,1204.312
900,1.497817,1198.724
901,1.499483,1197.457
902,1.50115,1194.775
903,1.502817,1194.775
904,1.504483,1195.52
905,1.50615,1200.14
906,1.507867,1200.14
907,1.509483,1200.736
908,1.51115,1201.704
909,1.512817,1201.779
910,1.514483,1201.779
911,1.51615,1198.947
912,1.517817,1199.543
913,1.519483,1199.096
914,1.52115,1199.096
915,1.522817,1200.81
916,1.524483,1200.959
917,1.52615,1198.649
918,1.527817,1198.649
