"ID","sea_time","fid_signal"
1,0,1186.729
2,0.001667,1184.419
3,0.003333,1181.215
4,0.005,1181.215
5,0.006667,1179.203
6,0.008449999999999999,1176.521
7,0.01,1173.988
8,0.011667,1173.988
9,0.013333,1176.447
10,0.015,1178.16
11,0.016667,1176.894
12,0.018333,1176.894
13,0.02,1176.447
14,0.021667,1175.627
15,0.023317,1175.627
16,0.024983,1176.67
17,0.02665,1181.439
18,0.028317,1186.877
19,0.029983,1186.877
20,0.03165,1188.517
21,0.033317,1188.07
22,0.034983,1186.058
23,0.03665,1186.058
24,0.038317,1183.972
25,0.039983,1182.705
26,0.04165,1182.631
27,0.043317,1182.631
28,0.044983,1186.505
29,0.04665,1186.579
30,0.048317,1186.43
31,0.049983,1186.43
32,0.05165,1185.834
33,0.053317,1181.886
34,0.054983,1181.886
35,0.05665,1180.693
36,0.058317,1178.756
37,0.059983,1180.172
38,0.06165,1180.172
39,0.063317,1179.278
40,0.064983,1181.141
41,0.06665,1182.333
42,0.068317,1182.333
43,0.069967,1181.513
44,0.071633,1184.195
45,0.0733,1181.29
46,0.07496700000000001,1181.29
47,0.07663300000000001,1184.344
48,0.07829999999999999,1183.674
49,0.079967,1183.674
50,0.081633,1185.462
51,0.0833,1188.815
52,0.08495,1186.803
53,0.086617,1186.803
54,0.088283,1189.858
55,0.08995,1186.207
56,0.091617,1186.505
57,0.09329999999999999,1186.505
58,0.09495000000000001,1183.748
59,0.09661699999999999,1180.843
60,0.098283,1181.215
61,0.09995,1181.215
62,0.101617,1179.352
63,0.103283,1180.917
64,0.10495,1180.843
65,0.106617,1180.843
66,0.108283,1181.29
67,0.109983,1181.066
68,0.111617,1181.066
69,0.113283,1181.96
70,0.11495,1181.662
71,0.116617,1181.29
72,0.118283,1181.29
73,0.11995,1181.364
74,0.121617,1179.203
75,0.123283,1180.545
76,0.12495,1180.545
77,0.1267,1180.992
78,0.128283,1180.843
79,0.12995,1180.693
80,0.131617,1180.693
81,0.133283,1179.427
82,0.13495,1179.352
83,0.136617,1179.352
84,0.138283,1180.843
85,0.13995,1182.109
86,0.141617,1182.184
87,0.143283,1182.184
88,0.14495,1182.109
89,0.1466,1179.054
90,0.148267,1182.109
91,0.149933,1182.109
92,0.1516,1185.238
93,0.153267,1188.442
94,0.154933,1190.007
95,0.1566,1190.007
96,0.158267,1188.293
97,0.159933,1187.623
98,0.1616,1183.376
99,0.163267,1183.376
100,0.164933,1182.78
101,0.1666,1181.215
102,0.168283,1181.215
103,0.169933,1178.756
104,0.1716,1182.035
105,0.173267,1182.556
106,0.174933,1182.556
107,0.1766,1182.929
108,0.178267,1182.556
109,0.179933,1182.482
110,0.1816,1182.482
111,0.183267,1182.929
112,0.184933,1185.015
113,0.186617,1186.356
114,0.188267,1186.356
115,0.189933,1185.462
116,0.1916,1185.164
117,0.193267,1185.164
118,0.194933,1183.748
119,0.1966,1183.748
120,0.198267,1183.45
121,0.199933,1183.45
122,0.2016,1186.058
123,0.20325,1184.493
124,0.204917,1183.599
125,0.206583,1183.599
126,0.20825,1182.631
127,0.209917,1179.725
128,0.21165,1179.725
129,0.21325,1179.725
130,0.214917,1178.607
131,0.216583,1176.298
132,0.21825,1176.298
133,0.219917,1177.043
134,0.221583,1177.788
135,0.22325,1179.948
136,0.224917,1179.948
137,0.226583,1185.015
138,0.22825,1187.995
139,0.229917,1190.826
140,0.231583,1190.826
141,0.23325,1187.399
142,0.234917,1184.195
143,0.236583,1182.333
144,0.23825,1182.333
145,0.239917,1181.737
146,0.241583,1188.666
147,0.24325,1190.677
148,0.245,1190.677
149,0.2466,1189.56
150,0.24825,1185.164
151,0.249917,1185.164
152,0.251583,1178.831
153,0.25325,1174.882
154,0.254917,1172.796
155,0.256583,1172.796
156,0.25825,1175.702
157,0.259917,1177.937
158,0.261583,1178.756
159,0.26325,1178.756
160,0.264917,1178.682
161,0.266567,1176.819
162,0.268233,1178.831
163,0.2699,1178.831
164,0.271567,1182.631
165,0.273233,1184.27
166,0.2749,1184.27
167,0.276567,1186.729
168,0.278233,1184.195
169,0.2799,1183.972
170,0.281567,1183.972
171,0.283233,1186.952
172,0.2849,1187.772
173,0.286567,1192.391
174,0.288233,1192.391
175,0.2899,1189.634
176,0.291567,1186.43
177,0.293233,1186.43
178,0.2949,1186.43
179,0.296567,1183.301
180,0.298233,1184.27
181,0.2999,1183.823
182,0.301567,1183.823
183,0.303233,1183.525
184,0.3049,1183.748
185,0.306567,1183.748
186,0.308233,1187.548
187,0.3099,1191.72
188,0.311567,1190.826
189,0.313233,1190.826
190,0.3149,1189.932
191,0.316567,1186.207
192,0.318233,1182.78
193,0.3199,1182.78
194,0.321567,1181.364
195,0.323233,1180.768
196,0.324883,1177.862
197,0.32655,1177.862
198,0.328233,1179.427
199,0.33,1179.278
200,0.331567,1179.278
201,0.333217,1178.98
202,0.334883,1184.27
203,0.33655,1184.717
204,0.338217,1184.717
205,0.339883,1184.791
206,0.34155,1188.815
207,0.343217,1188.889
208,0.344883,1188.889
209,0.346633,1186.877
210,0.348217,1189.113
211,0.349883,1185.089
212,0.35155,1185.089
213,0.353217,1184.121
214,0.354883,1183.972
215,0.35655,1185.313
216,0.358217,1185.313
217,0.359883,1187.399
218,0.361533,1187.474
219,0.3633,1187.474
220,0.364867,1190.901
221,0.366533,1191.199
222,0.3682,1196.116
223,0.369867,1196.116
224,0.371533,1203.641
225,0.3732,1210.198
226,0.374867,1214.296
227,0.376533,1214.296
228,0.3782,1218.17
229,0.379867,1222.342
230,0.381533,1228.75
231,0.3832,1228.75
232,0.384867,1237.392
233,0.386517,1242.533
234,0.388183,1242.533
235,0.38985,1245.365
236,0.391517,1249.909
237,0.393183,1255.944
238,0.39485,1255.944
239,0.396517,1266.226
240,0.398183,1277.626
241,0.39985,1284.406
242,0.401517,1284.406
243,0.403183,1290.888
244,0.404867,1294.911
245,0.4066,1300.573
246,0.408183,1300.573
247,0.40985,1308.396
248,0.411517,1318.753
249,0.413183,1318.753
250,0.41485,1328.588
251,0.416517,1336.262
252,0.418183,1345.575
253,0.41985,1345.575
254,0.421517,1354.143
255,0.423183,1366.287
256,0.42485,1378.879
257,0.426517,1378.879
258,0.428183,1394.078
259,0.42985,1415.238
260,0.431517,1443.401
261,0.433183,1443.401
262,0.43485,1483.262
263,0.436517,1541.674
264,0.438183,1626.387
265,0.43985,1626.387
266,0.441517,1740.456
267,0.443167,1902.506
268,0.444833,1902.506
269,0.4465,2120.51
270,0.4482,2406.016
271,0.449833,2778.322
272,0.4515,2778.322
273,0.453167,3240.928
274,0.454833,3806.055
275,0.4565,4478.544
276,0.458167,4478.544
277,0.459833,5261.004
278,0.4615,6156.713
279,0.463167,7158.369
280,0.464833,7158.369
281,0.4665,8270.294
282,0.468167,9487.941000000001
283,0.469833,9487.941000000001
284,0.4715,10805.949
285,0.473167,12222.826
286,0.474833,13727.322
287,0.4765,13727.322
288,0.478167,15316.531
289,0.479867,16990.154
290,0.4816,18740.52
291,0.483167,18740.52
292,0.484833,20567.18
293,0.4865,22463.873
294,0.488167,24425.313
295,0.489833,24425.313
296,0.4915,26448.146
297,0.493167,28528.496
298,0.494833,30654.893
299,0.4965,30654.893
300,0.498167,32825.32
301,0.499833,35033.82
302,0.5014999999999999,35033.82
303,0.503167,37264.453
304,0.504817,39519.594
305,0.506483,41792.543
306,0.50815,41792.543
307,0.509817,44072.941
308,0.511483,46358.406
309,0.51315,48640.891
310,0.514817,48640.891
311,0.516483,50908.996
312,0.51815,53156.914
313,0.519817,55377.484
314,0.521483,55377.484
315,0.52315,57573.094
316,0.524817,59737.563
317,0.526483,59737.563
318,0.52815,61871.113
319,0.529817,63969.789
320,0.531483,66019.29700000001
321,0.53315,66019.29700000001
322,0.534817,68010.539
323,0.536483,69940.391
324,0.53815,71802.141
325,0.539817,71802.141
326,0.541483,73591.023
327,0.543167,75297.20299999999
328,0.544817,76916.289
329,0.5464830000000001,76916.289
330,0.54815,78441.57799999999
331,0.549817,79862.398
332,0.5514829999999999,81171.914
333,0.55315,81171.914
334,0.554817,82354.25
335,0.5564829999999999,83391.44500000001
336,0.558167,83391.44500000001
337,0.559817,84269.492
338,0.561483,84980.5
339,0.563133,85510.461
340,0.5648,85510.461
341,0.5664670000000001,85844.469
342,0.568133,85965.766
343,0.5698,85851.031
344,0.571483,85851.031
345,0.573133,85476.18799999999
346,0.5748,84828.508
347,0.576467,83895.17999999999
348,0.578133,83895.17999999999
349,0.5798,82680.133
350,0.581467,81195.977
351,0.583233,79468.414
352,0.5848,79468.414
353,0.586467,77536.031
354,0.588133,75442.641
355,0.5898,75442.641
356,0.591467,73237.04700000001
357,0.593133,70963.05499999999
358,0.5948,68662.836
359,0.596467,68662.836
360,0.598133,66366.867
361,0.5998830000000001,64096.227
362,0.601467,61872.973
363,0.603133,61872.973
364,0.6048,59713.125
365,0.606467,57621.598
366,0.608133,55610.465
367,0.6098,55610.465
368,0.611467,53681.582
369,0.613133,51827.059
370,0.6148,51827.059
371,0.616583,50051.211
372,0.618133,48348.977
373,0.619833,46716.781
374,0.621467,46716.781
375,0.623133,45157.746
376,0.6248,43662.34
377,0.62645,42227.508
378,0.628117,42227.508
379,0.629783,40851.16
380,0.63145,39533.152
381,0.633117,38275.719
382,0.634783,38275.719
383,0.63645,37075.652
384,0.638117,35930.945
385,0.639783,35930.945
386,0.64145,34836.309
387,0.643117,33787.637
388,0.644783,32783
389,0.64645,32783
390,0.6481170000000001,31823.293
391,0.649783,30901.283
392,0.65145,30015.26
393,0.6531,30015.26
394,0.654767,29163.957
395,0.656433,28346.031
396,0.6581,27563.125
397,0.659767,27563.125
398,0.661433,26815.012
399,0.6631,26096.18
400,0.664767,26096.18
401,0.6664330000000001,25400.967
402,0.6681,24726.912
403,0.669767,24075.732
404,0.6714329999999999,24075.732
405,0.6731,23450.105
406,0.674767,22850.559
407,0.676433,22277.609
408,0.6781,22277.609
409,0.679767,21727.531
410,0.681433,21200.479
411,0.6831,20690.262
412,0.684817,20690.262
413,0.6864170000000001,20201.729
414,0.688083,19729.883
415,0.68975,19272.045
416,0.6914169999999999,19272.045
417,0.693083,18833.801
418,0.69475,18412.172
419,0.696417,18412.172
420,0.698083,18000.23
421,0.69975,17606.244
422,0.701483,17221.271
423,0.703083,17221.271
424,0.70475,16845.838
425,0.706417,16488.656
426,0.708083,16140.565
427,0.70975,16140.565
428,0.711417,15808.493
429,0.713083,15486.926
430,0.71475,15173.629
431,0.716417,15173.629
432,0.71815,14874.488
433,0.71975,14580.339
434,0.721417,14580.339
435,0.723083,14293.716
436,0.72475,14020.204
437,0.726417,13754.293
438,0.728083,13754.293
439,0.72975,13499.781
440,0.731417,13249.665
441,0.733083,13004.318
442,0.734867,13004.318
443,0.736433,12765.005
444,0.738083,12529.269
445,0.73975,12306.124
446,0.741417,12306.124
447,0.743083,12089.61
448,0.744733,11878.982
449,0.746417,11675.357
450,0.748067,11675.357
451,0.749733,11474.714
452,0.7514,11281.743
453,0.753067,11281.743
454,0.754733,11092.126
455,0.7564,10911.077
456,0.758067,10738.597
457,0.759767,10738.597
458,0.7614,10566.488
459,0.7630670000000001,10399.669
460,0.764733,10235.533
461,0.7664,10235.533
462,0.7680670000000001,10074.005
463,0.769733,9920.448
464,0.7714,9770.468000000001
465,0.7730669999999999,9770.468000000001
466,0.774733,9627.192999999999
467,0.7764,9482.279
468,0.778067,9482.279
469,0.779733,9340.569
470,0.7814,9201.169
471,0.783067,9067.804
472,0.784733,9067.804
473,0.7864,8943.677
474,0.788067,8817.837
475,0.789733,8698.701999999999
476,0.7914,8698.701999999999
477,0.793067,8580.163
478,0.794733,8462.519
479,0.7964,8350.610000000001
480,0.798067,8350.610000000001
481,0.799733,8239.745999999999
482,0.8014,8130.074
483,0.803067,8023.009
484,0.804733,8023.009
485,0.806383,7920.34
486,0.80805,7822.29
487,0.809717,7822.29
488,0.811383,7725.582
489,0.8130500000000001,7630.959
490,0.814717,7540.435
491,0.816383,7540.435
492,0.8180500000000001,7448.271
493,0.819717,7359.684
494,0.821383,7271.32
495,0.8230499999999999,7271.32
496,0.824717,7182.583
497,0.826383,7097.125
498,0.82805,7011.071
499,0.829717,7011.071
500,0.831383,6929.562
501,0.83305,6850.809
502,0.834717,6850.809
503,0.836383,6776.08
504,0.83805,6705.15
505,0.839717,6635.487
506,0.841383,6635.487
507,0.84305,6565.079
508,0.8447170000000001,6491.765
509,0.846383,6422.4
510,0.84805,6422.4
511,0.8497169999999999,6356.239
512,0.851383,6290.302
513,0.85315,6227.866
514,0.8547169999999999,6227.866
515,0.856383,6162.524
516,0.85805,6096.959
517,0.859717,6096.959
518,0.861383,6032.958
519,0.8630330000000001,5971.119
520,0.8647,5911.216
521,0.866367,5911.216
522,0.8680330000000001,5854.89
523,0.8697,5801.171
524,0.871367,5744.994
525,0.8730329999999999,5744.994
526,0.8747,5689.487
527,0.876367,5634.65
528,0.878033,5582.199
529,0.8797,5582.199
530,0.881367,5529.523
531,0.883033,5478.785
532,0.8847,5428.121
533,0.886367,5428.121
534,0.888033,5377.159
535,0.8897,5330.369
536,0.891367,5330.369
537,0.89305,5286.411
538,0.894717,5244.24
539,0.896367,5202.89
540,0.898033,5202.89
541,0.8997000000000001,5163.625
542,0.901367,5118.698
543,0.903033,5074.665
544,0.9046999999999999,5074.665
545,0.906367,5033.91
546,0.908033,4990.92
547,0.9097,4953.667
548,0.911367,4953.667
549,0.913033,4911.87
550,0.9147,4870.37
551,0.916367,4870.37
552,0.918033,4830.957
553,0.9197,4792.586
554,0.921367,4755.109
555,0.923033,4755.109
556,0.9247,4718.453
557,0.92635,4682.466
558,0.928017,4644.319
559,0.929683,4644.319
560,0.93135,4609.972
561,0.933017,4576.146
562,0.934683,4543.886
563,0.93635,4543.886
564,0.938017,4511.401
565,0.939683,4482.12
566,0.94135,4450.306
567,0.943017,4450.306
568,0.944667,4420.951
569,0.946333,4393.682
570,0.948,4393.682
571,0.949667,4361.496
572,0.951333,4332.736
573,0.953,4300.773
574,0.9547330000000001,4300.773
575,0.956333,4271.865
576,0.958,4247.576
577,0.959667,4219.189
578,0.961333,4219.189
579,0.963,4191.026
580,0.964717,4162.863
581,0.966333,4134.252
582,0.968,4134.252
583,0.9696669999999999,4108.474
584,0.97145,4083.216
585,0.973,4083.216
586,0.974683,4056.394
587,0.976333,4031.956
588,0.978,4005.06
589,0.979667,4005.06
590,0.981333,3981.888
591,0.983,3959.686
592,0.98465,3935.62
593,0.986317,3935.62
594,0.9879829999999999,3914.386
595,0.98965,3891.587
596,0.991317,3868.416
597,0.9929829999999999,3868.416
598,0.99465,3845.99
599,0.996317,3825.203
600,0.997983,3825.203
601,0.99965,3803.596
602,1.001317,3781.84
603,1.002983,3758.669
604,1.00465,3758.669
605,1.006317,3736.466
606,1.007983,3717.244
607,1.00965,3697.798
608,1.011317,3697.798
609,1.012983,3679.618
610,1.01465,3658.682
611,1.016317,3638.193
612,1.017983,3638.193
613,1.01965,3620.759
614,1.021317,3602.579
615,1.022983,3584.102
616,1.02465,3584.102
617,1.026317,3564.358
618,1.027983,3543.571
619,1.02965,3543.571
620,1.031317,3526.136
621,1.032983,3509.447
622,1.03465,3494.248
623,1.036317,3494.248
624,1.037983,3480.017
625,1.039667,3462.583
626,1.041317,3447.235
627,1.042983,3447.235
628,1.044633,3432.408
629,1.0463,3415.197
630,1.047967,3400.594
631,1.049633,3400.594
632,1.0513,3384.277
633,1.052967,3366.768
634,1.054633,3366.768
635,1.056367,3350.526
636,1.057967,3335.923
637,1.059633,3321.841
638,1.0613,3321.841
639,1.062967,3307.611
640,1.064633,3291.443
641,1.0663,3274.977
642,1.067967,3274.977
643,1.069633,3261.045
644,1.0713,3247.708
645,1.072967,3236.458
646,1.074633,3236.458
647,1.0763,3219.917
648,1.077967,3204.644
649,1.079633,3188.401
650,1.0813,3188.401
651,1.082967,3172.979
652,1.084633,3160.983
653,1.0863,3160.983
654,1.087967,3144.667
655,1.089717,3130.287
656,1.0913,3118.068
657,1.092967,3118.068
658,1.094633,3109.202
659,1.0963,3101.304
660,1.097967,3092.214
661,1.099633,3092.214
662,1.1013,3081.56
663,1.102967,3068.596
664,1.104617,3056.377
665,1.106283,3056.377
666,1.10795,3044.009
667,1.109617,3031.79
668,1.111283,3031.79
669,1.113,3018.156
670,1.114617,3004.67
671,1.116283,2993.047
672,1.11795,2993.047
673,1.119617,2979.636
674,1.121283,2970.397
675,1.12295,2961.829
676,1.124617,2961.829
677,1.126283,2953.783
678,1.12795,2945.512
679,1.129617,2934.113
680,1.1313,2934.113
681,1.13295,2926.514
682,1.134617,2915.338
683,1.136283,2905.428
684,1.13795,2905.428
685,1.139617,2895.221
686,1.141283,2882.704
687,1.14295,2882.704
688,1.144617,2871.454
689,1.146283,2860.799
690,1.14795,2851.114
691,1.149617,2851.114
692,1.151283,2839.789
693,1.15295,2831.519
694,1.154617,2822.354
695,1.156283,2822.354
696,1.15795,2811.998
697,1.159617,2803.728
698,1.161283,2791.956
699,1.16295,2791.956
700,1.164617,2784.208
701,1.166267,2774.82
702,1.167933,2774.82
703,1.1696,2765.06
704,1.171267,2757.087
705,1.172933,2747.104
706,1.174683,2747.104
707,1.176267,2740.026
708,1.177967,2733.469
709,1.1796,2728.254
710,1.181267,2728.254
711,1.182933,2718.866
712,1.1846,2711.937
713,1.186267,2703.816
714,1.187933,2703.816
715,1.1896,2693.161
716,1.191367,2687.499
717,1.192933,2681.166
718,1.1946,2681.166
719,1.196267,2673.864
720,1.197933,2665.147
721,1.1996,2665.147
722,1.201267,2658.367
723,1.20295,2644.956
724,1.2046,2638.325
725,1.206267,2638.325
726,1.207983,2632.588
727,1.2096,2622.753
728,1.211267,2620.295
729,1.212933,2620.295
730,1.2146,2613.887
731,1.216267,2607.703
732,1.217933,2604.947
733,1.2196,2604.947
734,1.221267,2596.974
735,1.222917,2586.246
736,1.224583,2586.246
737,1.22625,2575.964
738,1.227917,2564.266
739,1.229583,2557.263
740,1.23125,2557.263
741,1.232917,2550.185
742,1.234567,2545.64
743,1.236233,2541.319
744,1.2379,2541.319
745,1.239567,2533.272
746,1.241233,2529.025
747,1.2429,2520.233
748,1.244567,2520.233
749,1.246233,2511.293
750,1.2479,2503.395
751,1.249567,2503.395
752,1.251233,2496.094
753,1.2529,2493.784
754,1.254567,2488.643
755,1.256233,2488.643
756,1.2579,2484.024
757,1.259567,2479.479
758,1.261233,2470.761
759,1.2629,2470.761
760,1.264567,2464.578
761,1.266233,2458.17
762,1.2679,2449.155
763,1.269567,2449.155
764,1.271233,2442.822
765,1.2729,2438.5
766,1.274567,2432.764
767,1.276233,2432.764
768,1.2779,2428.74
769,1.279567,2426.058
770,1.281233,2426.058
771,1.2829,2420.694
772,1.28455,2415.553
773,1.286217,2407.134
774,1.287883,2407.134
775,1.28955,2399.758
776,1.291217,2393.797
777,1.292967,2391.86
778,1.29455,2391.86
779,1.296217,2388.433
780,1.297883,2382.621
781,1.29955,2377.257
782,1.301217,2377.257
783,1.302883,2368.54
784,1.30455,2364.665
785,1.306217,2364.665
786,1.307883,2361.908
787,1.30955,2358.258
788,1.311217,2354.011
789,1.312883,2354.011
790,1.31455,2349.913
791,1.316217,2345.145
792,1.317883,2341.494
793,1.31955,2341.494
794,1.32125,2337.098
795,1.322883,2332.926
796,1.32455,2325.699
797,1.326333,2325.699
798,1.327883,2319.142
799,1.32955,2317.205
800,1.331217,2309.68
801,1.332883,2309.68
802,1.33455,2306.551
803,1.336217,2301.186
804,1.337883,2301.186
805,1.33955,2293.81
806,1.341217,2287.701
807,1.342867,2282.411
808,1.344533,2282.411
809,1.3462,2275.705
810,1.347867,2269.894
811,1.349533,2265.349
812,1.3512,2265.349
813,1.352867,2261.028
814,1.354533,2257.302
815,1.3562,2257.377
816,1.357867,2257.377
817,1.359533,2256.185
818,1.3612,2253.056
819,1.362867,2253.056
820,1.364533,2251.342
821,1.3662,2245.158
822,1.367867,2239.645
823,1.369533,2239.645
824,1.3712,2237.409
825,1.372867,2230.555
826,1.374533,2224.52
827,1.3762,2224.52
828,1.377883,2219.677
829,1.37955,2212.823
830,1.3812,2213.12
831,1.382867,2213.12
832,1.384533,2211.258
833,1.3862,2210.811
834,1.387867,2207.682
835,1.389533,2207.682
836,1.3912,2201.721
837,1.392867,2198.741
838,1.394533,2198.741
839,1.3962,2193.898
840,1.397867,2189.577
841,1.399533,2183.914
842,1.4012,2183.914
843,1.402867,2177.954
844,1.404533,2174.005
845,1.406183,2169.311
846,1.40785,2169.311
847,1.409517,2164.468
848,1.4112,2159.774
849,1.41285,2151.057
850,1.414517,2151.057
851,1.416183,2148.673
852,1.41785,2146.14
853,1.419517,2146.14
854,1.421183,2142.787
855,1.42285,2144.128
856,1.424517,2140.179
857,1.426183,2140.179
858,1.427917,2137.273
859,1.429517,2135.56
860,1.431183,2131.984
861,1.43285,2131.984
862,1.434517,2129.227
863,1.436183,2128.854
864,1.43785,2126.172
865,1.439517,2126.172
866,1.441183,2121.106
867,1.44285,2114.102
868,1.444583,2104.565
869,1.446183,2104.565
870,1.44785,2099.35
871,1.449517,2098.829
872,1.451183,2098.829
873,1.45285,2097.711
874,1.454517,2100.691
875,1.456183,2095.103
876,1.45785,2095.103
877,1.459517,2090.633
878,1.461283,2085.716
879,1.46285,2077.892
880,1.464533,2077.892
881,1.466217,2077.743
882,1.467833,2073.497
883,1.4695,2072.677
884,1.471167,2072.677
885,1.472833,2073.944
886,1.4745,2069.548
887,1.476167,2069.548
888,1.477833,2068.281
889,1.4795,2065.897
890,1.481167,2060.235
891,1.482833,2060.235
892,1.4845,2059.191
893,1.486167,2056.733
894,1.487833,2052.933
895,1.4895,2052.933
896,1.491167,2050.251
897,1.492833,2044.29
898,1.4945,2036.765
899,1.496167,2036.765
900,1.497833,2029.836
901,1.4995,2028.197
902,1.501167,2028.197
903,1.502833,2025.813
904,1.5045,2024.844
905,1.506167,2026.409
