"ID","sea_time","fid_signal"
1,0,1236.424
2,0.001683,1236.051
3,0.003333,1236.051
4,0.005,1235.53
5,0.006667,1229.867
6,0.008333,1229.867
7,0.01,1218.468
8,0.011667,1209.527
9,0.013333,1206.174
10,0.015,1206.174
11,0.016667,1209.006
12,0.018433,1215.339
13,0.02,1223.013
14,0.021667,1223.013
15,0.023333,1226.217
16,0.025,1224.503
17,0.026667,1227.93
18,0.028333,1227.93
19,0.03,1226.217
20,0.031667,1224.354
21,0.03335,1224.354
22,0.035,1224.95
23,0.036667,1221.672
24,0.038333,1220.703
25,0.04,1220.703
26,0.041667,1220.405
27,0.043333,1220.927
28,0.044983,1223.907
29,0.04665,1223.907
30,0.048317,1224.354
31,0.049983,1225.323
32,0.05165,1229.197
33,0.053317,1229.197
34,0.054983,1228.526
35,0.05665,1229.495
36,0.058317,1229.495
37,0.059983,1231.283
38,0.06165,1228.899
39,0.063317,1228.973
40,0.064983,1228.973
41,0.06665,1228.154
42,0.068317,1225.248
43,0.069983,1226.217
44,0.07165000000000001,1226.217
45,0.07331699999999999,1226.217
46,0.07498299999999999,1229.346
47,0.07665,1230.091
48,0.078317,1230.091
49,0.079983,1230.538
50,0.08165,1229.346
51,0.083317,1227.93
52,0.084983,1227.93
53,0.08665,1230.91
54,0.08831700000000001,1228.005
55,0.08998299999999999,1228.005
56,0.09165,1230.463
57,0.093317,1231.879
58,0.094983,1232.028
59,0.09665,1232.028
60,0.098317,1234.561
61,0.099983,1235.381
62,0.10165,1233.22
63,0.10335,1233.22
64,0.104967,1230.389
65,0.106633,1229.942
66,0.1083,1227.26
67,0.109967,1227.26
68,0.111633,1229.495
69,0.1133,1232.326
70,0.114967,1232.326
71,0.116633,1231.432
72,0.1183,1232.326
73,0.12005,1229.644
74,0.121633,1229.644
75,0.1233,1229.569
76,0.124967,1228.452
77,0.126633,1227.26
78,0.1283,1227.26
79,0.12995,1230.091
80,0.131617,1227.111
81,0.133283,1227.334
82,0.13495,1227.334
83,0.136683,1229.122
84,0.138283,1227.334
85,0.13995,1230.836
86,0.141617,1230.836
87,0.143283,1230.687
88,0.14495,1227.111
89,0.146617,1227.111
90,0.148283,1225.695
91,0.14995,1224.95
92,0.151617,1227.409
93,0.153283,1227.409
94,0.15495,1232.475
95,0.156617,1232.773
96,0.158283,1231.134
97,0.15995,1231.134
98,0.161617,1232.103
99,0.163267,1231.432
100,0.164933,1234.561
101,0.1666,1234.561
102,0.168267,1233.071
103,0.169933,1232.103
104,0.1716,1232.103
105,0.173267,1230.985
106,0.174933,1229.495
107,0.176617,1232.922
108,0.1783,1232.922
109,0.179933,1230.761
110,0.1816,1230.761
111,0.183267,1232.103
112,0.184933,1232.103
113,0.1866,1230.389
114,0.188267,1231.134
115,0.189933,1230.016
116,0.1916,1230.016
117,0.193267,1228.303
118,0.194933,1226.217
119,0.1966,1227.558
120,0.198267,1227.558
121,0.199933,1229.42
122,0.2016,1227.111
123,0.203267,1227.111
124,0.204933,1229.122
125,0.2066,1228.899
126,0.208267,1225.77
127,0.209933,1225.77
128,0.2116,1226.217
129,0.213267,1223.46
130,0.214933,1220.852
131,0.2166,1220.852
132,0.218267,1224.503
133,0.219933,1227.856
134,0.221667,1232.773
135,0.22325,1232.773
136,0.224917,1236.051
137,0.226583,1235.679
138,0.22825,1235.679
139,0.229917,1236.126
140,0.231583,1232.177
141,0.23325,1227.26
142,0.234917,1227.26
143,0.236583,1223.907
144,0.238317,1222.044
145,0.239917,1224.428
146,0.2416,1224.428
147,0.243267,1228.601
148,0.244917,1230.761
149,0.246583,1229.495
150,0.24825,1229.495
151,0.249917,1226.962
152,0.251583,1223.311
153,0.25325,1223.311
154,0.254983,1222.417
155,0.256583,1224.13
156,0.25825,1226.515
157,0.259917,1226.515
158,0.261583,1228.303
159,0.26325,1226.291
160,0.264917,1224.652
161,0.266583,1224.652
162,0.26825,1224.354
163,0.269917,1224.428
164,0.271683,1226.887
165,0.27325,1226.887
166,0.274917,1229.867
167,0.276583,1231.506
168,0.27825,1232.401
169,0.279917,1232.401
170,0.281583,1232.326
171,0.28325,1228.377
172,0.2849,1228.377
173,0.286567,1224.13
174,0.288233,1226.664
175,0.2899,1224.577
176,0.291567,1224.577
177,0.293233,1225.099
178,0.2949,1226.217
179,0.296567,1223.534
180,0.298233,1223.534
181,0.2999,1227.483
182,0.301567,1227.856
183,0.303233,1226.589
184,0.3049,1226.589
185,0.306567,1225.993
186,0.308233,1225.471
187,0.3099,1225.471
188,0.3116,1226.664
189,0.313233,1228.899
190,0.3149,1229.495
191,0.316567,1229.495
192,0.318233,1225.695
193,0.3199,1224.726
194,0.321567,1223.981
195,0.323233,1223.981
196,0.3249,1226.589
197,0.326567,1228.452
198,0.328233,1229.942
199,0.3299,1229.942
200,0.331567,1229.942
201,0.333233,1226.664
202,0.3349,1229.569
203,0.336567,1229.569
204,0.338233,1228.079
205,0.3399,1229.495
206,0.34155,1229.495
207,0.343233,1231.208
208,0.344883,1226.44
209,0.34655,1228.154
210,0.348217,1228.154
211,0.349883,1230.091
212,0.35155,1233.816
213,0.353217,1239.106
214,0.354883,1239.106
215,0.3566,1239.106
216,0.358217,1240.969
217,0.359883,1239.628
218,0.36155,1239.628
219,0.363217,1239.255
220,0.364883,1242.235
221,0.36655,1242.235
222,0.368217,1242.831
223,0.369883,1247.004
224,0.37155,1252.815
225,0.373267,1252.815
226,0.374883,1256.391
227,0.37655,1260.415
228,0.378217,1264.736
229,0.379883,1264.736
230,0.38155,1267.418
231,0.383217,1272.708
232,0.384883,1280.233
233,0.38655,1280.233
234,0.388217,1288.876
235,0.390033,1296.103
236,0.39155,1302.436
237,0.393217,1302.436
238,0.394883,1308.62
239,0.39655,1312.941
240,0.398217,1312.941
241,0.399883,1322.031
242,0.40155,1333.356
243,0.403217,1341.999
244,0.404883,1341.999
245,0.406533,1350.269
246,0.4082,1359.358
247,0.409867,1369.268
248,0.411533,1369.268
249,0.4132,1378.73
250,0.414867,1389.384
251,0.416533,1397.058
252,0.4182,1397.058
253,0.419867,1406.148
254,0.421517,1423.359
255,0.423183,1423.359
256,0.42485,1443.252
257,0.426517,1472.682
258,0.428183,1510.829
259,0.42985,1510.829
260,0.431517,1562.685
261,0.433183,1637.787
262,0.43485,1741.722
263,0.436517,1741.722
264,0.438183,1889.616
265,0.43985,2090.335
266,0.441517,2355.874
267,0.443183,2355.874
268,0.44485,2703.741
269,0.446517,3135.651
270,0.448183,3135.651
271,0.44985,3667.995
272,0.451517,4306.287
273,0.453183,5051.643
274,0.45485,5051.643
275,0.456517,5914.122
276,0.458183,6886.348
277,0.459883,7970.184
278,0.461517,7970.184
279,0.463183,9163.915999999999
280,0.464833,10460.466
281,0.4665,11859.015
282,0.468167,11859.015
283,0.469833,13353.452
284,0.4715,14936.552
285,0.473167,16602.873
286,0.474867,16602.873
287,0.4765,18345.564
288,0.478167,20162.611
289,0.479833,20162.611
290,0.4815,22052.676
291,0.483167,24009.271
292,0.484833,26030.988
293,0.4865,26030.988
294,0.488167,28114.766
295,0.489833,30249.953
296,0.491533,32436.773
297,0.493167,32436.773
298,0.494833,34661.441
299,0.4965,36920.605
300,0.498167,39208.234
301,0.499833,39208.234
302,0.5014999999999999,41519.402
303,0.503167,43853.371
304,0.504833,43853.371
305,0.5065,46195.09
306,0.508267,48545.824
307,0.509833,50895.961
308,0.5115,50895.961
309,0.513167,53240.879
310,0.514833,55577.605
311,0.5165,57903.828
312,0.518167,57903.828
313,0.519833,60215.891
314,0.5215,62505.305
315,0.523167,64775.57
316,0.524833,64775.57
317,0.526483,67018.344
318,0.528183,69226.398
319,0.529817,71400.258
320,0.531483,71400.258
321,0.53315,73536.18799999999
322,0.534817,75631.07000000001
323,0.536483,75631.07000000001
324,0.53815,77692.125
325,0.539817,79712.04700000001
326,0.541483,81689.211
327,0.54315,81689.211
328,0.544817,83621.961
329,0.5464830000000001,85498.766
330,0.54815,87320.656
331,0.549833,87320.656
332,0.5514829999999999,89082.04700000001
333,0.55315,90778.469
334,0.554817,92408.80499999999
335,0.5564829999999999,92408.80499999999
336,0.55815,93975.219
337,0.559817,95471.219
338,0.561483,95471.219
339,0.56315,96887.57000000001
340,0.564817,98216.016
341,0.566483,99443.19500000001
342,0.56815,99443.19500000001
343,0.569817,100557.359
344,0.571483,101552.531
345,0.57315,102417.992
346,0.574817,102417.992
347,0.576483,103135.703
348,0.5781500000000001,103680.414
349,0.579817,104025.078
350,0.581483,104025.078
351,0.5831499999999999,104139.148
352,0.5848,103976.805
353,0.586467,103484.836
354,0.588133,103484.836
355,0.5898,102605.969
356,0.591467,101276.938
357,0.593167,101276.938
358,0.5948329999999999,99470.469
359,0.596467,97194.609
360,0.598133,94491.617
361,0.5998,94491.617
362,0.601467,91451.484
363,0.603133,88180.602
364,0.6048,84797.219
365,0.606467,84797.219
366,0.608133,81401.469
367,0.6098170000000001,78067.406
368,0.611467,74851.141
369,0.613133,74851.141
370,0.6148,71778.07000000001
371,0.616467,68860.648
372,0.618133,68860.648
373,0.6198,66104.383
374,0.621467,63495.563
375,0.623133,61027.332
376,0.6248,61027.332
377,0.626533,58691.875
378,0.6281330000000001,56481.586
379,0.6298,54394.828
380,0.631467,54394.828
381,0.63315,52421.84
382,0.6348,50551.965
383,0.636483,48776.863
384,0.638133,48776.863
385,0.6398,47085.211
386,0.641467,45470.746
387,0.643133,45470.746
388,0.644783,43931.602
389,0.64645,42463.02
390,0.6481170000000001,41064.172
391,0.649783,41064.172
392,0.65145,39732.383
393,0.6531169999999999,38462.953
394,0.654783,37248.359
395,0.65645,37248.359
396,0.658117,36083.535
397,0.659783,34969.523
398,0.66145,33898.578
399,0.663117,33898.578
400,0.664783,32875.465
401,0.666483,31896.383
402,0.668117,30955.449
403,0.669783,30955.449
404,0.67145,30056.164
405,0.673117,29193.313
406,0.674783,29193.313
407,0.67645,28368.309
408,0.678117,27576.313
409,0.679783,26813.672
410,0.68145,26813.672
411,0.683117,26081.428
412,0.684783,25376.678
413,0.68645,24702.326
414,0.688117,24702.326
415,0.689783,24052.412
416,0.69145,23427.383
417,0.693117,22826.566
418,0.694783,22826.566
419,0.69645,22247.285
420,0.698117,21692.217
421,0.699783,21692.217
422,0.70145,21158.68
423,0.703117,20645.932
424,0.704767,20149.648
425,0.706433,20149.648
426,0.7081,19677.506
427,0.709767,19219.816
428,0.711517,18778.891
429,0.713083,18778.891
430,0.714767,18355.475
431,0.71645,17941.668
432,0.718083,17545.895
433,0.71975,17545.895
434,0.721417,17160.252
435,0.723083,16788.467
436,0.72475,16430.541
437,0.726417,16430.541
438,0.728117,16083.643
439,0.72975,15751.72
440,0.731417,15751.72
441,0.733083,15429.78
442,0.73475,15116.632
443,0.73645,14808.029
444,0.738083,14808.029
445,0.73975,14510.154
446,0.741417,14220.178
447,0.743083,13942.048
448,0.7448669999999999,13942.048
449,0.746417,13679.564
450,0.7480830000000001,13422.146
451,0.74975,13171.732
452,0.751417,13171.732
453,0.7530829999999999,12928.322
454,0.75475,12691.319
455,0.756417,12691.319
456,0.758083,12461.319
457,0.75975,12240.708
458,0.761417,12026.652
459,0.763083,12026.652
460,0.764733,11818.707
461,0.7664,11618.883
462,0.7680670000000001,11422.56
463,0.769733,11422.56
464,0.7714,11232.942
465,0.7730669999999999,11044.666
466,0.774733,10860.711
467,0.7764,10860.711
468,0.778067,10684.729
469,0.779733,10511.651
470,0.7814,10344.759
471,0.783067,10344.759
472,0.784733,10181.367
473,0.7864,10022.223
474,0.788067,10022.223
475,0.789733,9867.623
476,0.7914,9719.58
477,0.793067,9573.177
478,0.794733,9573.177
479,0.7964,9431.02
480,0.798067,9291.916999999999
481,0.799733,9155.272999999999
482,0.8014,9155.272999999999
483,0.803067,9023.397999999999
484,0.804733,8893.162
485,0.8064,8764.342000000001
486,0.808083,8764.342000000001
487,0.809733,8640.811
488,0.8114,8524.433000000001
489,0.813067,8524.433000000001
490,0.814733,8410.364
491,0.8164,8299.647999999999
492,0.818067,8191.764
493,0.819733,8191.764
494,0.8214,8086.413
495,0.823067,7984.117
496,0.824717,7881.597
497,0.826383,7881.597
498,0.82805,7780.567
499,0.8298,7680.729
500,0.831383,7585.063
501,0.83305,7585.063
502,0.834717,7493.496
503,0.836383,7404.313
504,0.83805,7404.313
505,0.839717,7315.204
506,0.841383,7225.424
507,0.84305,7140.562
508,0.8447170000000001,7140.562
509,0.846483,7055.998
510,0.84805,6973.52
511,0.8497169999999999,6896.406
512,0.851383,6896.406
513,0.85305,6817.058
514,0.8547169999999999,6742.179
515,0.856383,6667.599
516,0.85805,6667.599
517,0.859717,6592.274
518,0.861383,6524.101
519,0.863167,6453.842
520,0.864717,6453.842
521,0.866383,6384.253
522,0.86805,6318.167
523,0.869717,6318.167
524,0.871383,6251.335
525,0.87305,6185.397
526,0.874717,6122.366
527,0.876383,6122.366
528,0.87805,6057.844
529,0.879717,5994.588
530,0.881383,5936.026
531,0.883033,5936.026
532,0.8847,5879.179
533,0.886367,5826.503
534,0.888033,5774.722
535,0.8897,5774.722
536,0.891367,5717.874
537,0.893033,5663.708
538,0.8947000000000001,5663.708
539,0.896367,5610.734
540,0.898033,5556.494
541,0.8997000000000001,5509.034
542,0.901367,5509.034
543,0.903033,5462.542
544,0.9046999999999999,5413.518
545,0.906367,5363.822
546,0.908033,5363.822
547,0.9097,5315.319
548,0.911367,5263.686
549,0.913033,5215.63
550,0.9147,5215.63
551,0.916367,5173.534
552,0.918033,5127.564
553,0.9197,5083.829
554,0.921367,5083.829
555,0.923033,5039.424
556,0.9247,4996.062
557,0.9263670000000001,4996.062
558,0.928033,4954.934
559,0.9297,4919.693
560,0.9313669999999999,4881.546
561,0.933033,4881.546
562,0.9347,4844.144
563,0.9363669999999999,4810.021
564,0.938033,4772.842
565,0.9397,4772.842
566,0.941367,4735.291
567,0.943033,4697.74
568,0.9446830000000001,4656.539
569,0.946383,4656.539
570,0.948133,4620.403
571,0.9496830000000001,4589.707
572,0.95135,4589.707
573,0.953017,4558.638
574,0.9546829999999999,4528.538
575,0.95635,4497.618
576,0.958017,4497.618
577,0.959683,4465.059
578,0.96135,4430.86
579,0.963017,4402.771
580,0.96475,4402.771
581,0.96635,4369.617
582,0.968017,4338.547
583,0.969683,4311.949
584,0.97135,4311.949
585,0.973017,4282.892
586,0.974683,4256.144
587,0.9763500000000001,4230.738
588,0.978017,4230.738
589,0.979683,4202.724
590,0.98145,4174.635
591,0.983017,4174.635
592,0.984683,4146.174
593,0.9863499999999999,4118.681
594,0.988017,4094.168
595,0.989683,4094.168
596,0.99135,4069.284
597,0.993017,4046.187
598,0.994683,4019.886
599,0.99635,4019.886
600,0.998017,3992.915
601,0.999683,3966.838
602,1.00135,3942.102
603,1.003,3942.102
604,1.00465,3920.868
605,1.006317,3899.485
606,1.007983,3899.485
607,1.00965,3880.337
608,1.011317,3856.495
609,1.012983,3834.218
610,1.01465,3834.218
611,1.016317,3812.686
612,1.017983,3788.844
613,1.019667,3768.727
614,1.021383,3768.727
615,1.022983,3749.058
616,1.02465,3727.6
617,1.026317,3707.409
618,1.027983,3707.409
619,1.02965,3685.951
620,1.031317,3667.474
621,1.032983,3667.474
622,1.03465,3651.828
623,1.036317,3630.966
624,1.037983,3612.34
625,1.03965,3612.34
626,1.041317,3591.85
627,1.042983,3572.851
628,1.04465,3557.801
629,1.046317,3557.801
630,1.047983,3542.528
631,1.04965,3525.987
632,1.051317,3507.733
633,1.052983,3507.733
634,1.05465,3490.895
635,1.056317,3474.429
636,1.057983,3456.324
637,1.05965,3456.324
638,1.061317,3436.655
639,1.062983,3416.762
640,1.064633,3416.762
641,1.06635,3398.806
642,1.067967,3384.724
643,1.069633,3369.376
644,1.0713,3369.376
645,1.072967,3357.902
646,1.074633,3344.119
647,1.0763,3326.535
648,1.077967,3326.535
649,1.079633,3312.305
650,1.0813,3297.031
651,1.08305,3282.577
652,1.084633,3282.577
653,1.0863,3268.346
654,1.087967,3255.755
655,1.089633,3255.755
656,1.0913,3240.034
657,1.092967,3225.133
658,1.094633,3213.361
659,1.0963,3213.361
660,1.097967,3200.024
661,1.099717,3186.017
662,1.1013,3174.469
663,1.102967,3174.469
664,1.104633,3159.419
665,1.1063,3145.486
666,1.107967,3132.82
667,1.109633,3132.82
668,1.1113,3118.44
669,1.112967,3106.594
670,1.114633,3092.959
671,1.116417,3092.959
672,1.117967,3081.784
673,1.119633,3069.565
674,1.1213,3069.565
675,1.12295,3058.016
676,1.124617,3047.213
677,1.126283,3038.421
678,1.12795,3038.421
679,1.129617,3028.289
680,1.131283,3015.026
681,1.13295,3002.957
682,1.134617,3002.957
683,1.136283,2988.651
684,1.13795,2978.668
685,1.139617,2971.441
686,1.141283,2971.441
687,1.14295,2961.755
688,1.144617,2949.908
689,1.146283,2949.908
690,1.14795,2937.689
691,1.149617,2925.172
692,1.151283,2918.169
693,1.15295,2918.169
694,1.154617,2910.644
695,1.1563,2901.182
696,1.157983,2894.402
697,1.159617,2894.402
698,1.161283,2883.226
699,1.16295,2872.72
700,1.164617,2864.972
701,1.166283,2864.972
702,1.16795,2855.361
703,1.169617,2844.036
704,1.171283,2832.711
705,1.17295,2832.711
706,1.174617,2820.939
707,1.176283,2808.198
708,1.17795,2808.198
709,1.179617,2800.077
710,1.181283,2794.042
711,1.18295,2786.443
712,1.1846,2786.443
713,1.186267,2778.396
714,1.187933,2768.114
715,1.1896,2758.354
716,1.191267,2758.354
717,1.192933,2750.009
718,1.1946,2741.665
719,1.196267,2731.681
720,1.197933,2731.681
721,1.1996,2725.646
722,1.201267,2718.493
723,1.202933,2718.493
724,1.2046,2711.266
725,1.206267,2706.945
726,1.207933,2697.855
727,1.2096,2697.855
728,1.211283,2688.319
729,1.212933,2676.621
730,1.2146,2665.296
731,1.216267,2665.296
732,1.217983,2658.367
733,1.2196,2650.172
734,1.221267,2644.509
735,1.222933,2644.509
736,1.2246,2638.996
737,1.226267,2632.29
738,1.227933,2623.499
739,1.2296,2623.499
740,1.231267,2616.793
741,1.232933,2609.119
742,1.23475,2598.688
743,1.236267,2598.688
744,1.237933,2593.547
745,1.2396,2589.077
746,1.241267,2589.077
747,1.242933,2582.893
748,1.244583,2575.889
749,1.24625,2567.47
750,1.247917,2567.47
751,1.249583,2557.784
752,1.25125,2549.44
753,1.252917,2544.224
754,1.254583,2544.224
755,1.25625,2539.307
756,1.257917,2532.527
757,1.259583,2532.527
758,1.26125,2528.131
759,1.262917,2519.861
760,1.264583,2511.665
761,1.26625,2511.665
762,1.267917,2503.991
763,1.269583,2499.223
764,1.27125,2496.094
765,1.272917,2496.094
766,1.274583,2491.847
767,1.27625,2487.674
768,1.277917,2480.075
769,1.279583,2480.075
770,1.28125,2471.581
771,1.282917,2464.652
772,1.284583,2464.652
773,1.28625,2459.288
774,1.287917,2452.061
775,1.289583,2446.249
776,1.29125,2446.249
777,1.292917,2441.332
778,1.294567,2435.222
779,1.29625,2431.646
780,1.2979,2431.646
781,1.299567,2428.442
782,1.301233,2421.811
783,1.302883,2416
784,1.304567,2416
785,1.306233,2408.251
786,1.307933,2400.95
787,1.30955,2397.001
788,1.311217,2397.001
789,1.312883,2391.04
790,1.31455,2387.464
791,1.316217,2387.464
792,1.317883,2384.335
793,1.319567,2380.535
794,1.321217,2375.692
795,1.322883,2375.692
796,1.32455,2369.657
797,1.326217,2364.516
798,1.327883,2357.885
799,1.32955,2357.885
800,1.331217,2353.937
801,1.332883,2349.317
802,1.33455,2344.325
803,1.336233,2344.325
804,1.337883,2340.078
805,1.33955,2337.322
806,1.341217,2337.322
807,1.342883,2333.596
808,1.34455,2326.444
809,1.346217,2320.781
810,1.347883,2320.781
811,1.34955,2316.311
812,1.351217,2313.107
813,1.353,2312.139
814,1.35455,2312.139
815,1.356217,2309.233
816,1.357883,2302.229
817,1.35955,2294.481
818,1.361217,2294.481
819,1.362883,2286.36
820,1.364533,2279.952
821,1.3662,2274.811
822,1.367867,2274.811
823,1.369533,2272.576
824,1.3712,2270.192
825,1.372883,2270.192
826,1.374533,2265.349
827,1.3762,2260.879
828,1.377867,2255.365
829,1.379533,2255.365
830,1.3812,2251.118
831,1.382867,2250.746
832,1.384533,2248.213
833,1.386217,2248.213
834,1.387867,2245.605
835,1.389533,2236.813
836,1.3912,2227.649
837,1.392867,2227.649
838,1.394533,2225.19
839,1.3962,2219.006
840,1.3979,2219.006
841,1.399533,2218.41
842,1.4012,2217.814
843,1.402867,2211.705
844,1.404533,2211.705
845,1.4062,2207.309
846,1.407867,2204.18
847,1.409533,2199.635
848,1.4112,2199.635
849,1.412867,2195.313
850,1.414533,2192.929
851,1.4162,2188.832
852,1.417867,2188.832
853,1.419533,2185.106
854,1.4212,2181.604
855,1.422867,2181.604
856,1.424517,2178.028
857,1.426183,2171.993
858,1.42785,2167.597
859,1.429517,2167.597
860,1.431183,2166.256
861,1.43285,2163.127
862,1.434517,2163.351
863,1.436183,2163.351
864,1.4379,2160.221
865,1.439517,2155.229
866,1.441183,2149.791
867,1.44285,2149.791
868,1.444517,2143.756
869,1.446183,2139.062
870,1.44785,2133.101
871,1.449517,2133.101
872,1.451183,2127.588
873,1.45285,2123.788
874,1.454533,2123.788
875,1.456183,2120.063
876,1.45785,2120.137
877,1.459517,2118.573
878,1.461183,2118.573
879,1.46285,2116.933
880,1.464517,2115.145
881,1.466183,2107.769
882,1.46785,2107.769
883,1.469517,2106.205
884,1.4713,2101.883
885,1.47285,2097.86
886,1.474517,2097.86
887,1.476183,2097.488
888,1.47785,2094.582
889,1.479517,2094.582
890,1.481183,2092.645
891,1.48285,2090.335
892,1.4845,2086.088
893,1.486167,2086.088
894,1.487867,2082.437
895,1.4895,2079.159
896,1.491167,2075.657
897,1.492833,2075.657
898,1.4945,2072.826
899,1.496167,2069.473
900,1.497833,2068.281
901,1.4995,2068.281
902,1.501167,2068.281
