"ID","sea_time","fid_signal"
1,0,1176.372
2,0.001667,1177.937
3,0.003333,1177.937
4,0.005,1179.948
5,0.006667,1181.513
6,0.008333,1181.513
7,0.010117,1179.352
8,0.011667,1176.149
9,0.013333,1171.753
10,0.015,1171.753
11,0.016667,1169.816
12,0.018333,1167.432
13,0.02,1169.965
14,0.021667,1169.965
15,0.023333,1173.988
16,0.025,1176.223
17,0.026667,1180.097
18,0.028333,1180.097
19,0.03,1177.713
20,0.03165,1176.745
21,0.033317,1176.894
22,0.035017,1176.894
23,0.036633,1177.117
24,0.0383,1180.47
25,0.039967,1180.47
26,0.041633,1181.886
27,0.0433,1185.611
28,0.044967,1185.313
29,0.046633,1185.313
30,0.0483,1185.015
31,0.049967,1184.493
32,0.051633,1182.407
33,0.0533,1182.407
34,0.054967,1185.313
35,0.056633,1187.846
36,0.0583,1192.018
37,0.059967,1192.018
38,0.061633,1192.316
39,0.0633,1188.144
40,0.064967,1188.144
41,0.066633,1184.419
42,0.0683,1179.576
43,0.069967,1176.521
44,0.071633,1176.521
45,0.0733,1176.67
46,0.07496700000000001,1178.682
47,0.07663300000000001,1180.321
48,0.07829999999999999,1180.321
49,0.079967,1182.482
50,0.081633,1184.121
51,0.0833,1186.356
52,0.084967,1186.356
53,0.086633,1186.803
54,0.0883,1186.43
55,0.08996700000000001,1184.642
56,0.09163300000000001,1184.642
57,0.093283,1183.301
58,0.09495000000000001,1184.121
59,0.096633,1184.121
60,0.098283,1185.76
61,0.09995,1187.474
62,0.101617,1187.474
63,0.103283,1187.474
64,0.10495,1185.089
65,0.106617,1183.525
66,0.108283,1181.141
67,0.10995,1181.141
68,0.111667,1181.439
69,0.113283,1182.556
70,0.11495,1185.164
71,0.116617,1185.164
72,0.118283,1185.983
73,0.11995,1183.972
74,0.121617,1183.972
75,0.123283,1183.45
76,0.12495,1182.705
77,0.126617,1181.364
78,0.128383,1181.364
79,0.12995,1182.184
80,0.131617,1180.693
81,0.133283,1178.533
82,0.13495,1178.533
83,0.136617,1181.513
84,0.138283,1180.321
85,0.13995,1184.121
86,0.141617,1184.121
87,0.143283,1184.791
88,0.14495,1183.45
89,0.146617,1183.45
90,0.148283,1185.387
91,0.14995,1182.482
92,0.151617,1183.301
93,0.153267,1183.301
94,0.154933,1186.43
95,0.1566,1186.803
96,0.1583,1187.474
97,0.159933,1187.474
98,0.1616,1187.176
99,0.163267,1185.834
100,0.164933,1185.089
101,0.1666,1185.089
102,0.168267,1185.611
103,0.169933,1185.834
104,0.1716,1185.015
105,0.173267,1185.015
106,0.174933,1182.556
107,0.1766,1181.29
108,0.178267,1181.29
109,0.179933,1182.929
110,0.1816,1185.909
111,0.183267,1186.952
112,0.184933,1186.952
113,0.1866,1187.101
114,0.188267,1184.94
115,0.189933,1180.246
116,0.1916,1180.246
117,0.193267,1181.886
118,0.194933,1185.983
119,0.1966,1186.579
120,0.198267,1186.579
121,0.199933,1189.56
122,0.2016,1188.368
123,0.203267,1188.368
124,0.204933,1185.089
125,0.2066,1183.078
126,0.208267,1179.874
127,0.209933,1179.874
128,0.211583,1179.054
129,0.2133,1178.905
130,0.214917,1180.172
131,0.216583,1180.172
132,0.21825,1181.588
133,0.219917,1182.78
134,0.221583,1183.301
135,0.22325,1183.301
136,0.224933,1182.407
137,0.226633,1183.301
138,0.22825,1183.227
139,0.229917,1183.227
140,0.231583,1182.78
141,0.23325,1182.631
142,0.234917,1182.631
143,0.236583,1182.78
144,0.23825,1183.525
145,0.239917,1183.301
146,0.241583,1183.301
147,0.24325,1183.674
148,0.244917,1185.685
149,0.246683,1183.301
150,0.24825,1183.301
151,0.249917,1182.929
152,0.251583,1184.344
153,0.25325,1183.301
154,0.254917,1183.301
155,0.256583,1184.791
156,0.25825,1187.101
157,0.259917,1187.101
158,0.261583,1188.815
159,0.26325,1186.505
160,0.264917,1188.368
161,0.266583,1188.368
162,0.26825,1184.344
163,0.269917,1181.811
164,0.271567,1182.556
165,0.273233,1182.556
166,0.2749,1182.035
167,0.276567,1183.599
168,0.278233,1183.897
169,0.2799,1183.897
170,0.281567,1182.631
171,0.283233,1183.301
172,0.2849,1183.972
173,0.286583,1183.972
174,0.288233,1184.27
175,0.2899,1186.803
176,0.291567,1186.803
177,0.293233,1184.121
178,0.294917,1185.536
179,0.296567,1184.121
180,0.298233,1184.121
181,0.2999,1183.227
182,0.301567,1185.164
183,0.303233,1183.525
184,0.3049,1183.525
185,0.306567,1183.152
186,0.308233,1181.364
187,0.3099,1179.65
188,0.311567,1179.65
189,0.313233,1179.799
190,0.3149,1181.364
191,0.316567,1181.364
192,0.318233,1185.313
193,0.3199,1183.078
194,0.321567,1181.215
195,0.323233,1181.215
196,0.3249,1181.066
197,0.326567,1177.564
198,0.328217,1179.427
199,0.329883,1179.427
200,0.3316,1180.321
201,0.3332,1177.192
202,0.334867,1178.235
203,0.336533,1178.235
204,0.3382,1178.309
205,0.339867,1179.278
206,0.341533,1179.278
207,0.3432,1181.737
208,0.344867,1182.929
209,0.346533,1182.109
210,0.3482,1182.109
211,0.349867,1181.513
212,0.351533,1183.45
213,0.3532,1183.674
214,0.354867,1183.674
215,0.356533,1185.909
216,0.3582,1188.889
217,0.359867,1187.548
218,0.361533,1187.548
219,0.3632,1186.281
220,0.364933,1184.94
221,0.366533,1185.834
222,0.3682,1185.834
223,0.369867,1188.368
224,0.371533,1193.583
225,0.3732,1193.583
226,0.374867,1198.649
227,0.376533,1199.767
228,0.3782,1202.524
229,0.379867,1202.524
230,0.381533,1206.026
231,0.3832,1209.602
232,0.384867,1215.935
233,0.386533,1215.935
234,0.3882,1222.417
235,0.389867,1228.601
236,0.391517,1235.306
237,0.393183,1235.306
238,0.39485,1243.055
239,0.396517,1250.282
240,0.398183,1250.282
241,0.39985,1255.423
242,0.401517,1265.63
243,0.403183,1273.751
244,0.40485,1273.751
245,0.406517,1286.566
246,0.408183,1295.134
247,0.40985,1304.82
248,0.411517,1304.82
249,0.413183,1316.071
250,0.41485,1323.819
251,0.416517,1340.21
252,0.418183,1340.21
253,0.41985,1349.151
254,0.421517,1359.88
255,0.423183,1371.205
256,0.42485,1371.205
257,0.426517,1378.208
258,0.428183,1388.118
259,0.429883,1388.118
260,0.431517,1396.313
261,0.433183,1401.156
262,0.43485,1407.34
263,0.436517,1407.34
264,0.438183,1413.301
265,0.43985,1417.995
266,0.441533,1425.669
267,0.443183,1425.669
268,0.44485,1428.276
269,0.446517,1430.735
270,0.448183,1430.437
271,0.449917,1430.437
272,0.4515,1429.841
273,0.453167,1430.139
274,0.454833,1430.139
275,0.4565,1427.084
276,0.458167,1424.402
277,0.459833,1418.292
278,0.4615,1418.292
279,0.463167,1414.716
280,0.464833,1416.281
281,0.466633,1417.473
282,0.468167,1417.473
283,0.469833,1420.379
284,0.4715,1421.869
285,0.473167,1422.316
286,0.474833,1422.316
287,0.4765,1422.018
288,0.478167,1420.9
289,0.479833,1420.751
290,0.4815,1420.751
291,0.483267,1417.771
292,0.484833,1416.057
293,0.4865,1416.057
294,0.488167,1413.822
295,0.489833,1409.128
296,0.4915,1405.776
297,0.493167,1405.776
298,0.494833,1400.411
299,0.4965,1398.101
300,0.498167,1395.345
301,0.499833,1395.345
302,0.5014999999999999,1388.416
303,0.503167,1386.404
304,0.504833,1379.997
305,0.5065,1379.997
306,0.508167,1374.483
307,0.509867,1370.907
308,0.5115,1370.907
309,0.51315,1364.127
310,0.514817,1359.209
311,0.516483,1353.845
312,0.51815,1353.845
313,0.519817,1348.332
314,0.521483,1342.446
315,0.52315,1336.634
316,0.524817,1336.634
317,0.526483,1331.195
318,0.52815,1325.905
319,0.529817,1323.074
320,0.531483,1323.074
321,0.53315,1321.584
322,0.534833,1325.607
323,0.536483,1333.728
324,0.53815,1333.728
325,0.539817,1348.406
326,0.541483,1367.629
327,0.54315,1367.629
328,0.544817,1393.929
329,0.5464830000000001,1435.28
330,0.54815,1494.959
331,0.549817,1494.959
332,0.5514829999999999,1578.182
333,0.553167,1690.09
334,0.554817,1832.917
335,0.5564829999999999,1832.917
336,0.55815,2009.72
337,0.559817,2234.876
338,0.561483,2509.132
339,0.56315,2509.132
340,0.564817,2835.169
341,0.566483,3217.384
342,0.5682,3217.384
343,0.569817,3656
344,0.5714669999999999,4156.753
345,0.573133,4714.728
346,0.574833,4714.728
347,0.576467,5331.71
348,0.578133,6004.199
349,0.5798,6723.702
350,0.581467,6723.702
351,0.583133,7491.782
352,0.584883,8306.429
353,0.586467,9155.124
354,0.588133,9155.124
355,0.5898,10039.955
356,0.591467,10962.337
357,0.593133,10962.337
358,0.5948,11906.027
359,0.596467,12880.639
360,0.598133,13878.793
361,0.5998,13878.793
362,0.601583,14893.412
363,0.603133,15931.875
364,0.6048,16987.025
365,0.606467,16987.025
366,0.608133,18054.545
367,0.6098,19137.859
368,0.611467,20230.785
369,0.613133,20230.785
370,0.6148,21330.268
371,0.616467,22441
372,0.618133,23555.457
373,0.619783,23555.457
374,0.6214499999999999,24679.006
375,0.623133,25806.949
376,0.624783,25806.949
377,0.62645,26934.52
378,0.628117,28068.498
379,0.629783,29201.881
380,0.63145,29201.881
381,0.6331,30332.58
382,0.634767,31465.068
383,0.636433,32591.373
384,0.6381,32591.373
385,0.639767,33712.09
386,0.641433,34833.699
387,0.6431,35949.723
388,0.644767,35949.723
389,0.646433,37059.559
390,0.6481,38160.906
391,0.649767,38160.906
392,0.651433,39252.789
393,0.6531,40339.453
394,0.654767,41419.715
395,0.656433,41419.715
396,0.6581,42490.961
397,0.659767,43552.07
398,0.661433,44602.305
399,0.6631,44602.305
400,0.664767,45642.406
401,0.6664330000000001,46675.355
402,0.6681,47701.227
403,0.669767,47701.227
404,0.6714329999999999,48711.523
405,0.6731,49709.379
406,0.674767,50694.348
407,0.676433,50694.348
408,0.6781,51664.113
409,0.679767,52627.473
410,0.681433,52627.473
411,0.6831,53580.703
412,0.684767,54522.156
413,0.686433,55459.367
414,0.6881,55459.367
415,0.689767,56382.492
416,0.6914169999999999,57291.016
417,0.693083,58186.426
418,0.69475,58186.426
419,0.696417,59065.594
420,0.698083,59932.32
421,0.69975,60786.383
422,0.701417,60786.383
423,0.7031500000000001,61627.625
424,0.70475,62449.574
425,0.706417,62449.574
426,0.708083,63257.219
427,0.70975,64042.805
428,0.711417,64805
429,0.713083,64805
430,0.71475,65541.711
431,0.71645,66254.508
432,0.718083,66950.398
433,0.7198329999999999,66950.398
434,0.721417,67633.984
435,0.723083,68309.45299999999
436,0.72475,68972.484
437,0.726417,68972.484
438,0.7281,69621.57799999999
439,0.72975,70255.992
440,0.731417,70870.516
441,0.733083,70870.516
442,0.73475,71461.875
443,0.736517,72029.977
444,0.738083,72029.977
445,0.73975,72556.586
446,0.741417,73032.602
447,0.743083,73437.094
448,0.74475,73437.094
449,0.746417,73725.211
450,0.7480830000000001,73823.852
451,0.74975,73561.219
452,0.7514,73561.219
453,0.753067,72601.961
454,0.754733,70458.57799999999
455,0.7564,66691.93799999999
456,0.758067,66691.93799999999
457,0.759733,61218.141
458,0.7614,54433.867
459,0.7630670000000001,54433.867
460,0.764733,47152.191
461,0.7664,40249.152
462,0.7680670000000001,34325.273
463,0.769733,34325.273
464,0.7714,29609.65
465,0.7730669999999999,26017.279
466,0.774733,23338.943
467,0.7764,23338.943
468,0.778067,21341.816
469,0.779733,19822.121
470,0.781433,18636.584
471,0.783067,18636.584
472,0.784733,17678.664
473,0.7864,16877.875
474,0.788067,16877.875
475,0.789733,16191.975
476,0.7914,15591.532
477,0.793067,15054.941
478,0.794733,15054.941
479,0.7964,14568.865
480,0.798067,14121.756
481,0.799733,13707.131
482,0.8014,13707.131
483,0.803067,13318.807
484,0.804733,12956.188
485,0.8064,12618.452
486,0.808067,12618.452
487,0.809733,12298.151
488,0.811383,11997.819
489,0.8130500000000001,11714.25
490,0.814717,11714.25
491,0.816383,11446.253
492,0.8180500000000001,11191.07
493,0.819717,11191.07
494,0.821417,10947.063
495,0.8230499999999999,10714.68
496,0.824717,10491.609
497,0.826383,10491.609
498,0.82805,10277.927
499,0.829717,10078.55
500,0.831383,9884.313
501,0.83305,9884.313
502,0.834717,9697.154
503,0.836383,9519.384
504,0.8381,9346.380999999999
505,0.839717,9346.380999999999
506,0.841383,9180.157999999999
507,0.84305,9016.022000000001
508,0.8447170000000001,9016.022000000001
509,0.846383,8860.156000000001
510,0.84805,8710.623
511,0.8497169999999999,8567.125
512,0.851383,8567.125
513,0.85305,8430.556
514,0.854833,8298.605
515,0.856383,8171.871
516,0.85805,8171.871
517,0.859733,8047.67
518,0.86145,7930.025
519,0.86305,7813.051
520,0.864717,7813.051
521,0.866383,7699.653
522,0.86805,7591.769
523,0.869717,7484.332
524,0.871367,7484.332
525,0.8730329999999999,7384.271
526,0.8747,7281.75
527,0.876367,7281.75
528,0.878033,7181.242
529,0.8797,7088.11
530,0.881367,6997.362
531,0.883033,6997.362
532,0.8847,6910.935
533,0.886367,6827.265
534,0.888033,6742.254
535,0.8897,6742.254
536,0.891367,6656.945
537,0.893033,6577.82
538,0.8947000000000001,6501.6
539,0.896367,6501.6
540,0.898033,6429.479
541,0.8997000000000001,6356.761
542,0.901367,6356.761
543,0.903033,6284.267
544,0.9046999999999999,6215.945
545,0.906367,6147.548
546,0.908033,6147.548
547,0.9097,6083.026
548,0.91135,6019.25
549,0.913017,5954.951
550,0.914683,5954.951
551,0.91635,5894.676
552,0.918017,5833.954
553,0.919683,5775.467
554,0.92135,5775.467
555,0.92305,5720.481
556,0.924683,5662.814
557,0.92635,5662.814
558,0.928017,5607.456
559,0.929683,5555.302
560,0.93135,5501.062
561,0.933033,5501.062
562,0.934667,5449.354
563,0.9363669999999999,5402.938
564,0.9379999999999999,5353.689
565,0.939733,5353.689
566,0.941333,5305.037
567,0.9429999999999999,5258.918
568,0.944667,5210.042
569,0.946333,5210.042
570,0.948,5161.986
571,0.949667,5113.78
572,0.951333,5070.344
573,0.953,5070.344
574,0.954667,5028.248
575,0.956367,4988.089
576,0.958,4988.089
577,0.959667,4948.899
578,0.961333,4908.815
579,0.963,4871.488
580,0.9646670000000001,4871.488
581,0.966333,4831.105
582,0.968,4792.437
583,0.9696669999999999,4751.757
584,0.971333,4751.757
585,0.973117,4711.896
586,0.974667,4676.357
587,0.976333,4646.107
588,0.978,4646.107
589,0.979667,4614.368
590,0.981333,4581.734
591,0.983,4581.734
592,0.984667,4548.952
593,0.986333,4512.817
594,0.988,4478.917
595,0.989667,4478.917
596,0.991317,4447.475
597,0.9929829999999999,4417.226
598,0.99465,4388.317
599,0.996317,4388.317
600,0.997983,4361.496
601,0.99965,4334.599
602,1.001317,4305.542
603,1.002983,4305.542
604,1.00465,4277.155
605,1.006317,4246.905
606,1.007983,4216.135
607,1.00965,4216.135
608,1.011317,4187.822
609,1.012983,4162.639
610,1.01465,4162.639
611,1.016317,4135.966
612,1.017983,4111.305
613,1.01965,4086.122
614,1.021317,4086.122
615,1.023,4056.692
616,1.02465,4034.34
617,1.026317,4010.35
618,1.027983,4010.35
619,1.02965,3988.445
620,1.031317,3965.795
621,1.032983,3938.973
622,1.03465,3938.973
623,1.036317,3912.3
624,1.037983,3888.16
625,1.03965,3888.16
626,1.041317,3866.777
627,1.042983,3846.362
628,1.04465,3826.469
629,1.046317,3826.469
630,1.047983,3805.31
631,1.04965,3785.864
632,1.0513,3767.535
633,1.052967,3767.535
634,1.054633,3748.76
635,1.0563,3727.078
636,1.057983,3706.291
637,1.059633,3706.291
638,1.0613,3687.59
639,1.062967,3668.666
640,1.064633,3652.796
641,1.0663,3652.796
642,1.067967,3634.17
643,1.069633,3612.116
644,1.0713,3612.116
645,1.072967,3593.49
646,1.07465,3574.193
647,1.0763,3552.884
648,1.077967,3552.884
649,1.079633,3536.12
650,1.0813,3519.133
651,1.082967,3502.071
652,1.084633,3502.071
653,1.0863,3492.162
654,1.087967,3477.633
655,1.089633,3461.167
656,1.0914,3461.167
657,1.092967,3445.372
658,1.094633,3426.373
659,1.0963,3426.373
660,1.097967,3412.366
661,1.099633,3397.912
662,1.1013,3383.085
663,1.102967,3383.085
664,1.104633,3367.96
665,1.1063,3350.302
666,1.107967,3334.954
667,1.109633,3334.954
668,1.111283,3321.469
669,1.112983,3311.187
670,1.114617,3295.913
671,1.116283,3295.913
672,1.11795,3279.149
673,1.119617,3263.801
674,1.121283,3244.802
675,1.12295,3244.802
676,1.124617,3233.701
677,1.126283,3223.494
678,1.12795,3223.494
679,1.129617,3212.169
680,1.1313,3199.801
681,1.13295,3188.029
682,1.134617,3188.029
683,1.136283,3174.692
684,1.13795,3162.548
685,1.139617,3153.682
686,1.141283,3153.682
687,1.14295,3137.141
688,1.144617,3122.538
689,1.146317,3108.829
690,1.14795,3108.829
691,1.149617,3095.567
692,1.151283,3085.062
693,1.15295,3085.062
694,1.154617,3075.898
695,1.156283,3064.573
696,1.15795,3054.962
697,1.159617,3054.962
698,1.161283,3047.138
699,1.16295,3036.335
700,1.164617,3025.755
701,1.166283,3025.755
702,1.16795,3013.536
703,1.169617,3000.349
704,1.171267,2989.098
705,1.172933,2989.098
706,1.1746,2977.252
707,1.17635,2963.617
708,1.177933,2963.617
709,1.1796,2953.41
710,1.181267,2942.458
711,1.182933,2931.878
712,1.1846,2931.878
713,1.186267,2921.969
714,1.187933,2912.73
715,1.1896,2903.864
716,1.191267,2903.864
717,1.192933,2895.594
718,1.1946,2890.378
719,1.196267,2882.183
720,1.197933,2882.183
721,1.199617,2872.944
722,1.201267,2862.737
723,1.202917,2851.188
724,1.204583,2851.188
725,1.20625,2841.055
726,1.207917,2832.636
727,1.209683,2823.621
728,1.21125,2823.621
729,1.212917,2815.798
730,1.214583,2807.304
731,1.21625,2807.304
732,1.217917,2797.321
733,1.219583,2789.423
734,1.22125,2778.62
735,1.222933,2778.62
736,1.224583,2769.828
737,1.22625,2761.334
738,1.227917,2755.374
739,1.229583,2755.374
740,1.23125,2748.37
741,1.2329,2740.249
742,1.234567,2740.249
743,1.236233,2735.257
744,1.2379,2723.56
745,1.239567,2713.874
746,1.241233,2713.874
747,1.2429,2706.87
748,1.244567,2696.142
749,1.246233,2689.287
750,1.2479,2689.287
751,1.249567,2685.338
752,1.251233,2678.037
753,1.2529,2671.182
754,1.254567,2671.182
755,1.256233,2662.465
756,1.2579,2655.461
757,1.259567,2647.042
758,1.261233,2647.042
759,1.2629,2638.921
760,1.264567,2634.153
761,1.266233,2634.153
762,1.2679,2624.989
763,1.269567,2616.346
764,1.271233,2611.875
765,1.2729,2611.875
766,1.274567,2605.617
767,1.276233,2598.614
768,1.2779,2593.622
769,1.279567,2593.622
770,1.281233,2584.83
771,1.2829,2579.615
772,1.284567,2573.729
773,1.286233,2573.729
774,1.2879,2568.811
775,1.289567,2565.16
776,1.291233,2565.16
777,1.292883,2560.765
778,1.294583,2557.486
779,1.296217,2550.557
780,1.297883,2550.557
781,1.29955,2543.479
782,1.301217,2532.527
783,1.302883,2521.202
784,1.30455,2521.202
785,1.306233,2512.41
786,1.307883,2503.917
787,1.30955,2498.031
788,1.311217,2498.031
789,1.312883,2492.964
790,1.31455,2489.984
791,1.316217,2487.078
792,1.317883,2487.078
793,1.31955,2481.714
794,1.321217,2475.828
795,1.322883,2475.828
796,1.32455,2468.452
797,1.326217,2459.511
798,1.327983,2455.711
799,1.32955,2455.711
800,1.331217,2453.029
801,1.332883,2446.547
802,1.33455,2443.344
803,1.336217,2443.344
804,1.337883,2439.097
805,1.33955,2432.019
806,1.341217,2428.07
807,1.342883,2428.07
808,1.34455,2424.27
809,1.346217,2414.808
810,1.347883,2414.808
811,1.34955,2410.71
812,1.351217,2404.153
813,1.352867,2395.287
814,1.354533,2395.287
815,1.3562,2391.338
816,1.357867,2385.303
817,1.359533,2380.833
818,1.3612,2380.833
819,1.362867,2376.735
820,1.364533,2369.657
821,1.3662,2365.187
822,1.367933,2365.187
823,1.369533,2361.164
824,1.3712,2357.289
825,1.372867,2357.289
826,1.374533,2355.948
827,1.3762,2353.415
828,1.377867,2346.858
829,1.379533,2346.858
830,1.3812,2343.953
831,1.382867,2337.545
832,1.384533,2330.094
833,1.3862,2330.094
834,1.387867,2327.189
835,1.389533,2320.185
836,1.3912,2313.927
837,1.392867,2313.927
838,1.394533,2306.476
839,1.3962,2302.453
840,1.397867,2299.175
841,1.399533,2299.175
842,1.4012,2299.398
843,1.402867,2298.504
844,1.404533,2298.504
845,1.4062,2292.618
846,1.407867,2288.446
847,1.409533,2282.858
848,1.4112,2282.858
849,1.412933,2280.548
850,1.414517,2279.729
851,1.416183,2274.215
852,1.41785,2274.215
853,1.419517,2268.478
854,1.421183,2262.816
855,1.42285,2255.589
856,1.424517,2255.589
857,1.426183,2251.342
858,1.42785,2247.393
859,1.429517,2247.393
860,1.431183,2242.997
861,1.43285,2241.507
862,1.434517,2239.943
863,1.436183,2239.943
864,1.43785,2237.856
865,1.439517,2236.366
866,1.441183,2231.97
867,1.442867,2231.97
868,1.444517,2228.469
869,1.446317,2223.477
870,1.44785,2217.814
871,1.449517,2217.814
872,1.451183,2212.971
873,1.45285,2205.968
874,1.454517,2201.646
875,1.456183,2201.646
876,1.45785,2198.741
877,1.459517,2195.09
878,1.461183,2195.09
879,1.46285,2190.247
880,1.464517,2187.043
881,1.466183,2181.381
882,1.46785,2181.381
883,1.469517,2176.836
884,1.471183,2177.954
885,1.472833,2175.123
886,1.4745,2175.123
887,1.476167,2174.452
888,1.477833,2173.558
889,1.4795,2167.076
890,1.481167,2167.076
891,1.482833,2166.554
892,1.4845,2162.382
893,1.486167,2162.382
894,1.487833,2158.359
895,1.4895,2154.484
896,1.491167,2146.661
897,1.492817,2146.661
898,1.494483,2140.924
899,1.49615,2138.838
900,1.497817,2138.913
901,1.499483,2138.913
902,1.50115,2138.168
903,1.502817,2137.423
904,1.504483,2131.388
905,1.506167,2131.388
906,1.507817,2125.502
907,1.509483,2122.67
908,1.51115,2115.816
909,1.512817,2115.816
910,1.514483,2113.432
911,1.51615,2112.91
