"ID","sea_time","fid_signal"
1,0,1231.357
2,0.001667,1231.059
3,0.003333,1234.338
4,0.005,1234.338
5,0.006717,1233.071
6,0.008333,1226.515
7,0.01,1218.692
8,0.011667,1218.692
9,0.01335,1210.943
10,0.015,1210.272
11,0.016667,1210.198
12,0.018333,1210.198
13,0.02,1219.213
14,0.021667,1221.448
15,0.02345,1223.758
16,0.025,1223.758
17,0.026667,1226.664
18,0.028333,1222.193
19,0.03,1226.366
20,0.031667,1226.366
21,0.033333,1226.068
22,0.034983,1227.781
23,0.03665,1227.781
24,0.038317,1228.377
25,0.039983,1226.142
26,0.04165,1227.856
27,0.043317,1227.856
28,0.044983,1226.589
29,0.04665,1228.75
30,0.048317,1231.283
31,0.049983,1231.283
32,0.05165,1230.761
33,0.053317,1231.804
34,0.054983,1234.114
35,0.056633,1234.114
36,0.0583,1231.804
37,0.059967,1230.091
38,0.061633,1230.091
39,0.0633,1230.463
40,0.064967,1225.695
41,0.066633,1229.569
42,0.0683,1229.569
43,0.069967,1231.432
44,0.071633,1234.04
45,0.0733,1236.2
46,0.07498299999999999,1236.2
47,0.07663300000000001,1233.816
48,0.07829999999999999,1234.263
49,0.079967,1231.059
50,0.08165,1231.059
51,0.0833,1229.495
52,0.084967,1231.506
53,0.086633,1233.444
54,0.0883,1233.444
55,0.08996700000000001,1234.71
56,0.09163300000000001,1237.765
57,0.09329999999999999,1237.765
58,0.094967,1237.094
59,0.096633,1234.412
60,0.0983,1235.828
61,0.099967,1235.828
62,0.101633,1235.232
63,0.1033,1236.275
64,0.104967,1236.573
65,0.106633,1236.573
66,0.108367,1233.891
67,0.109967,1232.326
68,0.111633,1231.357
69,0.1133,1231.357
70,0.11495,1228.601
71,0.116617,1232.103
72,0.118283,1232.103
73,0.11995,1233.667
74,0.121617,1231.059
75,0.123283,1231.879
76,0.12495,1231.879
77,0.126617,1228.228
78,0.128283,1227.707
79,0.12995,1227.93
80,0.131617,1227.93
81,0.133283,1228.601
82,0.13495,1228.824
83,0.136617,1227.334
84,0.138283,1227.334
85,0.13995,1229.942
86,0.141733,1230.24
87,0.143283,1230.24
88,0.14495,1230.24
89,0.146617,1229.197
90,0.148283,1230.24
91,0.14995,1230.24
92,0.151617,1232.251
93,0.153283,1235.306
94,0.15495,1237.392
95,0.156617,1237.392
96,0.1583,1235.753
97,0.15995,1234.04
98,0.161617,1233.742
99,0.163283,1233.742
100,0.16495,1234.71
101,0.166617,1232.55
102,0.168283,1233.146
103,0.16995,1233.146
104,0.171617,1230.314
105,0.173283,1230.538
106,0.17495,1230.538
107,0.1766,1229.793
108,0.178267,1226.217
109,0.179933,1225.323
110,0.1816,1225.323
111,0.183267,1221.895
112,0.184933,1221.299
113,0.1866,1221.076
114,0.188267,1221.076
115,0.189933,1223.534
116,0.1916,1228.75
117,0.193267,1230.836
118,0.194933,1230.836
119,0.1966,1234.636
120,0.198267,1234.934
121,0.199933,1234.934
122,0.2016,1229.718
123,0.203267,1227.707
124,0.204933,1227.334
125,0.2066,1227.334
126,0.208267,1228.303
127,0.209933,1231.134
128,0.2116,1232.699
129,0.213267,1232.699
130,0.214933,1232.624
131,0.2166,1229.122
132,0.218267,1226.962
133,0.219933,1226.962
134,0.2216,1224.95
135,0.223267,1224.577
136,0.224933,1225.993
137,0.226667,1225.993
138,0.228317,1228.526
139,0.229933,1232.773
140,0.2316,1232.773
141,0.233267,1233.295
142,0.234933,1235.753
143,0.236583,1238.286
144,0.23825,1238.286
145,0.239917,1236.424
146,0.241583,1233.816
147,0.24335,1234.71
148,0.244917,1234.71
149,0.246583,1235.232
150,0.24825,1238.212
151,0.249917,1242.831
152,0.251583,1242.831
153,0.25325,1238.808
154,0.254917,1234.263
155,0.256583,1234.263
156,0.25825,1231.357
157,0.260017,1227.856
158,0.261583,1227.483
159,0.263267,1227.483
160,0.264917,1225.919
161,0.266583,1227.26
162,0.26825,1227.036
163,0.269917,1227.036
164,0.271583,1224.726
165,0.27325,1228.452
166,0.274917,1228.675
167,0.276583,1228.675
168,0.27825,1230.538
169,0.279917,1232.773
170,0.281583,1232.251
171,0.28325,1232.251
172,0.284917,1230.314
173,0.286583,1227.707
174,0.28825,1227.707
175,0.289917,1229.122
176,0.291583,1225.695
177,0.29325,1222.491
178,0.294917,1222.491
179,0.296567,1223.162
180,0.298233,1220.852
181,0.2999,1224.577
182,0.301567,1224.577
183,0.30325,1224.577
184,0.304967,1223.46
185,0.306567,1223.236
186,0.308233,1223.236
187,0.3099,1220.256
188,0.311567,1222.491
189,0.313233,1222.491
190,0.3149,1222.342
191,0.316567,1225.248
192,0.318233,1227.558
193,0.3199,1227.558
194,0.321567,1231.357
195,0.323233,1234.263
196,0.3249,1234.561
197,0.32655,1234.561
198,0.328217,1237.541
199,0.329883,1229.197
200,0.33155,1225.471
201,0.333217,1225.471
202,0.334883,1228.824
203,0.33655,1227.558
204,0.338217,1227.558
205,0.339883,1231.879
206,0.34155,1236.573
207,0.343217,1233.742
208,0.344917,1233.742
209,0.34655,1228.452
210,0.348217,1232.922
211,0.349883,1231.283
212,0.35155,1231.283
213,0.353217,1228.973
214,0.354867,1231.804
215,0.356533,1233.593
216,0.3582,1233.593
217,0.359867,1235.977
218,0.361533,1240.671
219,0.3632,1243.129
220,0.364867,1243.129
221,0.366533,1242.459
222,0.3682,1243.204
223,0.369867,1243.204
224,0.371533,1245.439
225,0.3732,1252.294
226,0.374867,1259.893
227,0.376533,1259.893
228,0.378333,1270.25
229,0.379867,1276.583
230,0.381533,1280.084
231,0.3832,1280.084
232,0.384867,1283.958
233,0.386533,1285.598
234,0.3882,1291.26
235,0.389867,1291.26
236,0.391533,1301.691
237,0.3932,1309.141
238,0.394867,1309.141
239,0.396533,1318.827
240,0.3982,1328.811
241,0.399867,1333.803
242,0.401533,1333.803
243,0.4032,1346.767
244,0.404867,1360.625
245,0.406533,1373.813
246,0.4082,1373.813
247,0.409867,1389.31
248,0.411533,1400.113
249,0.4132,1411.065
250,0.414867,1411.065
251,0.416517,1422.837
252,0.418183,1432.076
253,0.41985,1440.346
254,0.421517,1440.346
255,0.423183,1448.989
256,0.42485,1458.228
257,0.426517,1458.228
258,0.428183,1469.552
259,0.42985,1476.333
260,0.431517,1481.399
261,0.433183,1481.399
262,0.43485,1485.944
263,0.436517,1487.21
264,0.438183,1493.022
265,0.43985,1493.022
266,0.441517,1499.131
267,0.443183,1497.79
268,0.444867,1504.421
269,0.446517,1504.421
270,0.448183,1508.072
271,0.44985,1512.542
272,0.451517,1512.542
273,0.453183,1522.675
274,0.45485,1525.506
275,0.456517,1531.392
276,0.458183,1531.392
277,0.45985,1538.172
278,0.461517,1545.772
279,0.463183,1553.67
280,0.46485,1553.67
281,0.466517,1561.269
282,0.468183,1559.183
283,0.46985,1559.779
284,0.471517,1559.779
285,0.473183,1555.458
286,0.47485,1549.87
287,0.4765,1549.646
288,0.478167,1549.646
289,0.479933,1541.898
290,0.4815,1542.866
291,0.483167,1542.866
292,0.484833,1540.78
293,0.4865,1538.619
294,0.488167,1532.808
295,0.489833,1532.808
296,0.4915,1521.409
297,0.493167,1512.617
298,0.494833,1504.868
299,0.4966,1504.868
300,0.498167,1500.696
301,0.499833,1494.214
302,0.5014999999999999,1486.54
303,0.503167,1486.54
304,0.504833,1478.493
305,0.5065,1470.521
306,0.508167,1470.521
307,0.50985,1463.816
308,0.5115,1457.408
309,0.513283,1451.373
310,0.514833,1451.373
311,0.5165,1445.562
312,0.518167,1441.836
313,0.519833,1440.942
314,0.5215,1440.942
315,0.523183,1440.868
316,0.52485,1443.55
317,0.5265,1450.926
318,0.5281670000000001,1450.926
319,0.529833,1464.635
320,0.5315,1489.967
321,0.5331669999999999,1489.967
322,0.534833,1529.53
323,0.536483,1589.805
324,0.53815,1669.675
325,0.539817,1669.675
326,0.541483,1775.548
327,0.54315,1916.364
328,0.544817,2087.355
329,0.5464830000000001,2087.355
330,0.54815,2298.057
331,0.549817,2559.051
332,0.5514829999999999,2867.579
333,0.55315,2867.579
334,0.554817,3233.105
335,0.5564829999999999,3657.117
336,0.55815,4133.508
337,0.559817,4133.508
338,0.561483,4665.032
339,0.56315,5256.086
340,0.564817,5256.086
341,0.566483,5903.244
342,0.56815,6599.054
343,0.569817,7341.802
344,0.571483,7341.802
345,0.57315,8118.078
346,0.574817,8930.041999999999
347,0.576483,9779.632
348,0.5781500000000001,9779.632
349,0.579817,10660.439
350,0.5815,11578.5
351,0.5831499999999999,12519.211
352,0.584817,12519.211
353,0.586483,13481.006
354,0.58815,14464.482
355,0.589817,14464.482
356,0.591483,15467.405
357,0.59315,16486.869
358,0.594817,17521.232
359,0.596467,17521.232
360,0.5982,18569.902
361,0.5998,19627.363
362,0.601467,20701.662
363,0.603133,20701.662
364,0.6048,21784.902
365,0.606467,22875.666
366,0.608133,23969.486
367,0.6098,23969.486
368,0.611467,25063.754
369,0.613133,26158.02
370,0.614833,27256.012
371,0.6164500000000001,27256.012
372,0.618117,28359.443
373,0.619783,29468.611
374,0.6214499999999999,29468.611
375,0.623117,30580.088
376,0.624783,31688.064
377,0.62645,32793.656
378,0.628117,32793.656
379,0.629783,33893.809
380,0.6315499999999999,34993.141
381,0.633117,36090.539
382,0.634783,36090.539
383,0.63645,37180.781
384,0.638117,38269.832
385,0.639783,39348.898
386,0.64145,39348.898
387,0.643117,40417.016
388,0.644783,41484.535
389,0.64645,41484.535
390,0.6481170000000001,42540.73
391,0.649783,43593.645
392,0.65145,44643.355
393,0.6531169999999999,44643.355
394,0.654783,45678.391
395,0.656433,46705.754
396,0.6581,47722.609
397,0.659767,47722.609
398,0.661433,48729.703
399,0.6631,49731.73
400,0.664783,50725.789
401,0.6664330000000001,50725.789
402,0.6681,51710.828
403,0.669767,52686.93
404,0.6714329999999999,53647.758
405,0.6731,53647.758
406,0.674767,54599.047
407,0.676433,55542.813
408,0.6781,55542.813
409,0.679767,56475.027
410,0.681433,57402.773
411,0.6831,58315.547
412,0.684783,58315.547
413,0.68645,59217.141
414,0.6881,60110.613
415,0.689767,60993.73
416,0.691433,60993.73
417,0.6931,61867.758
418,0.694767,62730.164
419,0.696433,63585.938
420,0.6981000000000001,63585.938
421,0.699767,64428.598
422,0.701433,65266.566
423,0.7030999999999999,65266.566
424,0.704767,66102.969
425,0.706433,66932.289
426,0.7081,67756.69500000001
427,0.709767,67756.69500000001
428,0.711433,68574.023
429,0.7131,69377.42200000001
430,0.714767,70165.992
431,0.716467,70165.992
432,0.718083,70944.42999999999
433,0.71975,71711.68799999999
434,0.721417,72476.719
435,0.723083,72476.719
436,0.72475,73234.43799999999
437,0.726417,73986.352
438,0.728083,73986.352
439,0.72975,74734.914
440,0.731417,75474.156
441,0.733133,76208.266
442,0.7347669999999999,76208.266
443,0.736417,76933.875
444,0.738083,77650.844
445,0.73975,78357.156
446,0.741417,78357.156
447,0.743083,79057.289
448,0.74475,79749.67200000001
449,0.746417,80434.758
450,0.7480830000000001,80434.758
451,0.749867,81114.102
452,0.751417,81784.05499999999
453,0.7530829999999999,82450.289
454,0.75475,82450.289
455,0.756417,83107.648
456,0.758083,83757.789
457,0.75975,83757.789
458,0.761417,84404.79700000001
459,0.763083,85043.461
460,0.76475,85672.289
461,0.766417,85672.289
462,0.768083,86293.516
463,0.76975,86902.67999999999
464,0.771417,87505.727
465,0.773083,87505.727
466,0.77475,88100.508
467,0.776433,88690
468,0.778067,89277.852
469,0.779733,89277.852
470,0.7814,89845.211
471,0.783067,90381.20299999999
472,0.784733,90381.20299999999
473,0.7864,90859.67999999999
474,0.788067,91294.94500000001
475,0.789733,91714.117
476,0.7914,91714.117
477,0.793067,92144.234
478,0.794733,92608.92999999999
479,0.7964,93093.961
480,0.798067,93093.961
481,0.799733,93590.32000000001
482,0.8014,94086.75
483,0.803067,94584.82000000001
484,0.804733,94584.82000000001
485,0.8064,95086.617
486,0.808067,95587.67200000001
487,0.809733,96092.742
488,0.8114,96092.742
489,0.813067,96595.961
490,0.814733,97091.19500000001
491,0.8164,97091.19500000001
492,0.818067,97579.359
493,0.819733,98041.44500000001
494,0.8214,98440.352
495,0.823067,98440.352
496,0.824733,98497.125
497,0.8264,97193.57000000001
498,0.828067,92925.133
499,0.8297330000000001,92925.133
500,0.8314,84638.67200000001
501,0.833067,72630.273
502,0.83475,58669.672
503,0.836383,58669.672
504,0.83805,45300.199
505,0.839717,34388.156
506,0.841383,34388.156
507,0.84305,26466.176
508,0.8447170000000001,21136.775
509,0.846383,17692.818
510,0.84805,17692.818
511,0.8497169999999999,15488.342
512,0.851433,14059.022
513,0.85305,13099.388
514,0.8547169999999999,13099.388
515,0.856383,12421.831
516,0.85805,11922.195
517,0.859717,11527.39
518,0.861383,11527.39
519,0.86305,11193.678
520,0.864717,10904.521
521,0.866383,10639.28
522,0.86815,10639.28
523,0.869717,10394.901
524,0.871383,10172.799
525,0.87305,10172.799
526,0.874717,9963.438
527,0.876383,9766.296
528,0.87805,9579.212
529,0.879717,9579.212
530,0.881383,9401.217000000001
531,0.88305,9230.450000000001
532,0.884717,9068.251
533,0.886383,9068.251
534,0.88805,8910.671
535,0.889717,8758.156999999999
536,0.891383,8610.114
537,0.89305,8610.114
538,0.894717,8468.628000000001
539,0.896367,8336.529
540,0.898033,8336.529
541,0.8997000000000001,8204.431
542,0.901367,8080.9
543,0.903033,7957.443
544,0.9046999999999999,7957.443
545,0.906367,7836.521
546,0.908017,7725.134
547,0.909683,7613.525
548,0.91135,7613.525
549,0.913017,7508.174
550,0.914683,7406.846
551,0.91635,7309.168
552,0.918017,7309.168
553,0.919683,7216.186
554,0.92135,7123.873
555,0.923017,7123.873
556,0.924683,7034.242
557,0.92635,6945.059
558,0.928017,6857.291
559,0.929683,6857.291
560,0.93135,6771.162
561,0.933017,6685.629
562,0.934683,6605.461
563,0.93635,6605.461
564,0.938017,6530.062
565,0.939683,6459.504
566,0.94135,6390.586
567,0.943017,6390.586
568,0.9446830000000001,6319.657
569,0.94635,6249.249
570,0.948017,6180.331
571,0.9496830000000001,6180.331
572,0.95135,6111.711
573,0.953083,6047.413
574,0.9546829999999999,6047.413
575,0.956333,5985.126
576,0.958,5922.988
577,0.959667,5866.438
578,0.961333,5866.438
579,0.963,5805.567
580,0.9646670000000001,5746.558
581,0.966333,5689.859
582,0.968,5689.859
583,0.9696669999999999,5630.553
584,0.971333,5579.218
585,0.973,5525.947
586,0.974667,5525.947
587,0.976333,5474.389
588,0.978,5425.662
589,0.979667,5425.662
590,0.981333,5374.923
591,0.983,5328.804
592,0.984667,5281.94
593,0.98645,5281.94
594,0.988,5237.46
595,0.989667,5193.278
596,0.991333,5149.32
597,0.993,5149.32
598,0.994667,5105.51
599,0.996333,5063.712
600,0.998,5024.299
601,0.999667,5024.299
602,1.001333,4982.427
603,1.003,4940.704
604,1.004667,4899.8
605,1.006333,4899.8
606,1.008,4858.077
607,1.009667,4819.706
608,1.011333,4819.706
609,1.013,4786.551
610,1.014667,4751.757
611,1.016317,4719.421
612,1.018017,4719.421
613,1.01965,4685.372
614,1.021317,4650.28
615,1.022983,4613.772
616,1.02465,4613.772
617,1.026317,4580.915
618,1.027983,4545.897
619,1.02965,4512.221
620,1.031317,4512.221
621,1.032983,4480.779
622,1.03465,4448.891
623,1.036317,4448.891
624,1.037983,4419.312
625,1.03965,4389.435
626,1.041317,4361.197
627,1.042983,4361.197
628,1.04465,4327.744
629,1.046317,4298.985
630,1.047983,4271.194
631,1.04965,4271.194
632,1.051317,4240.647
633,1.052983,4219.413
634,1.05465,4191.622
635,1.056317,4191.622
636,1.057983,4164.129
637,1.05965,4141.778
638,1.061317,4116.148
639,1.062983,4116.148
640,1.06465,4094.615
641,1.066317,4070.699
642,1.067983,4070.699
643,1.06965,4046.038
644,1.071367,4018.322
645,1.072983,3993.958
646,1.07465,3993.958
647,1.076317,3972.277
648,1.077967,3948.733
649,1.079633,3926.903
650,1.081333,3926.903
651,1.082967,3904.551
652,1.084633,3881.976
653,1.086317,3859.55
654,1.087983,3859.55
655,1.089633,3835.931
656,1.0913,3814.399
657,1.092967,3814.399
658,1.094633,3791.824
659,1.0963,3772.825
660,1.097967,3756.955
661,1.099633,3756.955
662,1.1013,3737.062
663,1.102967,3718.063
664,1.104717,3701.448
665,1.1063,3701.448
666,1.107967,3683.492
667,1.109633,3668.591
668,1.1113,3653.765
669,1.112967,3653.765
670,1.114633,3636.032
671,1.1163,3617.778
672,1.117967,3596.768
673,1.119633,3596.768
674,1.1213,3578.514
675,1.122967,3558.695
676,1.124633,3558.695
677,1.1263,3537.983
678,1.127967,3520.995
679,1.129633,3503.561
680,1.1313,3503.561
681,1.132967,3485.754
682,1.134617,3469.363
683,1.1363,3452.748
684,1.13795,3452.748
685,1.139617,3438.592
686,1.141283,3425.777
687,1.14295,3414.303
688,1.144617,3414.303
689,1.146283,3401.19
690,1.14795,3388.002
691,1.149617,3388.002
692,1.151283,3373.698
693,1.15295,3357.232
694,1.154617,3342.479
695,1.1563,3342.479
696,1.15795,3322.81
697,1.159617,3308.058
698,1.161283,3296.807
699,1.16295,3296.807
700,1.164617,3285.11
701,1.166283,3273.189
702,1.16795,3260.151
703,1.169617,3260.151
704,1.171283,3245.026
705,1.17295,3231.615
706,1.174617,3231.615
707,1.176283,3222.004
708,1.17795,3211.424
709,1.179617,3198.013
710,1.181283,3198.013
711,1.18295,3185.049
712,1.184617,3171.861
713,1.186283,3155.47
714,1.18795,3155.47
715,1.189617,3142.655
716,1.191283,3130.063
717,1.19295,3115.758
718,1.194617,3115.758
719,1.196267,3104.657
720,1.19795,3095.418
721,1.199583,3084.913
722,1.20125,3084.913
723,1.202917,3072.247
724,1.204583,3059.953
725,1.20635,3059.953
726,1.207917,3046.393
727,1.209583,3032.61
728,1.21125,3024.34
729,1.212917,3024.34
730,1.214583,3015.399
731,1.21625,3005.937
732,1.217917,2994.984
733,1.219583,2994.984
734,1.22125,2983.585
735,1.222917,2972.931
736,1.224583,2964.884
737,1.22625,2964.884
738,1.227917,2956.167
739,1.229583,2944.768
740,1.23125,2944.768
741,1.232917,2935.901
742,1.234583,2924.949
743,1.23625,2916.604
744,1.237917,2916.604
745,1.239583,2911.016
746,1.24125,2900.437
747,1.242917,2892.241
748,1.244583,2892.241
749,1.24625,2881.736
750,1.247917,2868.623
751,1.249583,2858.788
752,1.25125,2858.788
753,1.252917,2846.345
754,1.254583,2837.926
755,1.25625,2832.934
756,1.2579,2832.934
757,1.259567,2823.249
758,1.261233,2817.81
759,1.262917,2817.81
760,1.264567,2808.794
761,1.26625,2797.469
762,1.2679,2790.615
763,1.269567,2790.615
764,1.271233,2778.098
765,1.2729,2768.636
766,1.274567,2762.75
767,1.276233,2762.75
768,1.2779,2754.554
769,1.279567,2749.637
770,1.281233,2742.782
771,1.2829,2742.782
772,1.284567,2734.363
773,1.286233,2727.285
774,1.2879,2727.285
775,1.289567,2717.525
776,1.291233,2708.063
777,1.2929,2697.855
778,1.294567,2697.855
779,1.296233,2693.161
780,1.2979,2685.636
781,1.299567,2679.229
782,1.301233,2679.229
783,1.3029,2672.598
784,1.304567,2664.626
785,1.306233,2658.665
786,1.307933,2658.665
787,1.309567,2652.854
788,1.311233,2646.074
789,1.3129,2646.074
790,1.314567,2635.121
791,1.316233,2630.055
792,1.317883,2626.702
793,1.31955,2626.702
794,1.321217,2620.742
795,1.322883,2618.357
796,1.32455,2612.099
797,1.326217,2612.099
798,1.327883,2601.892
799,1.32955,2596.304
800,1.331217,2586.543
801,1.332883,2586.543
802,1.33455,2579.466
803,1.336217,2570.823
804,1.337883,2564.713
805,1.33955,2564.713
806,1.341333,2557.188
807,1.342883,2549.365
808,1.34455,2549.365
809,1.346217,2544.373
810,1.347883,2535.582
811,1.34955,2532.08
812,1.351217,2532.08
813,1.352883,2525.598
814,1.35455,2522.543
815,1.356217,2517.104
816,1.35795,2517.104
817,1.35955,2506.748
818,1.361217,2503.544
819,1.362883,2495.646
820,1.36455,2495.646
821,1.366217,2494.604
822,1.367883,2494.752
823,1.36955,2494.752
824,1.371217,2489.835
825,1.372883,2485.663
826,1.37455,2477.244
827,1.376217,2477.244
828,1.377867,2470.836
829,1.379533,2464.578
830,1.3812,2459.288
831,1.382867,2459.288
832,1.384533,2454.594
833,1.3862,2447.739
834,1.387867,2438.799
835,1.389533,2438.799
836,1.3912,2429.56
837,1.392867,2421.737
838,1.394533,2414.137
839,1.3962,2414.137
840,1.397867,2411.157
841,1.399533,2411.38
842,1.4012,2411.38
843,1.402867,2407.804
844,1.404533,2405.792
845,1.4062,2401.024
846,1.407867,2401.024
847,1.409533,2392.158
848,1.4112,2387.24
849,1.412867,2379.343
850,1.414533,2379.343
851,1.4162,2373.531
852,1.417867,2369.508
853,1.419533,2366.528
854,1.4212,2366.528
855,1.422867,2363.324
856,1.424533,2359.45
857,1.426217,2359.45
858,1.427867,2353.49
859,1.429533,2347.305
860,1.4312,2343.58
861,1.4329,2343.58
862,1.434533,2338.29
863,1.436183,2333.298
864,1.43785,2329.052
865,1.439517,2329.052
866,1.441183,2321.228
867,1.442933,2316.385
868,1.444517,2315.044
869,1.446183,2315.044
870,1.44785,2309.158
871,1.449517,2305.806
872,1.451183,2301.782
873,1.45285,2301.782
874,1.454517,2296.344
875,1.456183,2292.544
876,1.45785,2292.544
877,1.4596,2289.116
878,1.461183,2287.999
879,1.46285,2283.826
880,1.464517,2283.826
881,1.466183,2280.101
882,1.46785,2276.003
883,1.469517,2269.596
884,1.471183,2269.596
885,1.47285,2266.839
886,1.474517,2262.816
887,1.476283,2262.667
888,1.47785,2262.667
889,1.479517,2258.271
890,1.481183,2252.012
891,1.48285,2252.012
892,1.484517,2249.256
893,1.486183,2243.742
894,1.48785,2236.366
895,1.489517,2236.366
896,1.491167,2234.727
897,1.492833,2230.629
898,1.4945,2226.383
899,1.496167,2226.383
900,1.497817,2223.477
901,1.499483,2217.814
