"ID","sea_time","fid_signal"
1,0,28.203
2,0.001667,28.204
3,0.003333,28.209
4,0.005,28.211
5,0.006667,28.211
6,0.008333,28.18
7,0.01,28.121
8,0.011667,28.048
9,0.0134,28.048
10,0.015,27.987
11,0.016667,27.974
12,0.018333,28.003
13,0.02,28.003
14,0.021667,28.055
15,0.023333,28.105
16,0.025,28.105
17,0.026667,28.146
18,0.028333,28.173
19,0.029983,28.201
20,0.031683,28.201
21,0.033317,28.216
22,0.034983,28.219
23,0.03665,28.222
24,0.038317,28.222
25,0.039983,28.215
26,0.04165,28.215
27,0.043317,28.217
28,0.044983,28.217
29,0.046767,28.217
30,0.048317,28.22
31,0.049983,28.22
32,0.05165,28.223
33,0.053317,28.219
34,0.054983,28.215
35,0.05665,28.215
36,0.058333,28.208
37,0.059967,28.202
38,0.061633,28.199
39,0.0633,28.199
40,0.064967,28.197
41,0.066633,28.192
42,0.0683,28.191
43,0.069967,28.191
44,0.071633,28.195
45,0.0733,28.201
46,0.07496700000000001,28.214
47,0.07663300000000001,28.214
48,0.07829999999999999,28.219
49,0.079967,28.213
50,0.081633,28.213
51,0.0833,28.208
52,0.084967,28.202
53,0.086633,28.201
54,0.088283,28.201
55,0.08995,28.203
56,0.091617,28.203
57,0.093283,28.202
58,0.09495000000000001,28.202
59,0.09661699999999999,28.206
60,0.098283,28.21
61,0.09995,28.215
62,0.101617,28.215
63,0.1033,28.223
64,0.10495,28.223
65,0.106617,28.223
66,0.108283,28.219
67,0.10995,28.22
68,0.111617,28.217
69,0.113283,28.217
70,0.11495,28.214
71,0.116617,28.213
72,0.118283,28.206
73,0.11995,28.206
74,0.121617,28.201
75,0.123283,28.196
76,0.12495,28.203
77,0.126617,28.203
78,0.128283,28.206
79,0.12995,28.211
80,0.131717,28.215
81,0.133283,28.215
82,0.13495,28.211
83,0.136617,28.209
84,0.138283,28.209
85,0.13995,28.202
86,0.141617,28.201
87,0.143283,28.205
88,0.14495,28.205
89,0.146617,28.212
90,0.148367,28.218
91,0.149933,28.224
92,0.1516,28.224
93,0.153267,28.215
94,0.154933,28.215
95,0.1566,28.22
96,0.158283,28.22
97,0.159933,28.222
98,0.1616,28.228
99,0.163267,28.228
100,0.16505,28.222
101,0.1666,28.212
102,0.168267,28.2
103,0.169933,28.2
104,0.1716,28.196
105,0.173267,28.199
106,0.174933,28.205
107,0.1766,28.205
108,0.178267,28.212
109,0.179933,28.217
110,0.1816,28.221
111,0.183267,28.221
112,0.184933,28.22
113,0.1866,28.223
114,0.188267,28.228
115,0.189933,28.228
116,0.1916,28.232
117,0.193267,28.234
118,0.194933,28.234
119,0.1966,28.236
120,0.198267,28.227
121,0.199933,28.222
122,0.2016,28.222
123,0.203267,28.221
124,0.204933,28.214
125,0.2066,28.208
126,0.208267,28.208
127,0.209917,28.201
128,0.211583,28.2
129,0.21325,28.206
130,0.214917,28.206
131,0.216583,28.215
132,0.218267,28.222
133,0.219917,28.222
134,0.221583,28.222
135,0.22325,28.22
136,0.224917,28.217
137,0.226583,28.217
138,0.22825,28.22
139,0.229917,28.22
140,0.231583,28.225
141,0.23325,28.225
142,0.234917,28.228
143,0.236583,28.229
144,0.23825,28.229
145,0.239917,28.229
146,0.2416,28.224
147,0.24325,28.228
148,0.244917,28.228
149,0.246583,28.226
150,0.24825,28.229
151,0.249933,28.232
152,0.251583,28.232
153,0.25325,28.227
154,0.254917,28.225
155,0.256583,28.223
156,0.25825,28.223
157,0.259917,28.219
158,0.261583,28.215
159,0.26325,28.22
160,0.264917,28.22
161,0.2667,28.227
162,0.268233,28.236
163,0.2699,28.242
164,0.271567,28.242
165,0.273233,28.241
166,0.2749,28.236
167,0.276567,28.236
168,0.278233,28.233
169,0.2799,28.237
170,0.281567,28.242
171,0.283233,28.242
172,0.2849,28.245
173,0.286567,28.251
174,0.288233,28.253
175,0.2899,28.253
176,0.291567,28.248
177,0.293233,28.248
178,0.2949,28.249
179,0.296567,28.249
180,0.298233,28.249
181,0.2999,28.256
182,0.301567,28.256
183,0.303233,28.261
184,0.3049,28.262
185,0.306567,28.264
186,0.308233,28.264
187,0.3099,28.26
188,0.311567,28.267
189,0.313233,28.275
190,0.3149,28.275
191,0.316567,28.287
192,0.318233,28.303
193,0.3199,28.312
194,0.321583,28.312
195,0.323233,28.325
196,0.3249,28.339
197,0.326567,28.358
198,0.328233,28.358
199,0.329883,28.38
200,0.33155,28.403
201,0.333217,28.403
202,0.334883,28.423
203,0.33655,28.452
204,0.338217,28.477
205,0.339883,28.477
206,0.34155,28.508
207,0.343217,28.55
208,0.344883,28.591
209,0.34655,28.591
210,0.348217,28.651
211,0.349883,28.723
212,0.351533,28.807
213,0.3532,28.807
214,0.354867,28.905
215,0.356533,29.015
216,0.3582,29.015
217,0.359867,29.141
218,0.361533,29.287
219,0.3632,29.463
220,0.364867,29.463
221,0.366533,29.677
222,0.368217,29.936
223,0.369867,30.238
224,0.371533,30.238
225,0.3732,30.601
226,0.374867,31.013
227,0.376533,31.487
228,0.3782,31.487
229,0.379867,32.019
230,0.381533,32.614
231,0.3832,32.614
232,0.384917,33.278
233,0.386517,34.008
234,0.388183,34.811
235,0.389883,34.811
236,0.391567,35.677
237,0.393183,36.61
238,0.39485,37.592
239,0.396517,37.592
240,0.398183,38.62
241,0.39985,39.688
242,0.401583,40.782
243,0.403183,40.782
244,0.40485,41.89
245,0.406517,43.005
246,0.408183,44.103
247,0.40985,44.103
248,0.411517,45.174
249,0.413183,46.205
250,0.41485,46.205
251,0.416517,47.172
252,0.418283,48.074
253,0.41985,48.894
254,0.421517,48.894
255,0.423183,49.622
256,0.42485,50.252
257,0.426517,50.768
258,0.428183,50.768
259,0.42985,51.167
260,0.431517,51.45
261,0.433183,51.626
262,0.43485,51.626
263,0.436517,51.694
264,0.438183,51.646
265,0.43985,51.646
266,0.441517,51.492
267,0.443183,51.23
268,0.44485,50.87
269,0.446517,50.87
270,0.448183,50.428
271,0.449833,49.901
272,0.4515,49.303
273,0.453167,49.303
274,0.454833,48.641
275,0.4565,47.918
276,0.458167,47.15
277,0.459833,47.15
278,0.461517,46.338
279,0.463233,45.495
280,0.464833,44.637
281,0.4665,44.637
282,0.468167,43.766
283,0.469833,42.9
284,0.4715,42.9
285,0.473167,42.048
286,0.474833,41.203
287,0.4765,40.381
288,0.478167,40.381
289,0.479833,39.575
290,0.4815,38.796
291,0.483167,38.049
292,0.484833,38.049
293,0.4865,37.327
294,0.488167,36.647
295,0.489833,35.994
296,0.4915,35.994
297,0.493167,35.381
298,0.494833,34.809
299,0.4965,34.809
300,0.498167,34.271
301,0.499833,33.77
302,0.5014999999999999,33.299
303,0.5032,33.299
304,0.504833,32.862
305,0.5065,32.456
306,0.50815,32.084
307,0.509817,32.084
308,0.511483,31.746
309,0.51315,31.432
310,0.514817,31.147
311,0.516483,31.147
312,0.51815,30.889
313,0.519883,30.65
314,0.521483,30.432
315,0.52315,30.432
316,0.524817,30.234
317,0.526483,30.05
318,0.52815,30.05
319,0.529817,29.893
320,0.531483,29.754
321,0.53315,29.632
322,0.534817,29.632
323,0.536633,29.521
324,0.53815,29.416
325,0.539817,29.324
326,0.541483,29.324
327,0.54315,29.237
328,0.544817,29.164
329,0.5464830000000001,29.095
330,0.54815,29.095
331,0.549817,29.04
332,0.5514829999999999,28.988
333,0.55315,28.988
334,0.554817,28.937
335,0.5564829999999999,28.897
336,0.55815,28.854
337,0.559817,28.854
338,0.561483,28.826
339,0.56315,28.801
340,0.564817,28.777
341,0.566483,28.777
342,0.56815,28.763
343,0.5698,28.75
344,0.5714669999999999,28.732
345,0.573133,28.732
346,0.5748,28.721
347,0.576467,28.705
348,0.578133,28.688
349,0.5798,28.688
350,0.581467,28.677
351,0.583133,28.664
352,0.5848,28.664
353,0.586467,28.658
354,0.588133,28.654
355,0.5898,28.655
356,0.591467,28.655
357,0.593133,28.654
358,0.5948,28.648
359,0.596467,28.643
360,0.598133,28.643
361,0.5998,28.632
362,0.601467,28.621
363,0.60315,28.62
364,0.6048,28.62
365,0.606467,28.611
366,0.608133,28.608
367,0.6098,28.608
368,0.611467,28.613
369,0.613133,28.607
370,0.6148169999999999,28.599
371,0.616467,28.599
372,0.618133,28.597
373,0.6198,28.592
374,0.621483,28.588
375,0.623133,28.588
376,0.6248,28.593
377,0.626467,28.593
378,0.6281330000000001,28.591
379,0.629783,28.591
380,0.63145,28.588
381,0.633117,28.583
382,0.634783,28.583
383,0.63645,28.576
384,0.638133,28.571
385,0.639783,28.576
386,0.641433,28.576
387,0.6431,28.577
388,0.644767,28.577
389,0.646433,28.578
390,0.6481,28.578
391,0.649767,28.57
392,0.651433,28.568
393,0.6531,28.573
394,0.654867,28.573
395,0.656433,28.566
396,0.6581,28.569
397,0.659767,28.565
398,0.661433,28.565
399,0.6631,28.56
400,0.664767,28.558
401,0.6664330000000001,28.558
402,0.6681,28.554
403,0.669767,28.557
404,0.6714329999999999,28.562
405,0.673117,28.562
406,0.674767,28.562
407,0.676433,28.563
408,0.6781,28.554
409,0.679767,28.554
410,0.681433,28.541
411,0.6831,28.539
412,0.684767,28.537
413,0.686433,28.537
414,0.688083,28.545
415,0.689783,28.552
416,0.6914169999999999,28.552
417,0.693083,28.554
418,0.69475,28.563
419,0.696417,28.564
420,0.698083,28.564
421,0.69975,28.563
422,0.701417,28.559
423,0.703083,28.547
424,0.70475,28.547
425,0.706417,28.54
426,0.708083,28.534
427,0.70975,28.54
428,0.711417,28.54
429,0.713083,28.544
430,0.71475,28.548
431,0.716417,28.556
432,0.718083,28.556
433,0.71975,28.56
434,0.721417,28.556
435,0.723083,28.556
436,0.72475,28.556
437,0.726417,28.556
438,0.728083,28.548
439,0.72975,28.548
440,0.731417,28.548
441,0.733083,28.547
442,0.73475,28.547
443,0.736417,28.547
444,0.738083,28.553
445,0.73975,28.564
446,0.7414500000000001,28.569
447,0.743083,28.569
448,0.74475,28.566
449,0.746417,28.567
450,0.7480830000000001,28.567
451,0.749733,28.565
452,0.7514,28.57
453,0.753067,28.573
454,0.754733,28.573
455,0.7564,28.573
456,0.758067,28.571
457,0.759733,28.565
458,0.7614,28.565
459,0.7630670000000001,28.566
460,0.764733,28.571
461,0.7664,28.572
462,0.7680670000000001,28.572
463,0.769733,28.571
464,0.7714,28.569
465,0.7732,28.559
466,0.774733,28.559
467,0.7764,28.559
468,0.778067,28.567
469,0.7797500000000001,28.567
470,0.7814,28.571
471,0.783067,28.574
472,0.784733,28.572
473,0.7864,28.572
474,0.788067,28.566
475,0.78975,28.564
476,0.7914,28.565
477,0.793067,28.565
478,0.794733,28.565
479,0.7964,28.565
480,0.798067,28.562
481,0.799733,28.562
482,0.8014,28.563
483,0.803067,28.563
484,0.804733,28.563
485,0.8064,28.565
486,0.80805,28.566
487,0.809717,28.568
488,0.811383,28.568
489,0.8130500000000001,28.568
490,0.814717,28.566
491,0.816383,28.566
492,0.8181,28.566
493,0.819717,28.56
494,0.821383,28.561
495,0.8230499999999999,28.564
496,0.824717,28.564
497,0.826383,28.572
498,0.82805,28.583
499,0.829717,28.583
500,0.831383,28.59
501,0.83305,28.594
502,0.834717,28.59
503,0.836383,28.59
504,0.83805,28.587
505,0.839717,28.586
506,0.841383,28.585
507,0.84305,28.585
508,0.8447170000000001,28.587
509,0.846383,28.589
510,0.84805,28.59
511,0.8497169999999999,28.59
512,0.851383,28.592
513,0.85305,28.591
514,0.8547169999999999,28.593
515,0.856383,28.593
516,0.858117,28.593
517,0.859717,28.599
518,0.861383,28.599
519,0.86305,28.61
520,0.864717,28.621
521,0.866383,28.634
522,0.86805,28.634
523,0.8697,28.632
524,0.871367,28.629
525,0.8730329999999999,28.628
526,0.8747,28.628
527,0.876367,28.62
528,0.878033,28.626
529,0.8797,28.633
530,0.881367,28.633
531,0.883033,28.631
532,0.8847,28.632
533,0.886367,28.632
534,0.888033,28.629
535,0.8897,28.628
536,0.891367,28.632
537,0.893033,28.632
538,0.8947000000000001,28.636
539,0.896367,28.641
540,0.898033,28.648
541,0.8997000000000001,28.648
542,0.901367,28.652
543,0.903033,28.66
544,0.9046999999999999,28.668
545,0.906367,28.668
546,0.908033,28.671
547,0.9097,28.675
548,0.911367,28.671
549,0.913033,28.671
550,0.9147,28.671
551,0.916367,28.678
552,0.918033,28.678
553,0.9197,28.683
554,0.921367,28.686
555,0.923033,28.687
556,0.9247,28.687
557,0.9263670000000001,28.684
558,0.928033,28.683
559,0.929683,28.685
560,0.93135,28.685
561,0.9330000000000001,28.693
562,0.934667,28.695
563,0.936333,28.704
564,0.9379999999999999,28.704
565,0.939667,28.713
566,0.941333,28.719
567,0.9429999999999999,28.719
568,0.9446830000000001,28.728
569,0.946333,28.73
570,0.948,28.735
571,0.949667,28.735
572,0.951333,28.734
573,0.953,28.74
574,0.954667,28.743
575,0.956333,28.743
576,0.958,28.743
577,0.959667,28.745
578,0.961333,28.746
579,0.963,28.746
580,0.964683,28.751
581,0.966333,28.761
582,0.968,28.776
583,0.9696669999999999,28.776
584,0.971333,28.786
585,0.973,28.795
586,0.974667,28.795
587,0.9764,28.804
588,0.978,28.809
589,0.979667,28.819
590,0.981333,28.819
591,0.983,28.833
592,0.984667,28.844
593,0.986333,28.851
594,0.988,28.851
595,0.98965,28.854
596,0.991317,28.856
597,0.9929829999999999,28.857
598,0.99465,28.857
599,0.996317,28.864
600,0.997983,28.869
601,0.99965,28.869
602,1.001317,28.871
603,1.002983,28.871
604,1.00465,28.872
605,1.006317,28.872
606,1.007983,28.87
607,1.00975,28.874
608,1.011317,28.882
609,1.012983,28.882
610,1.01465,28.891
611,1.016317,28.898
612,1.017983,28.904
613,1.01965,28.904
614,1.021317,28.907
615,1.022983,28.908
616,1.02465,28.908
617,1.026317,28.911
618,1.027983,28.919
619,1.02965,28.925
620,1.031317,28.925
621,1.033017,28.934
622,1.03465,28.94
623,1.036317,28.946
624,1.037983,28.946
625,1.03965,28.954
626,1.041317,28.971
627,1.042983,28.985
628,1.04465,28.985
629,1.046317,28.992
630,1.047983,28.997
631,1.049633,28.991
632,1.0513,28.991
633,1.052967,28.997
634,1.054633,29
635,1.0563,29
636,1.057967,29.004
637,1.059633,29.013
638,1.0613,29.016
639,1.062967,29.016
640,1.064633,29.027
641,1.0663,29.043
642,1.067967,29.056
643,1.069633,29.056
644,1.0713,29.065
645,1.072967,29.077
646,1.074633,29.083
647,1.0763,29.083
648,1.077967,29.095
649,1.079633,29.109
650,1.0813,29.109
651,1.082967,29.111
652,1.084633,29.122
653,1.0863,29.128
654,1.087967,29.128
655,1.089633,29.134
656,1.0913,29.149
657,1.092967,29.156
658,1.094683,29.156
659,1.0963,29.166
660,1.097983,29.181
661,1.099633,29.186
662,1.1013,29.186
663,1.102967,29.195
664,1.104633,29.205
665,1.106317,29.209
666,1.10795,29.209
667,1.109617,29.217
668,1.111367,29.228
669,1.11295,29.228
670,1.114617,29.242
671,1.116283,29.255
672,1.11795,29.266
673,1.119617,29.266
674,1.121283,29.27
675,1.12295,29.274
676,1.124617,29.279
677,1.126283,29.279
678,1.12805,29.292
679,1.129617,29.3
680,1.131283,29.302
681,1.13295,29.302
682,1.134617,29.305
683,1.136283,29.311
684,1.13795,29.311
685,1.139617,29.322
686,1.141283,29.333
687,1.14295,29.348
688,1.144617,29.348
689,1.146283,29.363
690,1.14795,29.369
691,1.149617,29.377
692,1.151283,29.377
693,1.15295,29.383
694,1.154617,29.39
695,1.156283,29.41
696,1.15795,29.41
697,1.159617,29.427
698,1.161283,29.442
699,1.16295,29.447
700,1.164617,29.447
701,1.166283,29.455
702,1.167933,29.468
703,1.1696,29.468
704,1.171267,29.483
705,1.172933,29.507
706,1.1746,29.521
707,1.176267,29.521
708,1.177967,29.531
709,1.17965,29.542
710,1.181267,29.545
711,1.182933,29.545
712,1.1846,29.552
713,1.186267,29.564
714,1.187933,29.572
715,1.1896,29.572
716,1.191267,29.584
717,1.19295,29.598
718,1.1946,29.598
719,1.196267,29.609
720,1.197933,29.622
721,1.1996,29.639
722,1.201267,29.639
723,1.202933,29.649
724,1.2046,29.661
725,1.206267,29.672
726,1.207933,29.672
727,1.2096,29.68
728,1.211267,29.687
729,1.212933,29.694
730,1.2146,29.694
731,1.216267,29.705
732,1.217933,29.716
733,1.2196,29.735
734,1.221267,29.735
735,1.222933,29.754
736,1.224583,29.769
737,1.22625,29.769
738,1.227917,29.78
739,1.229683,29.788
740,1.231233,29.794
741,1.2329,29.794
742,1.234567,29.807
743,1.236233,29.819
744,1.2379,29.835
745,1.239567,29.835
746,1.241233,29.853
747,1.2429,29.86
748,1.244567,29.874
749,1.246317,29.874
750,1.247917,29.882
751,1.249617,29.892
752,1.251233,29.892
753,1.2529,29.912
754,1.254567,29.922
755,1.256233,29.942
756,1.2579,29.942
757,1.259567,29.958
758,1.261233,29.968
759,1.262983,29.985
760,1.264567,29.985
761,1.266233,30
762,1.2679,30.011
763,1.269567,30.024
764,1.271233,30.024
765,1.2729,30.036
766,1.274567,30.042
767,1.276233,30.042
768,1.2779,30.054
769,1.279567,30.063
770,1.281233,30.072
771,1.2829,30.072
772,1.284567,30.087
773,1.286233,30.101
774,1.287883,30.122
775,1.28955,30.122
776,1.291217,30.141
777,1.292883,30.149
778,1.29455,30.162
779,1.296217,30.162
780,1.297883,30.176
781,1.29955,30.191
782,1.301217,30.213
783,1.302883,30.213
784,1.30455,30.232
785,1.306217,30.251
786,1.307883,30.251
787,1.30955,30.27
788,1.311217,30.283
789,1.312883,30.298
790,1.3146,30.298
791,1.316217,30.314
792,1.317883,30.329
793,1.31955,30.346
794,1.321217,30.346
795,1.322883,30.361
796,1.32455,30.373
797,1.326217,30.386
798,1.327883,30.386
799,1.32955,30.404
800,1.331217,30.421
801,1.332883,30.421
802,1.33455,30.44
803,1.336217,30.457
804,1.337883,30.469
805,1.33955,30.469
806,1.341217,30.488
807,1.342883,30.504
808,1.34455,30.52
809,1.346217,30.52
810,1.347917,30.539
811,1.349533,30.549
812,1.3512,30.56
813,1.352867,30.56
814,1.354533,30.575
815,1.3562,30.597
816,1.357867,30.613
817,1.359533,30.613
818,1.3612,30.63
819,1.362867,30.646
820,1.364567,30.646
821,1.3662,30.656
822,1.367883,30.678
823,1.369533,30.695
824,1.3712,30.695
825,1.372867,30.713
826,1.374533,30.727
827,1.3762,30.745
828,1.377867,30.745
829,1.379533,30.766
830,1.3813,30.78
831,1.382867,30.802
832,1.384533,30.802
833,1.3862,30.827
834,1.387867,30.848
835,1.389533,30.848
836,1.391217,30.874
837,1.392867,30.888
838,1.394533,30.9
839,1.3962,30.9
840,1.397867,30.91
841,1.399533,30.927
842,1.4012,30.955
843,1.402867,30.955
844,1.404533,30.973
845,1.406183,30.991
846,1.407867,31.008
847,1.409517,31.008
848,1.411183,31.013
849,1.41285,31.035
850,1.414517,31.035
851,1.416183,31.06
852,1.41785,31.083
853,1.419533,31.112
854,1.421183,31.112
855,1.42285,31.126
856,1.424517,31.136
857,1.426183,31.147
858,1.42785,31.147
859,1.429517,31.165
860,1.431183,31.187
861,1.43285,31.209
862,1.434517,31.209
863,1.436183,31.23
864,1.43785,31.246
865,1.439517,31.262
866,1.441183,31.262
867,1.44285,31.285
868,1.444517,31.306
869,1.446183,31.306
870,1.44785,31.33
871,1.449517,31.353
872,1.451183,31.374
873,1.45285,31.374
874,1.454517,31.395
875,1.456183,31.418
876,1.45785,31.435
877,1.459517,31.435
878,1.461183,31.452
879,1.46285,31.469
880,1.464517,31.483
881,1.466183,31.483
882,1.46785,31.507
883,1.4695,31.53
884,1.471167,31.53
885,1.472833,31.551
886,1.4745,31.576
887,1.476167,31.596
888,1.477833,31.596
889,1.4795,31.617
890,1.481167,31.646
891,1.482833,31.669
892,1.4845,31.669
893,1.486167,31.694
894,1.487833,31.711
895,1.4895,31.73
896,1.491167,31.73
897,1.492833,31.749
898,1.4945,31.77
899,1.496167,31.793
900,1.497833,31.793
901,1.4996,31.807
902,1.501167,31.826
903,1.502833,31.826
904,1.5045,31.843
905,1.506167,31.862
906,1.50785,31.892
907,1.5095,31.892
908,1.511167,31.918
909,1.512833,31.946
910,1.5145,31.97
911,1.51615,31.97
912,1.517817,31.987
913,1.519483,32.006
914,1.52115,32.023
915,1.522817,32.023
916,1.524483,32.044
917,1.52615,32.068
918,1.5278,32.068
919,1.529467,32.089
920,1.531133,32.106
921,1.5328,32.13
922,1.534483,32.13
923,1.536133,32.151
924,1.5378,32.171
925,1.539467,32.192
926,1.541133,32.192
927,1.542817,32.209
928,1.544467,32.228
929,1.546133,32.249
930,1.5478,32.249
931,1.549467,32.274
932,1.551133,32.303
933,1.5528,32.328
934,1.554467,32.328
935,1.556133,32.35
936,1.5578,32.368
937,1.559467,32.368
938,1.561133,32.386
939,1.5628,32.407
940,1.564467,32.436
941,1.566133,32.436
942,1.5678,32.464
943,1.569467,32.489
944,1.571133,32.516
945,1.5728,32.516
946,1.574467,32.542
947,1.576133,32.573
948,1.5778,32.603
949,1.579483,32.603
950,1.581133,32.627
951,1.5828,32.648
952,1.58445,32.648
953,1.586133,32.661
954,1.587783,32.685
955,1.58945,32.707
956,1.591117,32.707
957,1.592783,32.732
958,1.59445,32.763
959,1.596117,32.789
960,1.597783,32.789
961,1.59945,32.812
962,1.601183,32.831
963,1.602783,32.854
964,1.604483,32.854
965,1.606117,32.878
966,1.607783,32.903
967,1.60945,32.903
968,1.611117,32.929
969,1.612783,32.95
970,1.61445,32.979
971,1.616117,32.979
972,1.617867,33.004
973,1.61945,33.028
974,1.621117,33.052
975,1.622783,33.052
976,1.62445,33.069
977,1.626117,33.093
978,1.627783,33.121
979,1.62945,33.121
980,1.631117,33.151
981,1.632783,33.172
982,1.63445,33.195
983,1.636117,33.195
984,1.637783,33.218
985,1.63945,33.242
986,1.641117,33.242
987,1.642783,33.275
988,1.64445,33.304
989,1.646117,33.33
990,1.647783,33.33
991,1.649433,33.351
992,1.6511,33.369
993,1.652767,33.394
994,1.654433,33.394
995,1.6561,33.414
996,1.657767,33.44
997,1.659433,33.466
998,1.6611,33.466
999,1.662767,33.486
1000,1.664433,33.514
1001,1.6661,33.514
1002,1.667783,33.541
1003,1.669433,33.565
1004,1.6711,33.593
1005,1.672767,33.593
1006,1.674433,33.619
1007,1.6761,33.644
1008,1.677767,33.675
1009,1.679433,33.675
1010,1.6811,33.701
1011,1.682767,33.727
1012,1.684433,33.758
1013,1.6861,33.758
1014,1.687767,33.786
1015,1.689433,33.814
1016,1.6911,33.837
