"ID","sea_time","fid_signal"
1,0,1191.795
2,0.001667,1190.007
3,0.003333,1190.007
4,0.005,1186.579
5,0.006667,1186.579
6,0.008333,1185.536
7,0.01,1187.176
8,0.011667,1181.96
9,0.013333,1181.96
10,0.015,1181.215
11,0.016667,1185.685
12,0.018333,1188.442
13,0.02,1188.442
14,0.021683,1192.093
15,0.023333,1192.242
16,0.025,1192.242
17,0.026667,1191.869
18,0.028333,1190.826
19,0.03,1191.497
20,0.031667,1191.497
21,0.033333,1193.881
22,0.035,1193.732
23,0.036667,1191.646
24,0.0384,1191.646
25,0.04,1188.07
26,0.041667,1187.176
27,0.043317,1184.94
28,0.044983,1184.94
29,0.04665,1183.301
30,0.048317,1185.685
31,0.049983,1185.685
32,0.05165,1185.089
33,0.053333,1187.995
34,0.0551,1191.199
35,0.05665,1191.199
36,0.058317,1193.136
37,0.059983,1192.912
38,0.06165,1190.826
39,0.063317,1190.826
40,0.064983,1188.74
41,0.06665,1183.897
42,0.068317,1185.089
43,0.069983,1185.089
44,0.07165000000000001,1183.897
45,0.07331699999999999,1183.227
46,0.07498299999999999,1186.803
47,0.07665,1186.803
48,0.078317,1187.324
49,0.079983,1190.752
50,0.08165,1190.752
51,0.083317,1192.987
52,0.084983,1192.54
53,0.08665,1191.05
54,0.08831700000000001,1191.05
55,0.08998299999999999,1187.846
56,0.09165,1186.058
57,0.093317,1185.685
58,0.094983,1185.685
59,0.09665,1186.654
60,0.098317,1186.654
61,0.099983,1185.834
62,0.10165,1185.834
63,0.103317,1183.003
64,0.104967,1182.854
65,0.106633,1182.854
66,0.1083,1181.662
67,0.109967,1182.482
68,0.111633,1182.705
69,0.1133,1182.705
70,0.114967,1182.705
71,0.116633,1183.748
72,0.1183,1186.058
73,0.119967,1186.058
74,0.121633,1187.026
75,0.1233,1186.058
76,0.124967,1184.642
77,0.126633,1184.642
78,0.1283,1181.96
79,0.129967,1184.046
80,0.131633,1186.729
81,0.1333,1186.729
82,0.134967,1191.795
83,0.136633,1192.54
84,0.1383,1192.54
85,0.139967,1188.368
86,0.141633,1183.897
87,0.1433,1181.886
88,0.144967,1181.886
89,0.146633,1181.141
90,0.1483,1181.513
91,0.149967,1183.078
92,0.151633,1183.078
93,0.1533,1181.662
94,0.154967,1182.258
95,0.156633,1182.556
96,0.1583,1182.556
97,0.159967,1184.121
98,0.161633,1183.525
99,0.163283,1183.525
100,0.16495,1183.599
101,0.166617,1183.003
102,0.168283,1181.96
103,0.16995,1181.96
104,0.171617,1183.599
105,0.1734,1183.003
106,0.17495,1185.611
107,0.176617,1185.611
108,0.178283,1184.568
109,0.17995,1182.631
110,0.181617,1182.854
111,0.183283,1182.854
112,0.18495,1181.29
113,0.186617,1180.023
114,0.188283,1181.886
115,0.18995,1181.886
116,0.191633,1181.96
117,0.1933,1184.195
118,0.19495,1184.195
119,0.196617,1184.94
120,0.198283,1185.089
121,0.19995,1188.368
122,0.201633,1188.368
123,0.203283,1185.611
124,0.20495,1187.399
125,0.206617,1185.685
126,0.208283,1185.685
127,0.20995,1182.631
128,0.211617,1183.748
129,0.213283,1181.886
130,0.21495,1181.886
131,0.216617,1181.066
132,0.218283,1180.023
133,0.21995,1180.023
134,0.221617,1177.49
135,0.223267,1176.521
136,0.224933,1177.564
137,0.2266,1177.564
138,0.228267,1178.756
139,0.229933,1182.78
140,0.2316,1183.003
141,0.233267,1183.003
142,0.234933,1182.854
143,0.2366,1182.109
144,0.238267,1176.968
145,0.239933,1176.968
146,0.2416,1175.627
147,0.243267,1175.329
148,0.244933,1175.329
149,0.2466,1174.957
150,0.248267,1176.968
151,0.249933,1179.427
152,0.2516,1179.427
153,0.253267,1177.788
154,0.254933,1174.882
155,0.2566,1176
156,0.2583,1176
157,0.259933,1176
158,0.2616,1177.937
159,0.263267,1181.811
160,0.264917,1181.811
161,0.266583,1184.046
162,0.26825,1184.195
163,0.269917,1183.525
164,0.271583,1183.525
165,0.27325,1182.854
166,0.274917,1178.011
167,0.276583,1178.011
168,0.27825,1174.882
169,0.279917,1172.125
170,0.281583,1169.89
171,0.283233,1169.89
172,0.2849,1172.125
173,0.286567,1175.404
174,0.288233,1177.937
175,0.2899,1177.937
176,0.291683,1180.321
177,0.293233,1178.458
178,0.2949,1176.968
179,0.296567,1176.968
180,0.298233,1174.286
181,0.2999,1171.38
182,0.301567,1171.38
183,0.303233,1174.807
184,0.3049,1177.713
185,0.306567,1181.96
186,0.308233,1181.96
187,0.3099,1187.101
188,0.311567,1186.952
189,0.313233,1187.921
190,0.3149,1187.921
191,0.316567,1190.454
192,0.318233,1192.54
193,0.3199,1200.438
194,0.321567,1200.438
195,0.323233,1204.088
196,0.3249,1208.261
197,0.326567,1216.978
198,0.328233,1216.978
199,0.3299,1226.44
200,0.331567,1242.608
201,0.333233,1242.608
202,0.3349,1261.16
203,0.336567,1279.116
204,0.338233,1299.605
205,0.3399,1299.605
206,0.341567,1321.286
207,0.343217,1345.351
208,0.344883,1377.463
209,0.34655,1377.463
210,0.348217,1410.693
211,0.349883,1448.244
212,0.351567,1495.481
213,0.353217,1495.481
214,0.354883,1544.282
215,0.35655,1602.098
216,0.358217,1602.098
217,0.359883,1668.557
218,0.36155,1740.083
219,0.363217,1817.569
220,0.364883,1817.569
221,0.36655,1902.953
222,0.368217,1994.073
223,0.369883,2093.613
224,0.37155,2093.613
225,0.373217,2203.956
226,0.374883,2322.57
227,0.3766,2452.955
228,0.378217,2452.955
229,0.379883,2594.218
230,0.38155,2750.382
231,0.383217,2924.8
232,0.384883,2924.8
233,0.38655,3125.37
234,0.388217,3359.094
235,0.389883,3359.094
236,0.39155,3634.319
237,0.393217,3972.352
238,0.394883,4398.748
239,0.39655,4398.748
240,0.398217,4950.762
241,0.399883,5673.617
242,0.40155,6618.276
243,0.4032,6618.276
244,0.4049,7845.759
245,0.406533,9420.663
246,0.4082,11421.219
247,0.409967,11421.219
248,0.411533,13916.418
249,0.4132,16980.32
250,0.414867,16980.32
251,0.416533,20681.844
252,0.4182,25065.615
253,0.419867,30150.041
254,0.421533,30150.041
255,0.4232,35907.477
256,0.424867,42254.477
257,0.426533,49055.59
258,0.4282,49055.59
259,0.429867,56127.457
260,0.431533,63261.242
261,0.4332,70229.617
262,0.434867,70229.617
263,0.436533,76808.109
264,0.4382,82796.664
265,0.439867,82796.664
266,0.441533,88020.414
267,0.4432,92343.914
268,0.444867,95673.727
269,0.446533,95673.727
270,0.4482,97959.56299999999
271,0.449867,99189.508
272,0.451533,99397.45299999999
273,0.4532,99397.45299999999
274,0.454867,98652.17200000001
275,0.456533,97045.67200000001
276,0.4582,94687.56299999999
277,0.459867,94687.56299999999
278,0.461533,91704.57799999999
279,0.463183,88220.758
280,0.46485,84362.773
281,0.466517,84362.773
282,0.468183,80250.133
283,0.46985,75984.898
284,0.471517,75984.898
285,0.473183,71663.258
286,0.474867,67362.633
287,0.476517,63151.195
288,0.478183,63151.195
289,0.47985,59078.707
290,0.481517,55182.727
291,0.483183,51492.156
292,0.48485,51492.156
293,0.486517,48021.152
294,0.488183,44780.449
295,0.48985,41773.246
296,0.491517,41773.246
297,0.493183,38992.762
298,0.49485,36436.02
299,0.496517,36436.02
300,0.498183,34087.523
301,0.49985,31931.623
302,0.501517,29955.953
303,0.503183,29955.953
304,0.50485,28145.313
305,0.506517,26489.273
306,0.5081830000000001,24974.42
307,0.50985,24974.42
308,0.511567,23586.676
309,0.5131829999999999,22310.316
310,0.51485,21136.254
311,0.516517,21136.254
312,0.5181829999999999,20051.748
313,0.51985,19052.625
314,0.5215,18127.709
315,0.523183,18127.709
316,0.524833,17266.273
317,0.5265,16462.355
318,0.5283,15709.251
319,0.529833,15709.251
320,0.5315,15006.513
321,0.5331669999999999,14347.359
322,0.534833,14347.359
323,0.5365,13727.322
324,0.538167,13148.562
325,0.539833,12602.359
326,0.5415,12602.359
327,0.543167,12086.704
328,0.544833,11601.374
329,0.5465,11134.967
330,0.548183,11134.967
331,0.549833,10690.093
332,0.5515,10270.327
333,0.553167,10270.327
334,0.554833,9872.467000000001
335,0.5564829999999999,9495.393
336,0.55815,9136.722
337,0.559817,9136.722
338,0.561483,8791.014999999999
339,0.56315,8460.433000000001
340,0.564817,8145.124
341,0.566483,8145.124
342,0.56815,7846.877
343,0.569817,7560.924
344,0.571483,7286.593
345,0.57315,7286.593
346,0.574817,7022.992
347,0.576483,6770.864
348,0.5781500000000001,6770.864
349,0.579817,6532.52
350,0.581483,6305.203
351,0.583133,6086.081
352,0.5848,6086.081
353,0.586467,5875.304
354,0.588133,5672.648
355,0.5898,5481.392
356,0.591467,5481.392
357,0.593133,5298.332
358,0.5948,5121.827
359,0.596467,4956.201
360,0.598133,4956.201
361,0.5998,4795.044
362,0.601467,4646.331
363,0.603133,4504.1
364,0.6048,4504.1
365,0.606467,4364.401
366,0.608167,4230.738
367,0.6098,4230.738
368,0.611467,4101.992
369,0.613133,3982.112
370,0.6148,3866.628
371,0.616467,3866.628
372,0.618133,3755.167
373,0.6198,3647.879
374,0.621467,3546.327
375,0.623133,3546.327
376,0.6248,3451.258
377,0.626467,3362.373
378,0.6281330000000001,3276.095
379,0.629867,3276.095
380,0.631467,3190.339
381,0.6331329999999999,3109.351
382,0.6348,3109.351
383,0.636467,3032.014
384,0.638133,2961.233
385,0.6398,2892.614
386,0.641467,2892.614
387,0.643117,2825.856
388,0.644783,2762.526
389,0.646567,2699.42
390,0.6481170000000001,2699.42
391,0.649783,2641.156
392,0.65145,2584.308
393,0.6531169999999999,2531.111
394,0.654783,2531.111
395,0.65645,2479.628
396,0.658117,2427.548
397,0.659783,2382.696
398,0.66145,2382.696
399,0.663233,2337.024
400,0.664783,2296.045
401,0.66645,2296.045
402,0.668117,2260.581
403,0.669783,2218.783
404,0.67145,2181.679
405,0.673117,2181.679
406,0.674783,2144.575
407,0.67645,2108.365
408,0.678117,2079.531
409,0.679783,2079.531
410,0.68145,2050.251
411,0.683117,2021.939
412,0.684783,1992.658
413,0.686467,1992.658
414,0.688117,1965.91
415,0.689783,1936.704
416,0.69145,1936.704
417,0.693117,1911.67
418,0.694783,1889.393
419,0.69645,1864.806
420,0.698117,1864.806
421,0.699783,1843.423
422,0.701433,1820.177
423,0.7030999999999999,1797.229
424,0.704767,1797.229
425,0.706433,1775.473
426,0.7081,1756.4
427,0.709767,1738.295
428,0.711433,1738.295
429,0.7131,1719.743
430,0.714767,1701.564
431,0.716433,1685.098
432,0.7181,1685.098
433,0.719767,1667.887
434,0.721433,1654.55
435,0.7231,1654.55
436,0.7247670000000001,1642.257
437,0.726433,1630.858
438,0.7281,1619.756
439,0.7297670000000001,1619.756
440,0.731467,1606.42
441,0.7331,1596.585
442,0.7347669999999999,1583.397
443,0.736433,1583.397
444,0.7381,1571.849
445,0.739767,1562.163
446,0.741433,1546.964
447,0.7431,1546.964
448,0.744767,1537.725
449,0.746433,1528.636
450,0.748167,1519.024
451,0.749767,1519.024
452,0.751433,1513.883
453,0.7531330000000001,1502.857
454,0.754767,1502.857
455,0.756433,1494.288
456,0.7581,1485.273
457,0.759767,1474.246
458,0.761417,1474.246
459,0.763083,1466.498
460,0.764833,1458.004
461,0.766417,1448.169
462,0.768083,1448.169
463,0.76975,1439.452
464,0.771417,1434.535
465,0.773083,1428.574
466,0.77475,1428.574
467,0.776417,1425.818
468,0.778083,1420.23
469,0.779767,1420.23
470,0.781533,1413.152
471,0.783083,1405.105
472,0.7847499999999999,1397.58
473,0.786417,1397.58
474,0.788083,1396.388
475,0.78975,1392.067
476,0.791417,1387.373
477,0.793083,1387.373
478,0.79475,1382.008
479,0.796417,1373.962
480,0.798083,1368.746
481,0.79975,1368.746
482,0.801417,1368.374
483,0.803083,1364.499
484,0.80475,1364.499
485,0.8064170000000001,1359.88
486,0.808083,1354.963
487,0.80975,1346.394
488,0.8114170000000001,1346.394
489,0.813083,1341.999
490,0.81475,1339.316
491,0.8164169999999999,1333.505
492,0.818083,1333.505
493,0.81975,1330.227
494,0.8214,1327.991
495,0.823083,1325.384
496,0.824733,1325.384
497,0.826433,1322.18
498,0.828067,1316.294
499,0.8297330000000001,1316.294
500,0.8314,1312.941
501,0.833067,1308.322
502,0.8347329999999999,1304.671
503,0.8364,1304.671
504,0.838067,1304.15
505,0.839733,1300.35
506,0.8414,1298.413
507,0.843067,1298.413
508,0.844733,1299.307
509,0.8464,1298.264
510,0.84805,1296.252
511,0.8497169999999999,1296.252
512,0.851383,1294.613
513,0.85305,1290.292
514,0.8547169999999999,1288.131
515,0.856383,1288.131
516,0.85805,1285.598
517,0.859717,1283.958
518,0.861383,1283.958
519,0.86305,1281.127
520,0.864717,1277.7
521,0.8663999999999999,1279.339
522,0.86805,1279.339
523,0.869717,1277.402
524,0.871383,1277.924
525,0.87305,1274.72
526,0.874717,1274.72
527,0.876383,1268.908
528,0.87805,1265.481
529,0.879717,1263.097
530,0.881383,1263.097
531,0.883067,1265.332
532,0.8847,1263.544
533,0.886367,1263.544
534,0.888033,1264.587
535,0.8897,1262.203
536,0.891367,1260.638
537,0.893033,1260.638
538,0.8947000000000001,1259.819
539,0.896367,1257.509
540,0.898033,1258.552
541,0.8997000000000001,1258.552
542,0.901367,1255.497
543,0.903033,1252.89
544,0.9046999999999999,1248.419
545,0.906367,1248.419
546,0.908033,1246.482
547,0.9097,1245.737
548,0.911367,1246.408
549,0.913033,1246.408
550,0.9147,1248.047
551,0.916367,1245.588
552,0.918033,1245.588
553,0.9197,1244.62
554,0.921367,1244.023
555,0.923033,1243.427
556,0.9247,1243.427
557,0.9263670000000001,1242.831
558,0.928033,1240.82
559,0.9297,1241.863
560,0.9313669999999999,1241.863
561,0.933033,1240.149
562,0.9347,1241.043
563,0.9363669999999999,1241.043
564,0.938033,1241.043
565,0.9397,1236.349
566,0.941367,1234.636
567,0.943033,1234.636
568,0.9446830000000001,1232.475
569,0.94635,1230.985
570,0.948017,1231.208
571,0.9496830000000001,1231.208
572,0.95135,1231.059
573,0.953017,1230.761
574,0.9547,1229.048
575,0.95635,1229.048
576,0.958017,1226.962
577,0.959683,1225.62
578,0.96135,1225.099
579,0.963017,1225.099
580,0.964683,1225.844
581,0.966383,1225.546
582,0.968017,1225.248
583,0.969683,1225.248
584,0.97135,1224.503
585,0.973017,1225.77
586,0.974683,1225.77
587,0.9763500000000001,1229.271
588,0.978017,1228.899
589,0.979683,1225.919
590,0.9813499999999999,1225.919
591,0.983017,1223.683
592,0.9847,1221.672
593,0.9863499999999999,1221.001
594,0.988017,1221.001
595,0.989683,1221.448
596,0.99135,1221.448
597,0.993017,1216.084
598,0.994683,1216.084
599,0.99635,1214.519
600,0.998017,1213.849
601,0.999683,1213.849
602,1.001333,1211.166
603,1.003,1211.613
604,1.004667,1210.868
605,1.006333,1210.868
606,1.008,1213.7
607,1.009667,1215.264
608,1.011333,1213.551
609,1.013,1213.551
610,1.014667,1213.849
611,1.016333,1211.315
612,1.018117,1211.241
613,1.019667,1211.241
614,1.021333,1215.413
615,1.023,1215.413
