"ID","sea_time","fid_signal"
1,0,141.539
2,0.001667,141.166
3,0.003333,140.719
4,0.005,140.719
5,0.006667,140.689
6,0.008333,140.578
7,0.01,140.212
8,0.011667,140.212
9,0.013333,140.317
10,0.015,139.967
11,0.016667,140.019
12,0.018333,140.019
13,0.020017,140.361
14,0.021667,140.548
15,0.023333,140.548
16,0.025,140.741
17,0.026667,140.54
18,0.028333,140.54
19,0.030117,140.54
20,0.031667,140.518
21,0.033333,140.689
22,0.035,140.786
23,0.036667,140.786
24,0.038333,140.846
25,0.04,140.861
26,0.04165,140.868
27,0.043317,140.868
28,0.044967,140.838
29,0.046633,140.831
30,0.0483,140.831
31,0.049967,141.174
32,0.051633,141.293
33,0.0533,141.3
34,0.054967,141.3
35,0.056633,141.181
36,0.0583,140.674
37,0.059967,140.496
38,0.061633,140.496
39,0.0633,140.592
40,0.064967,140.764
41,0.066633,141.062
42,0.0683,141.062
43,0.069967,140.943
44,0.071633,141.002
45,0.0733,141.002
46,0.07496700000000001,141.121
47,0.07663300000000001,141.233
48,0.07829999999999999,141.263
49,0.079967,141.263
50,0.081633,141.099
51,0.0833,141.039
52,0.084967,141.032
53,0.086633,141.032
54,0.0883,141.263
55,0.08998299999999999,141.494
56,0.09163300000000001,141.509
57,0.09329999999999999,141.509
58,0.094967,141.405
59,0.096633,141.419
60,0.09835000000000001,141.308
61,0.099967,141.308
62,0.101617,141.345
63,0.103283,141.546
64,0.10495,141.546
65,0.106617,141.397
66,0.108283,141.516
67,0.10995,141.472
68,0.111617,141.472
69,0.113283,141.107
70,0.115,141.181
71,0.116617,141.263
72,0.118283,141.263
73,0.11995,141.33
74,0.121617,141.561
75,0.123283,141.501
76,0.12495,141.501
77,0.126617,141.054
78,0.128283,140.995
79,0.12995,140.995
80,0.131667,140.592
81,0.133283,140.645
82,0.13495,140.794
83,0.136617,140.794
84,0.138283,140.592
85,0.13995,141.025
86,0.141617,140.861
87,0.143283,140.861
88,0.14495,140.98
89,0.146617,141.174
90,0.148417,140.935
91,0.14995,140.935
92,0.151617,141.114
93,0.153283,141.203
94,0.15495,141.01
95,0.156617,141.01
96,0.158283,141.174
97,0.15995,141.256
98,0.1616,141.256
99,0.163267,141.136
100,0.164933,141.144
101,0.1666,141.077
102,0.168267,141.077
103,0.169933,140.972
104,0.1716,140.928
105,0.173267,140.965
106,0.174933,140.965
107,0.1766,140.95
108,0.178267,140.756
109,0.179933,140.719
110,0.1816,140.719
111,0.183283,140.801
112,0.184933,140.779
113,0.1866,140.779
114,0.188267,140.883
115,0.189933,140.682
116,0.1916,140.294
117,0.193267,140.294
118,0.19495,140.302
119,0.1966,140.361
120,0.198267,140.548
121,0.199933,140.548
122,0.2016,140.861
123,0.203267,141.01
124,0.204933,141.256
125,0.2066,141.256
126,0.208267,141.218
127,0.209933,141.256
128,0.211617,141.099
129,0.213267,141.099
130,0.214933,141.032
131,0.2166,141.166
132,0.218267,141.166
133,0.219933,141.166
134,0.221583,141.077
135,0.22325,140.853
136,0.224917,140.853
137,0.226583,140.51
138,0.22825,140.674
139,0.229917,140.436
140,0.231583,140.436
141,0.233283,140.257
142,0.234917,140.533
143,0.236583,140.496
144,0.23825,140.496
145,0.239917,140.823
146,0.241583,141.256
147,0.24325,141.256
148,0.244917,141.375
149,0.246583,141.39
150,0.24825,141.248
151,0.249933,141.248
152,0.251583,140.935
153,0.25325,140.771
154,0.254917,140.399
155,0.256583,140.399
156,0.25825,140.205
157,0.259917,140.19
158,0.261583,140.078
159,0.26325,140.078
160,0.264917,140.227
161,0.2667,140.376
162,0.26825,140.376
163,0.269917,140.376
164,0.2716,140.54
165,0.27325,140.764
166,0.274917,140.764
167,0.276583,141.181
168,0.27825,141.285
169,0.279917,141.449
170,0.281567,141.449
171,0.283233,141.576
172,0.2849,141.211
173,0.286567,141.025
174,0.288233,141.025
175,0.289917,141.062
176,0.291567,141.092
177,0.293233,141.33
178,0.2949,141.33
179,0.296567,141.598
180,0.298233,141.613
181,0.2999,141.613
182,0.301567,141.427
183,0.303233,141.643
184,0.3049,141.837
185,0.306567,141.837
186,0.308233,141.874
187,0.3099,142.142
188,0.311567,142.515
189,0.313233,142.515
190,0.3149,143.327
191,0.316567,144.482
192,0.318233,146.255
193,0.3199,146.255
194,0.321567,147.797
195,0.323233,149.429
196,0.3249,149.429
197,0.326567,152.148
198,0.328233,154.927
199,0.3299,158.906
200,0.331567,158.906
201,0.333233,163.794
202,0.3349,169.508
203,0.33655,176.087
204,0.338217,176.087
205,0.339867,183.761
206,0.341533,192.866
207,0.343217,202.961
208,0.3449,202.961
209,0.346533,215.054
210,0.3482,228.763
211,0.349867,244.148
212,0.351533,244.148
213,0.3532,261.441
214,0.354867,281.073
215,0.356533,281.073
216,0.3582,302.806
217,0.3599,327.17
218,0.361533,354.111
219,0.3632,354.111
220,0.364867,383.466
221,0.366533,415.876
222,0.3682,451.565
223,0.369883,451.565
224,0.371533,490.814
225,0.3732,533.38
226,0.374867,579.7670000000001
227,0.376533,579.7670000000001
228,0.3782,629.939
229,0.379867,683.822
230,0.381533,683.822
231,0.3832,742.301
232,0.384983,805.706
233,0.386533,873.394
234,0.3882,873.394
235,0.389867,946.328
236,0.391533,1024.678
237,0.3932,1108.535
238,0.394867,1108.535
239,0.396533,1198.858
240,0.3982,1295.79
241,0.399867,1399.688
242,0.401517,1399.688
243,0.403183,1510.955
244,0.40485,1630.299
245,0.406517,1630.299
246,0.408183,1758.188
247,0.40985,1894.876
248,0.411517,2040.796
249,0.413183,2040.796
250,0.41485,2196.349
251,0.416517,2361.387
252,0.418183,2535.686
253,0.41985,2535.686
254,0.421517,2719.216
255,0.423183,2911.285
256,0.42485,3111.363
257,0.426517,3111.363
258,0.428183,3318.846
259,0.429867,3532.738
260,0.431517,3751.278
261,0.433183,3751.278
262,0.43485,3973.417
263,0.436517,4197.337
264,0.438183,4197.337
265,0.43985,4420.25
266,0.441517,4640.333
267,0.443183,4855.812
268,0.44485,4855.812
269,0.446517,5064.212
270,0.448183,5263.574
271,0.44985,5452.439
272,0.451517,5452.439
273,0.453183,5627.938
274,0.45485,5788.751
275,0.456517,5933.538
276,0.458183,5933.538
277,0.45985,6060.958
278,0.4615,6170.422
279,0.463167,6170.422
280,0.464833,6261.177
281,0.4665,6333.299
282,0.468167,6387.331
283,0.469917,6387.331
284,0.4715,6423.175
285,0.473167,6441.667
286,0.474833,6443.247
287,0.4765,6443.247
288,0.478167,6428.458
289,0.479833,6397.903
290,0.4815,6352.387
291,0.483167,6352.387
292,0.484833,6293.043
293,0.4865,6220.594
294,0.488167,6136.514
295,0.489833,6136.514
296,0.4915,6042.19
297,0.493167,5938.381
298,0.494833,5938.381
299,0.4965,5826.123
300,0.498167,5707.033
301,0.499833,5581.856
302,0.5014999999999999,5581.856
303,0.503267,5452.044
304,0.504833,5318.843
305,0.5065,5182.862
306,0.5081830000000001,5182.862
307,0.50985,5044.572
308,0.5115,4904.792
309,0.513167,4764.222
310,0.514833,4764.222
311,0.5165,4623.354
312,0.518167,4483.499
313,0.519817,4483.499
314,0.521483,4344.91
315,0.52315,4207.38
316,0.524817,4071.921
317,0.526483,4071.921
318,0.52815,3937.833
319,0.529817,3806.032
320,0.531483,3676.869
321,0.53315,3676.869
322,0.534817,3550.299
323,0.536483,3427.081
324,0.53815,3306.948
325,0.539817,3306.948
326,0.541483,3190.152
327,0.54315,3076.389
328,0.544817,2965.979
329,0.5464830000000001,2965.979
330,0.54815,2858.795
331,0.549817,2754.979
332,0.5514829999999999,2754.979
333,0.55315,2654.538
334,0.554817,2557.546
335,0.5564829999999999,2463.862
336,0.55815,2463.862
337,0.559817,2373.621
338,0.561483,2286.717
339,0.56315,2202.913
340,0.564817,2202.913
341,0.566483,2122.499
342,0.56815,2044.976
343,0.569817,1970.388
344,0.571483,1970.388
345,0.57315,1898.81
346,0.574817,1830.109
347,0.5765,1830.109
348,0.578167,1763.843
349,0.5798,1700.193
350,0.581467,1639.135
351,0.583133,1639.135
352,0.5848,1580.372
353,0.586467,1524.068
354,0.588217,1470.506
355,0.5898,1470.506
356,0.591467,1419.067
357,0.593133,1369.476
358,0.5948,1322.471
359,0.596467,1322.471
360,0.59815,1276.948
361,0.5998,1233.406
362,0.601467,1191.981
363,0.603133,1191.981
364,0.6048,1152.016
365,0.606467,1113.974
366,0.608133,1113.974
367,0.6098,1077.086
368,0.611467,1041.844
369,0.613133,1008.056
370,0.6148,1008.056
371,0.616467,975.5119999999999
372,0.618133,944.585
373,0.6198,914.529
374,0.621583,914.529
375,0.623133,886.194
376,0.6248,858.836
377,0.626467,832.513
378,0.628117,832.513
379,0.629783,807.554
380,0.63145,783.354
381,0.633117,783.354
382,0.634783,760.451
383,0.63645,738.509
384,0.638117,717.64
385,0.639783,717.64
386,0.641433,696.972
387,0.6431,677.355
388,0.644767,658.6609999999999
389,0.646433,658.6609999999999
390,0.6481,640.437
391,0.649767,623.524
392,0.651433,607.193
393,0.6531,607.193
394,0.654767,591.405
395,0.656433,576.176
396,0.6581,576.176
397,0.659767,561.252
398,0.661433,546.783
399,0.6631,533.178
400,0.664767,533.178
401,0.6664330000000001,519.924
402,0.6681,507.429
403,0.669767,495.426
404,0.6714329999999999,495.426
405,0.6731,483.781
406,0.674767,472.792
407,0.676433,462.256
408,0.6781,462.256
409,0.679767,451.87
410,0.681433,441.67
411,0.6831,432.104
412,0.684767,432.104
413,0.686433,422.791
414,0.6881,413.917
415,0.689767,413.917
416,0.691433,405.617
417,0.6931,397.414
418,0.694767,389.263
419,0.696433,389.263
420,0.6981000000000001,381.708
421,0.699767,374.459
422,0.701417,367.299
423,0.703083,367.299
424,0.70475,360.854
425,0.706483,354.461
426,0.708083,348.009
427,0.70975,348.009
428,0.711417,341.758
429,0.713083,335.693
430,0.71475,335.693
431,0.716417,329.755
432,0.718083,324.324
433,0.71975,319.414
434,0.721417,319.414
435,0.7232,314.251
436,0.72475,309.497
437,0.726483,304.788
438,0.728083,304.788
439,0.72975,300.087
440,0.731417,295.676
441,0.733083,291.228
442,0.73475,291.228
443,0.736417,286.967
444,0.738083,282.921
445,0.7398670000000001,279.054
446,0.741417,279.054
447,0.743083,275.485
448,0.74475,271.797
449,0.746417,271.797
450,0.7480830000000001,268.385
451,0.74975,264.995
452,0.751417,261.776
453,0.7530829999999999,261.776
454,0.75475,258.774
455,0.756417,255.533
456,0.758083,252.664
457,0.75975,252.664
458,0.7614,249.55
459,0.7630670000000001,246.771
460,0.764733,244.394
461,0.7664,244.394
462,0.7680670000000001,241.92
463,0.769733,239.789
464,0.7714,239.789
465,0.773083,237.271
466,0.774733,234.462
467,0.7764,231.951
468,0.778067,231.951
469,0.779733,229.329
470,0.7814,227.101
471,0.783067,225.164
472,0.784733,225.164
473,0.7864,223.1
474,0.788067,221.215
475,0.789733,219.226
476,0.7914,219.226
477,0.793067,217.281
478,0.794733,215.545
479,0.79645,213.809
480,0.798067,213.809
481,0.799733,212.14
482,0.8014,210.501
483,0.803067,210.501
484,0.804733,208.668
485,0.8064,207.186
486,0.808067,205.77
487,0.809733,205.77
488,0.8114,204.593
489,0.813067,203.781
490,0.814733,202.388
491,0.8164,202.388
492,0.818067,201.248
493,0.819717,200.13
494,0.821383,198.491
495,0.8230499999999999,198.491
496,0.824767,197.321
497,0.826383,195.876
498,0.82805,195.876
499,0.829717,194.684
500,0.831383,193.417
501,0.83305,192.076
502,0.834717,192.076
503,0.836383,190.891
504,0.83805,189.267
505,0.839717,188.291
506,0.841383,188.291
507,0.84305,187.472
508,0.8447170000000001,186.525
509,0.846383,185.84
510,0.84805,185.84
511,0.8497169999999999,184.99
512,0.851383,184.327
513,0.85305,184.327
514,0.8547169999999999,183.865
515,0.856383,182.912
516,0.85815,182.055
517,0.859717,182.055
518,0.861383,180.975
519,0.86305,180.073
520,0.864717,179.41
521,0.866383,179.41
522,0.86805,178.806
523,0.869717,178.091
524,0.8714,177.167
525,0.87305,177.167
526,0.874817,176.594
527,0.876383,175.953
528,0.87805,175.513
529,0.879717,175.513
530,0.881367,175.036
531,0.883033,174.247
532,0.8847,174.247
533,0.886367,173.718
534,0.888033,173.055
535,0.8897,172.444
536,0.891367,172.444
537,0.893033,172.056
538,0.8947000000000001,171.304
539,0.896367,170.67
540,0.898033,170.67
541,0.8997000000000001,170.246
542,0.901367,169.888
543,0.903033,169.724
544,0.9046999999999999,169.724
545,0.906367,169.307
546,0.908033,168.651
547,0.9097,168.651
548,0.911367,167.884
549,0.913033,167.094
550,0.9147,166.528
551,0.916367,166.528
552,0.918017,166.118
553,0.919683,165.82
554,0.92135,165.671
555,0.923017,165.671
556,0.924683,165.418
557,0.92635,165.12
558,0.928017,164.546
559,0.929683,164.546
560,0.93135,163.928
561,0.933017,163.443
562,0.934683,163.019
563,0.93635,163.019
564,0.938033,162.87
565,0.939683,162.773
566,0.941333,162.773
567,0.9429999999999999,162.549
568,0.944667,162.169
569,0.946333,161.737
570,0.948017,161.737
571,0.949667,161.231
572,0.951333,160.836
573,0.953,160.918
574,0.954667,160.918
575,0.956333,160.642
576,0.958,160.359
577,0.959667,160.113
578,0.961333,160.113
579,0.963,159.36
580,0.9646670000000001,159.033
581,0.966333,159.033
582,0.968,158.705
583,0.9696669999999999,158.437
584,0.971333,158.347
585,0.973,158.347
586,0.974667,158.429
587,0.9764,158.213
588,0.978,158.027
589,0.979667,158.027
590,0.981333,157.893
591,0.983,157.438
592,0.984667,157.148
593,0.986333,157.148
594,0.988,157.021
595,0.989667,156.559
596,0.991333,156.365
597,0.993117,156.365
598,0.994667,156.119
599,0.996333,155.874
600,0.998,155.874
601,0.999667,155.903
602,1.001317,155.732
603,1.002983,155.777
604,1.00465,155.777
605,1.006317,155.546
606,1.007983,155.136
607,1.00965,154.793
608,1.011317,154.793
609,1.013,154.398
610,1.01465,154.078
611,1.016317,154.018
612,1.017983,154.018
613,1.01965,154.108
614,1.021317,153.899
615,1.022983,153.899
616,1.02465,153.825
617,1.026317,153.504
618,1.027983,153.027
619,1.02965,153.027
620,1.031317,152.96
621,1.032983,152.774
622,1.03465,152.789
623,1.036317,152.789
624,1.037983,152.759
625,1.03965,152.953
626,1.041317,152.834
627,1.042983,152.834
628,1.04465,152.811
629,1.046317,152.752
630,1.047983,152.752
631,1.04965,152.275
632,1.051317,151.962
633,1.052983,151.53
634,1.05465,151.53
635,1.056317,151.575
636,1.057983,151.388
637,1.05965,151.47
638,1.0613,151.47
639,1.062967,151.813
640,1.064633,151.649
641,1.0663,151.761
642,1.067967,151.761
643,1.069633,151.642
644,1.0713,150.934
645,1.072967,150.889
646,1.074633,150.889
647,1.0763,150.941
648,1.078033,150.897
649,1.079633,150.897
650,1.0813,151.001
651,1.082967,150.613
652,1.084633,150.055
653,1.0863,150.055
654,1.087967,149.637
655,1.089633,149.474
656,1.0913,149.451
657,1.092967,149.451
658,1.094667,149.6
659,1.0963,149.854
660,1.097967,150.122
661,1.099633,150.122
662,1.1013,150.189
663,1.102967,150.032
664,1.104633,150.032
665,1.1063,149.712
666,1.107967,149.466
667,1.109633,149.295
668,1.111417,149.295
669,1.112967,149.071
670,1.114633,149.131
671,1.1163,149.116
672,1.117967,149.116
673,1.119617,148.937
674,1.121283,148.997
675,1.12295,148.743
676,1.124617,148.743
677,1.126283,148.49
678,1.12795,148.095
679,1.129617,148.132
680,1.131283,148.132
681,1.13295,148.14
682,1.134617,148.177
683,1.136283,148.177
684,1.13795,148.423
685,1.139617,148.281
686,1.141283,148.125
687,1.14295,148.125
688,1.144617,148.14
689,1.146283,147.991
690,1.14795,148.013
691,1.149617,148.013
692,1.1513,148.147
693,1.15295,147.872
694,1.154617,148.028
695,1.156283,148.028
696,1.15795,148.118
697,1.159617,147.767
698,1.161283,147.767
699,1.16295,147.708
700,1.164617,147.529
701,1.166283,147.201
702,1.16795,147.201
703,1.169617,147.589
704,1.171283,147.574
705,1.17295,147.402
706,1.174617,147.402
707,1.176283,147.417
708,1.17795,147.127
709,1.1796,147.32
710,1.181267,147.32
711,1.182933,147.618
712,1.1846,147.685
713,1.186267,147.566
714,1.187933,147.566
715,1.1896,147.164
716,1.191267,146.739
717,1.192933,146.739
718,1.1946,146.404
719,1.196267,146.262
720,1.197933,146.396
721,1.1996,146.396
722,1.201267,146.382
723,1.202933,146.352
724,1.2046,146.262
725,1.206267,146.262
726,1.207933,146.046
727,1.209583,146.337
728,1.21125,146.411
729,1.212967,146.411
730,1.214583,146.694
731,1.21625,146.97
732,1.217917,146.97
733,1.219583,146.642
734,1.22125,146.724
735,1.222933,146.635
736,1.224583,146.635
737,1.22625,146.337
738,1.227917,146.404
739,1.229683,146.121
740,1.23125,146.121
741,1.232917,145.897
742,1.234583,145.89
743,1.23625,145.778
744,1.237917,145.778
745,1.239583,145.547
746,1.241233,145.487
747,1.2429,145.487
748,1.244567,145.331
749,1.246233,145.316
750,1.2479,145.681
751,1.249567,145.681
752,1.251233,145.651
753,1.2529,145.674
754,1.254567,145.48
755,1.256233,145.48
756,1.2579,145.48
757,1.259567,145.532
758,1.261233,145.637
759,1.2629,145.637
760,1.264567,145.897
761,1.266233,145.718
762,1.2679,145.599
763,1.269567,145.599
764,1.271233,145.353
765,1.2729,144.906
766,1.274583,144.906
767,1.276233,144.839
768,1.2779,144.817
769,1.279567,144.787
770,1.281233,144.787
771,1.2829,144.921
772,1.284567,144.832
773,1.286233,144.75
774,1.2879,144.75
775,1.289567,144.802
776,1.291233,144.713
777,1.292917,144.675
778,1.294567,144.675
779,1.296233,144.713
780,1.2979,144.713
781,1.299567,144.713
782,1.301217,144.951
783,1.302883,144.936
784,1.30455,144.944
785,1.306217,144.944
786,1.307883,144.906
787,1.30955,144.921
788,1.311217,144.973
789,1.312883,144.973
790,1.314617,144.809
791,1.316217,144.966
792,1.317883,144.944
793,1.31955,144.944
794,1.321217,144.884
795,1.322883,145.137
796,1.32455,145.003
797,1.326217,145.003
798,1.327883,144.914
799,1.32955,145.152
800,1.331217,145.152
801,1.332883,145.346
802,1.33455,145.286
803,1.336217,145.264
804,1.337883,145.264
805,1.33955,144.809
806,1.341217,144.668
807,1.342883,144.862
808,1.34455,144.862
809,1.346217,144.862
810,1.348,144.996
811,1.34955,144.75
812,1.351233,144.75
813,1.352883,144.601
814,1.35455,144.407
815,1.356217,144.407
816,1.357883,144.377
817,1.359533,144.325
818,1.3612,144.348
819,1.3629,144.348
820,1.364533,144.348
821,1.3662,144.474
822,1.367867,144.474
823,1.36955,144.474
824,1.37125,144.213
825,1.372867,144.228
826,1.374533,144.221
827,1.3762,144.221
828,1.377867,144.258
829,1.379533,144.526
830,1.3812,144.4
831,1.382867,144.4
832,1.384533,144.28
833,1.3862,144.161
834,1.387867,144.161
835,1.389533,144.027
836,1.3912,144.325
837,1.392867,144.489
838,1.394533,144.489
839,1.3962,144.519
840,1.397867,144.742
841,1.399533,144.728
842,1.4012,144.728
843,1.402867,144.392
844,1.40455,144.228
845,1.4062,143.893
846,1.407867,143.893
847,1.409533,143.588
848,1.4112,143.558
849,1.412867,143.558
850,1.414533,143.93
851,1.4162,143.856
852,1.417867,143.997
853,1.419533,143.997
854,1.4212,144.124
855,1.42285,143.826
856,1.424517,143.796
857,1.426183,143.796
858,1.42785,143.856
859,1.429517,143.923
860,1.431183,143.871
861,1.4329,143.871
862,1.434517,143.871
863,1.436183,143.625
864,1.437883,143.588
865,1.439517,143.588
866,1.441183,143.893
867,1.44285,143.923
868,1.444517,143.923
869,1.446183,144.02
870,1.44785,143.744
871,1.449517,143.506
872,1.451183,143.506
873,1.45285,143.416
874,1.454517,143.379
875,1.456183,143.453
876,1.45785,143.453
877,1.459517,143.327
878,1.461183,143.543
879,1.46285,143.409
880,1.464517,143.409
881,1.4663,143.409
882,1.46785,143.521
883,1.469517,143.521
884,1.471183,143.565
885,1.47285,143.804
886,1.474517,143.997
887,1.476183,143.997
888,1.47785,143.848
889,1.479517,143.662
890,1.481167,143.357
891,1.482833,143.357
892,1.4845,143.006
893,1.486167,143.126
894,1.487833,143.193
895,1.4895,143.193
896,1.491167,143.304
897,1.492833,143.364
898,1.4945,143.364
899,1.496167,143.304
900,1.497833,143.334
901,1.4995,143.282
902,1.50115,143.282
903,1.502817,143.461
904,1.504483,143.684
905,1.506167,143.439
906,1.507817,143.439
907,1.509483,143.394
908,1.51115,143.513
909,1.512817,143.565
910,1.514483,143.565
911,1.51615,143.781
912,1.517817,143.856
913,1.519483,143.662
914,1.52115,143.662
915,1.522817,143.61
916,1.524483,143.461
917,1.52615,143.461
918,1.527817,143.498
919,1.529483,143.23
920,1.53115,142.857
921,1.532817,142.857
922,1.534483,142.537
923,1.53615,142.276
924,1.537817,142.306
925,1.539483,142.306
926,1.541133,142.328
927,1.5428,142.559
928,1.544467,142.485
929,1.546133,142.485
930,1.5478,142.515
931,1.549467,142.641
932,1.551183,142.641
933,1.5528,142.664
934,1.554467,142.731
935,1.556133,142.559
936,1.5578,142.559
937,1.559467,142.269
938,1.561133,142.224
939,1.5628,142.179
940,1.564467,142.179
941,1.566133,142.395
942,1.5678,142.545
943,1.569467,142.656
944,1.571133,142.656
945,1.5728,142.53
946,1.574467,142.634
947,1.576167,142.433
948,1.5778,142.433
949,1.579483,142.127
950,1.581133,142.463
951,1.5828,142.463
952,1.584567,142.321
953,1.586133,142.418
954,1.5878,142.649
955,1.589467,142.649
956,1.591133,142.612
957,1.5928,142.641
958,1.594467,142.768
959,1.596133,142.768
960,1.5978,142.559
