"ID","sea_time","fid_signal"
1,0,1215.562
2,0.001667,1214.817
3,0.003333,1214.817
4,0.005,1216.978
5,0.006667,1219.511
6,0.008333,1216.68
7,0.01,1216.68
8,0.011667,1210.794
9,0.013417,1205.727
10,0.015,1205.727
11,0.016667,1202.747
12,0.018333,1202.971
13,0.02,1206.1
14,0.021667,1206.1
15,0.023333,1209.974
16,0.025,1211.986
17,0.026667,1215.041
18,0.028333,1215.041
19,0.029983,1219.362
20,0.031667,1219.362
21,0.033317,1219.958
22,0.034983,1219.958
23,0.03665,1219.287
24,0.038317,1218.095
25,0.039983,1218.095
26,0.04165,1217.797
27,0.043317,1215.264
28,0.044983,1214.817
29,0.046733,1214.817
30,0.048317,1215.413
31,0.049983,1212.806
32,0.05165,1215.786
33,0.053317,1215.786
34,0.054983,1219.064
35,0.05665,1220.778
36,0.058317,1225.099
37,0.059983,1225.099
38,0.06165,1223.683
39,0.063317,1222.491
40,0.064983,1220.703
41,0.06665,1220.703
42,0.068317,1218.766
43,0.069983,1219.884
44,0.07166699999999999,1219.884
45,0.07331699999999999,1219.66
46,0.07498299999999999,1221.97
47,0.07665,1222.715
48,0.078317,1222.715
49,0.079983,1225.844
50,0.08165,1223.981
51,0.083317,1221.076
52,0.084983,1221.076
53,0.08665,1223.46
54,0.08831700000000001,1223.311
55,0.08998299999999999,1223.981
56,0.09163300000000001,1223.981
57,0.09329999999999999,1223.832
58,0.094967,1223.311
59,0.096633,1223.311
60,0.0983,1221.523
61,0.099967,1222.491
62,0.101633,1223.609
63,0.1033,1223.609
64,0.104967,1222.119
65,0.106633,1221.448
66,0.1083,1221.374
67,0.109967,1221.374
68,0.111633,1219.586
69,0.1133,1218.766
70,0.114967,1218.915
71,0.116633,1218.915
72,0.1183,1220.703
73,0.119967,1224.056
74,0.121633,1227.707
75,0.1233,1227.707
76,0.124967,1228.675
77,0.126633,1227.558
78,0.1283,1227.558
79,0.129967,1227.781
80,0.1317,1225.173
81,0.1333,1223.385
82,0.134967,1223.385
83,0.136633,1225.397
84,0.1383,1222.044
85,0.139967,1223.236
86,0.141633,1223.236
87,0.143317,1227.185
88,0.144967,1226.142
89,0.146633,1227.26
90,0.1483,1227.26
91,0.149967,1225.323
92,0.151633,1221.225
93,0.153283,1221.225
94,0.15495,1221.225
95,0.156617,1220.182
96,0.158283,1219.66
97,0.15995,1219.66
98,0.161617,1220.107
99,0.163283,1217.127
100,0.165083,1219.586
101,0.166617,1219.586
102,0.168283,1218.915
103,0.16995,1219.139
104,0.171617,1220.182
105,0.173283,1220.182
106,0.17495,1218.915
107,0.176617,1218.095
108,0.1783,1217.648
109,0.17995,1217.648
110,0.181617,1217.35
111,0.183267,1217.723
112,0.184933,1217.723
113,0.1866,1216.531
114,0.188267,1215.488
115,0.189933,1215.115
116,0.1916,1215.115
117,0.193267,1214.221
118,0.194933,1215.637
119,0.1966,1214.37
120,0.198267,1214.37
121,0.199933,1214.147
122,0.2016,1214.072
123,0.203267,1215.115
124,0.204933,1215.115
125,0.2066,1217.276
126,0.208267,1215.562
127,0.209933,1215.562
128,0.2116,1214.966
129,0.21325,1218.766
130,0.21495,1220.554
131,0.216583,1220.554
132,0.21825,1221.225
133,0.219917,1220.703
134,0.221583,1218.617
135,0.22325,1218.617
136,0.224917,1217.723
137,0.226583,1219.734
138,0.22825,1220.405
139,0.229917,1220.405
140,0.231583,1219.586
141,0.23325,1219.362
142,0.234917,1219.362
143,0.236583,1221.225
144,0.23825,1221.523
145,0.239917,1220.405
146,0.241583,1220.405
147,0.24325,1218.095
148,0.244917,1217.052
149,0.246583,1218.617
150,0.24825,1218.617
151,0.249967,1222.268
152,0.251583,1223.162
153,0.253267,1223.609
154,0.254917,1223.609
155,0.256583,1224.13
156,0.25825,1222.491
157,0.259917,1222.119
158,0.261583,1222.119
159,0.26325,1219.586
160,0.264917,1217.574
161,0.266583,1217.574
162,0.26825,1218.393
163,0.269917,1222.715
164,0.271583,1224.056
165,0.273233,1224.056
166,0.2749,1221.448
167,0.276567,1220.182
168,0.278233,1217.499
169,0.2799,1217.499
170,0.281567,1217.35
171,0.283233,1220.256
172,0.2849,1218.99
173,0.286567,1218.99
174,0.288233,1218.766
175,0.289933,1217.499
176,0.291567,1217.499
177,0.293233,1217.648
178,0.2949,1218.393
179,0.296567,1215.488
180,0.298233,1215.488
181,0.2999,1214.445
182,0.301567,1212.88
183,0.303233,1212.433
184,0.3049,1212.433
185,0.306567,1218.692
186,0.308233,1221.672
187,0.3099,1225.173
188,0.311567,1225.173
189,0.313233,1226.664
190,0.3149,1226.291
191,0.316567,1226.813
192,0.318233,1226.813
193,0.3199,1224.428
194,0.321567,1223.907
195,0.323233,1223.907
196,0.3249,1219.139
197,0.326567,1217.872
198,0.328233,1216.382
199,0.3299,1216.382
200,0.331567,1213.625
201,0.333217,1213.998
202,0.334883,1209.527
203,0.33655,1209.527
204,0.338217,1209.527
205,0.3399,1211.166
206,0.34155,1213.327
207,0.343217,1213.327
208,0.344883,1220.48
209,0.34655,1222.193
210,0.348217,1222.193
211,0.349883,1222.566
212,0.35155,1225.471
213,0.353217,1228.228
214,0.354883,1228.228
215,0.35655,1230.016
216,0.35825,1232.251
217,0.359883,1232.177
218,0.36155,1232.177
219,0.363217,1230.389
220,0.364883,1233.742
221,0.36655,1239.777
222,0.368267,1239.777
223,0.369883,1241.714
224,0.37155,1244.396
225,0.373217,1249.76
226,0.374883,1249.76
227,0.37655,1253.933
228,0.378217,1262.575
229,0.379883,1262.575
230,0.38155,1269.206
231,0.383217,1270.398
232,0.384883,1274.72
233,0.38655,1274.72
234,0.388217,1279.935
235,0.389883,1286.566
236,0.391533,1297.072
237,0.3932,1297.072
238,0.394867,1301.542
239,0.396533,1307.13
240,0.3982,1313.388
241,0.399883,1313.388
242,0.4016,1318.604
243,0.4032,1326.65
244,0.404867,1326.65
245,0.406533,1333.654
246,0.4082,1342.967
247,0.409867,1349.971
248,0.411533,1349.971
249,0.4132,1355.037
250,0.414867,1358.166
251,0.416533,1358.539
252,0.4182,1358.539
253,0.419867,1362.562
254,0.421533,1365.766
255,0.4232,1368.597
256,0.424867,1368.597
257,0.426533,1372.173
258,0.4282,1372.099
259,0.4299,1369.268
260,0.431533,1369.268
261,0.4332,1367.703
262,0.434883,1366.213
263,0.436533,1366.213
264,0.4382,1362.86
265,0.439867,1362.786
266,0.441533,1361.445
267,0.4432,1361.445
268,0.444867,1356.825
269,0.446533,1352.355
270,0.4482,1349.226
271,0.449867,1349.226
272,0.451533,1342.893
273,0.453183,1336.858
274,0.45485,1335.07
275,0.456517,1335.07
276,0.458183,1329.78
277,0.45985,1324.043
278,0.461517,1324.043
279,0.463183,1318.082
280,0.46485,1308.769
281,0.466517,1300.946
282,0.468183,1300.946
283,0.46985,1296.848
284,0.471517,1293.495
285,0.473183,1291.856
286,0.474833,1291.856
287,0.4765,1291.26
288,0.478167,1289.099
289,0.479833,1284.853
290,0.4815,1284.853
291,0.483167,1277.402
292,0.484833,1272.634
293,0.486567,1268.387
294,0.488167,1268.387
295,0.489833,1265.779
296,0.4915,1265.705
297,0.493167,1265.705
298,0.494833,1264.736
299,0.4965,1262.873
300,0.498167,1261.607
301,0.499833,1261.607
302,0.5014999999999999,1259.372
303,0.50325,1252.89
304,0.504833,1251.101
305,0.5065,1251.101
306,0.508167,1246.631
307,0.509833,1246.408
308,0.5115,1246.184
309,0.51315,1246.184
310,0.514817,1242.608
311,0.516483,1246.855
312,0.51815,1246.855
313,0.5199,1244.321
314,0.521483,1244.023
315,0.52315,1243.278
316,0.524817,1243.278
317,0.526483,1241.267
318,0.52815,1240.447
319,0.529817,1240.075
320,0.531483,1240.075
321,0.53315,1241.416
322,0.534817,1238.286
323,0.536483,1236.796
324,0.53815,1236.796
325,0.539817,1234.338
326,0.541483,1233.816
327,0.54315,1233.816
328,0.544817,1234.114
329,0.5464830000000001,1232.028
330,0.54815,1234.934
331,0.549817,1234.934
332,0.5514829999999999,1231.208
333,0.55315,1230.687
334,0.554817,1236.796
335,0.5564829999999999,1236.796
336,0.55815,1235.306
337,0.559817,1240.224
338,0.561483,1242.98
339,0.56315,1242.98
340,0.564817,1240.447
341,0.566483,1242.906
342,0.56815,1244.247
343,0.569817,1244.247
344,0.571483,1243.353
345,0.573133,1243.502
346,0.574817,1243.502
347,0.576467,1248.941
348,0.578133,1249.537
349,0.5798,1250.953
350,0.581483,1250.953
351,0.583133,1252.145
352,0.5848,1251.4
353,0.586467,1251.176
354,0.588133,1251.176
355,0.5898,1250.729
356,0.591467,1254.231
357,0.593133,1253.411
358,0.5948,1253.411
359,0.596467,1253.039
360,0.598133,1254.678
361,0.5998,1254.678
362,0.601467,1255.348
363,0.603133,1256.615
364,0.6048,1256.689
365,0.606467,1256.689
366,0.608133,1256.466
367,0.6098,1251.921
368,0.611467,1247.302
369,0.613133,1247.302
370,0.6148,1248.792
371,0.616467,1247.302
372,0.618133,1247.153
373,0.6198,1247.153
374,0.621517,1247.004
375,0.623133,1242.757
376,0.6248,1242.757
377,0.626467,1244.247
378,0.6281330000000001,1246.929
379,0.6298,1246.706
380,0.63145,1246.706
381,0.633117,1247.823
382,0.634783,1248.643
383,0.63645,1251.772
384,0.638167,1251.772
385,0.639783,1254.678
386,0.64145,1257.36
387,0.643117,1259.67
388,0.644783,1259.67
389,0.64645,1261.383
390,0.6481170000000001,1266.226
391,0.649783,1274.496
392,0.65145,1274.496
393,0.6531169999999999,1280.457
394,0.6548,1289.547
395,0.6565,1289.547
396,0.658117,1303.032
397,0.659783,1316.89
398,0.66145,1333.877
399,0.663117,1333.877
400,0.664783,1353.696
401,0.66645,1377.612
402,0.668117,1405.999
403,0.669783,1405.999
404,0.67145,1445.264
405,0.673117,1488.328
406,0.674783,1536.682
407,0.67645,1536.682
408,0.678117,1587.644
409,0.679783,1641.959
410,0.68145,1641.959
411,0.683117,1702.681
412,0.684783,1766.533
413,0.68645,1842.082
414,0.688117,1842.082
415,0.689783,1925.975
416,0.69145,2014.86
417,0.6931,2109.408
418,0.694767,2109.408
419,0.696433,2208.948
420,0.6981000000000001,2314.225
421,0.699767,2425.834
422,0.701433,2425.834
423,0.7030999999999999,2547.055
424,0.704767,2676.025
425,0.706433,2809.912
426,0.7081,2809.912
427,0.709767,2945.512
428,0.711433,3083.423
429,0.7131,3083.423
430,0.714767,3222.376
431,0.716433,3362.223
432,0.7181,3511.906
433,0.719767,3511.906
434,0.721433,3664.121
435,0.7231,3818.199
436,0.7247670000000001,3975.332
437,0.726433,3975.332
438,0.7281,4131.049
439,0.7297670000000001,4288.778
440,0.731433,4445.761
441,0.7331,4445.761
442,0.7347669999999999,4604.161
443,0.736433,4759.803
444,0.7381,4759.803
445,0.739783,4914.105
446,0.741433,5067.289
447,0.7431,5213.991
448,0.744767,5213.991
449,0.746433,5365.685
450,0.7481,5513.206
451,0.749767,5660.802
452,0.751417,5660.802
453,0.7530829999999999,5804.673
454,0.75475,5940.497
455,0.756467,6077.438
456,0.758083,6077.438
457,0.75975,6208.122
458,0.761417,6338.283
459,0.763083,6465.018
460,0.76475,6465.018
461,0.7664,6585.792
462,0.7680670000000001,6704.331
463,0.769733,6704.331
464,0.7714,6814.897
465,0.7730669999999999,6922.037
466,0.774733,7021.353
467,0.7764,7021.353
468,0.778067,7114.857
469,0.779733,7205.605
470,0.7814,7291.883
471,0.783067,7291.883
472,0.784733,7374.138
473,0.7864,7449.239
474,0.788067,7519.647
475,0.789733,7519.647
476,0.7914,7584.393
477,0.793067,7637.218
478,0.794733,7637.218
479,0.7964,7684.529
480,0.798067,7725.134
481,0.799733,7755.756
482,0.801417,7755.756
483,0.803083,7787.719
484,0.804733,7814.393
485,0.8064,7835.18
486,0.808067,7835.18
487,0.809733,7852.763
488,0.8114,7861.853
489,0.8130500000000001,7863.715
490,0.814717,7863.715
491,0.816383,7856.488
492,0.8180500000000001,7840.171
493,0.819717,7840.171
494,0.821383,7818.938
495,0.8230499999999999,7794.5
496,0.824717,7771.403
497,0.826383,7771.403
498,0.82805,7745.698
499,0.829717,7711.649
500,0.831383,7677.302
501,0.83305,7677.302
502,0.834717,7636.174
503,0.836383,7589.012
504,0.83805,7542.968
505,0.839717,7542.968
506,0.841383,7489.249
507,0.84305,7432.774
508,0.8447170000000001,7374.287
509,0.846383,7374.287
510,0.84805,7314.98
511,0.8497169999999999,7255.822
512,0.851383,7255.822
513,0.85305,7196.143
514,0.8547169999999999,7135.645
515,0.856383,7073.208
516,0.85805,7073.208
517,0.859717,7011.071
518,0.861383,6945.431
519,0.86305,6882.101
520,0.864717,6882.101
521,0.866383,6816.834
522,0.86805,6751.493
523,0.869717,6687.566
524,0.871367,6687.566
525,0.8730329999999999,6621.704
526,0.8747,6559.938
527,0.876367,6559.938
528,0.878033,6493.777
529,0.8797,6428.733
530,0.881367,6364.957
531,0.883033,6364.957
532,0.8847,6301.105
533,0.886367,6242.32
534,0.888033,6183.386
535,0.8897,6183.386
536,0.891483,6123.781
537,0.893033,6061.792
538,0.8947000000000001,5998.165
539,0.896367,5998.165
540,0.898033,5939.23
541,0.8997000000000001,5881.414
542,0.901367,5826.503
543,0.903033,5826.503
544,0.9046999999999999,5771.369
545,0.906367,5716.309
546,0.908033,5716.309
547,0.9097,5663.484
548,0.911367,5612.15
549,0.913033,5559.474
550,0.9147,5559.474
551,0.916367,5506.649
552,0.918033,5458.146
553,0.9197,5407.631
554,0.921367,5407.631
555,0.923033,5363.748
556,0.9247,5317.107
557,0.9263670000000001,5266.219
558,0.928033,5266.219
559,0.9297,5217.12
560,0.93135,5169.585
561,0.933017,5169.585
562,0.934683,5128.16
563,0.93635,5087.182
564,0.938017,5049.109
565,0.939683,5049.109
566,0.94135,5009.1
567,0.9430500000000001,4967.675
568,0.944717,4925.355
569,0.94635,4925.355
570,0.948017,4886.016
571,0.9496830000000001,4844.368
572,0.95135,4804.134
573,0.953017,4804.134
574,0.9546829999999999,4770.16
575,0.95635,4730.448
576,0.958017,4696.697
577,0.959683,4696.697
578,0.96135,4660.04
579,0.963017,4623.905
580,0.964683,4623.905
581,0.96635,4590.601
582,0.968017,4554.167
583,0.969683,4522.502
584,0.97135,4522.502
585,0.973017,4487.038
586,0.974683,4452.914
587,0.9764,4423.335
588,0.978017,4423.335
589,0.979683,4392.117
590,0.9813499999999999,4362.836
591,0.983017,4336.164
592,0.984683,4336.164
593,0.9863499999999999,4307.702
594,0.988017,4275.888
595,0.989683,4275.888
596,0.99135,4249.141
597,0.993,4221.499
598,0.994667,4190.877
599,0.996333,4190.877
600,0.998,4165.172
601,0.999667,4136.264
602,1.001333,4109.293
603,1.003,4109.293
604,1.004667,4083.514
605,1.006333,4056.32
606,1.008,4032.329
607,1.00975,4032.329
608,1.011333,4005.879
609,1.013,3981.814
610,1.014667,3956.407
611,1.01635,3956.407
612,1.018033,3934.205
613,1.019667,3910.735
614,1.021333,3910.735
615,1.023,3886.819
616,1.024667,3866.255
617,1.026333,3839.88
618,1.028,3839.88
619,1.029667,3816.411
620,1.03135,3797.933
621,1.033,3777.817
622,1.034667,3777.817
623,1.036333,3758.445
624,1.038,3741.607
625,1.039667,3720.448
626,1.041333,3720.448
627,1.043,3700.256
628,1.044667,3680.289
629,1.046333,3680.289
630,1.048,3657.937
631,1.049667,3636.479
632,1.051333,3619.12
633,1.052983,3619.12
634,1.05465,3599.823
635,1.056317,3581.718
636,1.057967,3565.028
637,1.059633,3565.028
638,1.0613,3547.52
639,1.062967,3530.905
640,1.064633,3512.353
641,1.0663,3512.353
642,1.067967,3492.758
643,1.069633,3473.684
644,1.0713,3473.684
645,1.072967,3457.144
646,1.074633,3441.647
647,1.0763,3426.448
648,1.077967,3426.448
649,1.079667,3411.844
650,1.0813,3395.9
651,1.082967,3378.689
652,1.084633,3378.689
653,1.0863,3361.702
654,1.087967,3344.342
655,1.089633,3329.366
656,1.0913,3329.366
657,1.092967,3314.689
658,1.09465,3302.619
659,1.0963,3289.282
660,1.097967,3289.282
661,1.099633,3275.797
662,1.1013,3264.174
663,1.102967,3264.174
664,1.104633,3249.571
665,1.1063,3234.819
666,1.107967,3217.086
667,1.109633,3217.086
668,1.111283,3199.354
669,1.11295,3187.06
670,1.114617,3174.767
671,1.116283,3174.767
672,1.11795,3166.199
673,1.119617,3156.438
674,1.121283,3142.059
675,1.12295,3142.059
676,1.124617,3126.711
677,1.126283,3109.574
678,1.12805,3093.779
679,1.129617,3093.779
680,1.131283,3080.07
681,1.13295,3071.055
682,1.134617,3071.055
683,1.136283,3060.55
684,1.13795,3048.927
685,1.139617,3037.304
686,1.141283,3037.304
687,1.14295,3023.147
688,1.144617,3012.046
689,1.146283,3002.063
690,1.14795,3002.063
691,1.149617,2992.153
692,1.151283,2980.679
693,1.15295,2971.143
694,1.154617,2971.143
695,1.1563,2960.414
696,1.15795,2948.418
697,1.159667,2948.418
698,1.161283,2939.031
699,1.16295,2925.992
700,1.164617,2919.883
701,1.166283,2919.883
702,1.16795,2911.985
703,1.169617,2901.479
704,1.171283,2892.092
705,1.172933,2892.092
706,1.1746,2876.893
707,1.176267,2865.195
708,1.177933,2854.839
709,1.1796,2854.839
710,1.181267,2844.93
711,1.182933,2835.393
712,1.1846,2835.393
713,1.186267,2827.421
714,1.187933,2817.214
715,1.1896,2808.049
716,1.191267,2808.049
717,1.192933,2800.226
718,1.1946,2788.007
719,1.196267,2779.588
720,1.197933,2779.588
721,1.1996,2771.169
722,1.201267,2762.303
723,1.202933,2755.746
724,1.2046,2755.746
725,1.206283,2749.786
726,1.207933,2742.857
727,1.2096,2734.065
728,1.211267,2734.065
729,1.213,2724.156
730,1.2146,2716.631
731,1.216267,2716.631
732,1.217933,2706.87
733,1.2196,2701.357
734,1.221267,2695.471
735,1.222933,2695.471
736,1.2246,2684.593
737,1.2263,2675.95
738,1.227933,2667.829
739,1.2297,2667.829
740,1.231267,2659.783
741,1.232917,2652.481
742,1.234583,2645.031
743,1.23625,2645.031
744,1.237917,2634.6
745,1.239583,2626.032
746,1.24125,2626.032
747,1.242917,2617.836
748,1.244583,2612.397
749,1.246367,2605.542
750,1.247917,2605.542
751,1.249583,2602.413
752,1.25125,2597.57
753,1.252917,2590.567
754,1.254583,2590.567
755,1.25625,2585.5
756,1.257917,2574.697
757,1.259583,2564.341
758,1.26125,2564.341
759,1.262917,2554.953
760,1.264583,2545.044
761,1.26625,2545.044
762,1.267917,2537.444
763,1.269583,2531.707
764,1.27125,2526.194
765,1.272917,2526.194
766,1.274583,2519.339
767,1.27625,2516.285
768,1.277917,2512.261
769,1.279583,2512.261
770,1.28125,2509.654
771,1.282917,2506.748
772,1.284583,2497.36
773,1.28625,2497.36
774,1.287917,2488.941
775,1.289583,2476.275
776,1.29125,2467.856
777,1.2929,2467.856
778,1.294567,2463.758
779,1.296267,2460.554
780,1.2979,2460.554
781,1.299567,2456.009
782,1.301233,2449.9
783,1.3029,2443.492
784,1.304567,2443.492
785,1.306233,2434.924
786,1.3079,2430.528
787,1.309567,2427.995
788,1.311233,2427.995
789,1.312917,2423.078
790,1.314567,2420.917
791,1.316233,2416.968
792,1.3179,2416.968
793,1.319567,2409.965
794,1.321233,2405.197
795,1.3229,2405.197
796,1.324567,2397.224
797,1.326233,2389.625
798,1.3279,2381.802
799,1.329567,2381.802
800,1.331233,2374.053
801,1.3329,2368.465
802,1.334567,2366.528
803,1.336233,2366.528
804,1.3379,2363.399
805,1.339567,2358.481
806,1.341233,2352.968
807,1.3429,2352.968
808,1.344567,2343.208
809,1.346233,2338.886
810,1.347983,2335.236
811,1.34955,2335.236
812,1.351217,2333.149
813,1.352867,2331.361
814,1.354533,2331.361
815,1.3562,2323.538
816,1.357867,2315.566
817,1.359533,2309.233
818,1.3612,2309.233
819,1.362867,2306.327
820,1.3646,2302.453
821,1.3662,2298.43
822,1.3679,2298.43
823,1.369533,2293.363
824,1.3712,2283.976
825,1.372867,2282.932
826,1.374533,2282.932
827,1.3762,2281.815
828,1.377867,2277.27
829,1.379533,2277.27
830,1.381317,2273.545
831,1.382867,2267.286
832,1.384533,2259.687
833,1.3862,2259.687
834,1.387867,2254.695
835,1.389533,2250.969
836,1.3912,2247.244
837,1.392867,2247.244
838,1.394533,2243.295
839,1.3962,2240.24
840,1.397867,2236.739
841,1.39955,2236.739
842,1.4012,2230.555
843,1.402867,2227.5
844,1.404533,2227.5
845,1.4062,2223.7
846,1.407867,2219.751
847,1.409533,2217.218
848,1.411183,2217.218
849,1.41285,2212.673
850,1.414517,2206.638
851,1.416183,2201.498
852,1.41785,2201.498
853,1.419517,2198.443
854,1.421183,2194.196
855,1.42285,2194.122
856,1.424517,2194.122
857,1.426183,2190.992
858,1.42785,2186.969
859,1.429517,2186
860,1.431183,2186
861,1.43285,2177.879
862,1.43455,2173.856
863,1.436183,2173.856
864,1.43785,2170.28
865,1.439517,2165.958
866,1.441183,2164.17
867,1.44285,2164.17
868,1.444517,2157.986
869,1.446183,2150.312
870,1.44785,2145.022
871,1.449517,2145.022
872,1.451183,2139.732
873,1.45285,2139.509
874,1.454517,2138.093
875,1.456183,2138.093
876,1.45785,2135.709
877,1.459517,2135.113
878,1.461183,2135.113
879,1.46285,2129.823
880,1.464517,2128.929
881,1.466233,2123.341
882,1.46785,2123.341
883,1.469517,2117.678
884,1.471183,2117.977
885,1.472833,2113.73
886,1.4745,2113.73
887,1.476167,2110.004
888,1.477833,2105.832
889,1.4795,2099.872
890,1.481167,2099.872
891,1.4829,2097.711
892,1.4845,2095.029
893,1.486167,2092.198
894,1.487833,2092.198
895,1.4895,2087.653
896,1.491167,2082.139
897,1.492833,2082.139
898,1.4945,2077.743
899,1.496167,2076.849
900,1.497833,2074.912
901,1.499567,2074.912
902,1.501167,2072.826
903,1.502833,2074.54
904,1.5045,2071.857
905,1.506167,2071.857
906,1.507833,2069.175
907,1.5095,2063.587
908,1.511183,2056.509
909,1.512833,2056.509
910,1.5145,2051.815
911,1.516167,2049.208
912,1.517833,2049.208
913,1.5195,2048.463
914,1.521167,2048.239
915,1.522833,2044.514
916,1.5245,2044.514
917,1.526167,2040.64
918,1.527833,2036.244
919,1.5295,2029.613
920,1.531167,2029.613
921,1.532817,2026.483
922,1.534483,2022.684
