"ID","sea_time","fid_signal"
1,0,185.445
2,0.001667,185.497
3,0.003333,185.497
4,0.005,185.341
5,0.006667,183.836
6,0.008333,179.365
7,0.01,179.365
8,0.011667,174.53
9,0.013333,171.185
10,0.015,171.185
11,0.01665,170.469
12,0.018317,172.965
13,0.0201,176.378
14,0.02165,176.378
15,0.023317,178.456
16,0.024983,179.38
17,0.02665,180.081
18,0.028317,180.081
19,0.029983,180.565
20,0.03165,181.004
21,0.033317,181.615
22,0.034983,181.615
23,0.03665,182.346
24,0.038317,183.001
25,0.039983,183.001
26,0.04165,183.351
27,0.043317,183.143
28,0.044983,182.785
29,0.04665,182.785
30,0.048317,182.495
31,0.049983,182.42
32,0.05165,182.889
33,0.053317,182.889
34,0.054983,183.024
35,0.05665,183.471
36,0.058317,183.776
37,0.059983,183.776
38,0.06165,184.193
39,0.063317,184.409
40,0.064983,184.335
41,0.06665,184.335
42,0.068317,184.268
43,0.069983,184.208
44,0.07165000000000001,184.208
45,0.07331699999999999,184.596
46,0.07498299999999999,184.812
47,0.07663300000000001,184.983
48,0.078333,184.983
49,0.079967,184.886
50,0.081633,184.759
51,0.0833,184.372
52,0.084983,184.372
53,0.086633,184.454
54,0.0883,184.394
55,0.08996700000000001,184.178
56,0.09163300000000001,184.178
57,0.09329999999999999,184.692
58,0.094967,184.655
59,0.096633,184.655
60,0.0983,184.67
61,0.099967,184.856
62,0.101633,184.625
63,0.1033,184.625
64,0.104983,184.387
65,0.106633,184.365
66,0.1083,184.022
67,0.11,184.022
68,0.111633,183.955
69,0.1133,184.007
70,0.114967,184.238
71,0.116633,184.238
72,0.1183,184.529
73,0.119967,184.67
74,0.121683,184.961
75,0.1233,184.961
76,0.124967,185.02
77,0.126633,185.333
78,0.1283,185.333
79,0.129967,185.37
80,0.131633,185.43
81,0.1333,185.385
82,0.134967,185.385
83,0.136617,185.318
84,0.138383,185.132
85,0.13995,184.707
86,0.141617,184.707
87,0.143283,184.469
88,0.14495,184.245
89,0.146617,184.35
90,0.148283,184.35
91,0.14995,184.499
92,0.151617,184.819
93,0.153283,184.819
94,0.15495,184.834
95,0.156617,184.998
96,0.158283,185.318
97,0.15995,185.318
98,0.161617,184.99
99,0.163283,185.035
100,0.16495,184.916
101,0.166617,184.916
102,0.168283,184.618
103,0.169967,184.454
104,0.171617,184.402
105,0.173283,184.402
106,0.17495,184.067
107,0.176617,184.052
108,0.178283,184.052
109,0.17995,184.104
110,0.181617,184.029
111,0.183283,184.134
112,0.18495,184.134
113,0.186617,184.298
114,0.188283,184.476
115,0.18995,184.655
116,0.191617,184.655
117,0.193283,184.871
118,0.19495,185.058
119,0.1966,184.946
120,0.198283,184.946
121,0.199933,184.782
122,0.2016,184.283
123,0.203267,183.62
124,0.204933,183.62
125,0.2066,183.657
126,0.208267,183.694
127,0.209933,183.694
128,0.2116,184.26
129,0.213267,184.543
130,0.214933,184.663
131,0.2166,184.663
132,0.21825,184.67
133,0.219917,184.037
134,0.221583,183.985
135,0.22325,183.985
136,0.224917,183.821
137,0.226583,183.463
138,0.22825,183.515
139,0.229917,183.515
140,0.231583,183.307
141,0.23325,183.344
142,0.234917,183.344
143,0.236583,183.262
144,0.23825,183.322
145,0.239967,183.344
146,0.241583,183.344
147,0.24325,183.009
148,0.244917,183.076
149,0.246583,183.143
150,0.24825,183.143
151,0.249933,183.277
152,0.251583,183.314
153,0.25325,183.336
154,0.2549,183.336
155,0.256683,183.351
156,0.258233,183.18
157,0.259917,183.523
158,0.261567,183.523
159,0.263233,183.739
160,0.2649,183.895
161,0.266567,183.895
162,0.268233,183.932
163,0.2699,183.746
164,0.271567,183.679
165,0.27335,183.679
166,0.2749,183.575
167,0.276567,183.478
168,0.278233,183.232
169,0.2799,183.232
170,0.281567,182.845
171,0.283233,182.949
172,0.2849,183.061
173,0.286567,183.061
174,0.288233,183.269
175,0.2899,183.292
176,0.291567,183.292
177,0.293233,182.994
178,0.2949,183.187
179,0.296567,183.217
180,0.298233,183.217
181,0.2999,183.448
182,0.301567,183.426
183,0.303233,183.016
184,0.3049,183.016
185,0.306567,182.778
186,0.308233,182.562
187,0.3099,182.591
188,0.311567,182.591
189,0.313233,182.696
190,0.3149,182.852
191,0.31655,182.852
192,0.318217,183.031
193,0.319883,183.195
194,0.321583,183.232
195,0.323217,183.232
196,0.324917,183.351
197,0.32655,183.679
198,0.328217,183.851
199,0.329883,183.851
200,0.33155,183.895
201,0.333217,183.94
202,0.334883,183.873
203,0.33655,183.873
204,0.338217,183.709
205,0.339883,183.918
206,0.34155,184.283
207,0.343217,184.283
208,0.344883,184.73
209,0.34655,185.274
210,0.348217,185.274
211,0.349883,185.914
212,0.35155,186.287
213,0.353217,186.689
214,0.354883,186.689
215,0.35655,187.144
216,0.358267,187.933
217,0.359883,189.424
218,0.36155,189.424
219,0.363217,191.085
220,0.364883,193.067
221,0.36655,195.205
222,0.368217,195.205
223,0.369883,197.336
224,0.37155,199.981
225,0.373217,199.981
226,0.374917,203.185
227,0.376533,206.597
228,0.3782,210.643
229,0.379867,210.643
230,0.381533,214.986
231,0.3832,219.71
232,0.384867,224.717
233,0.386533,224.717
234,0.3882,229.992
235,0.389867,235.245
236,0.39165,240.766
237,0.3932,240.766
238,0.394867,246.465
239,0.396533,251.919
240,0.3982,257.85
241,0.399867,257.85
242,0.401533,263.564
243,0.4032,269.175
244,0.404867,269.175
245,0.406533,274.487
246,0.4082,279.382
247,0.409867,283.919
248,0.411533,283.919
249,0.4132,288.278
250,0.414867,292.271
251,0.416533,295.691
252,0.4182,295.691
253,0.419867,298.373
254,0.421533,300.4
255,0.4232,301.92
256,0.424867,301.92
257,0.426533,302.799
258,0.4282,302.963
259,0.429867,302.963
260,0.431533,302.62
261,0.4332,301.428
262,0.434867,299.7
263,0.436517,299.7
264,0.438183,297.837
265,0.43985,295.579
266,0.441517,292.905
267,0.443183,292.905
268,0.44485,290.006
269,0.446517,286.46
270,0.448183,282.511
271,0.44985,282.511
272,0.451517,278.659
273,0.453183,274.576
274,0.45485,270.687
275,0.456517,270.687
276,0.458183,266.463
277,0.45985,262.126
278,0.461517,262.126
279,0.463183,258.021
280,0.46485,253.804
281,0.466533,249.729
282,0.468183,249.729
283,0.46985,245.862
284,0.471517,241.831
285,0.473183,238.128
286,0.47485,238.128
287,0.476533,234.634
288,0.478183,231.288
289,0.47985,227.965
290,0.481517,227.965
291,0.483183,224.739
292,0.48485,221.938
293,0.486517,221.938
294,0.488183,218.958
295,0.48985,216.29
296,0.491517,214.003
297,0.493183,214.003
298,0.494833,211.805
299,0.4965,209.6
300,0.498167,207.685
301,0.499833,207.685
302,0.5014999999999999,205.681
303,0.503167,203.654
304,0.504833,202.484
305,0.5065,202.484
306,0.50815,201.091
307,0.509883,199.869
308,0.511483,199.869
309,0.51315,198.908
310,0.514817,197.709
311,0.516483,196.896
312,0.51815,196.896
313,0.519817,196.435
314,0.521483,195.809
315,0.52315,195.369
316,0.524817,195.369
317,0.526483,194.87
318,0.52815,194.065
319,0.529817,193.506
320,0.531483,193.506
321,0.53315,193.007
322,0.534817,193.03
323,0.536483,192.94
324,0.53815,192.94
325,0.539817,192.948
326,0.541483,192.858
327,0.54315,192.858
328,0.544817,192.136
329,0.5464830000000001,191.897
330,0.54815,191.472
331,0.549817,191.472
332,0.5514829999999999,191.309
333,0.55315,191.338
334,0.554817,190.988
335,0.556467,190.988
336,0.558133,191.078
337,0.5598,191.152
338,0.561467,191.376
339,0.563133,191.376
340,0.5648,191.748
341,0.5664670000000001,191.689
342,0.568133,191.689
343,0.5698,191.517
344,0.5714669999999999,191.145
345,0.573133,190.891
346,0.5748,190.891
347,0.576467,190.571
348,0.578133,190.206
349,0.5798,190.258
350,0.581467,190.258
351,0.583133,190.265
352,0.5848,190.414
353,0.586467,190.541
354,0.588133,190.541
355,0.5898,190.616
356,0.591467,190.802
357,0.593133,190.832
358,0.5948,190.832
359,0.596467,190.996
360,0.598133,190.891
361,0.5998,190.891
362,0.601467,190.705
363,0.603133,190.899
364,0.6048,190.914
365,0.606467,190.914
366,0.608133,191.234
367,0.6098,191.785
368,0.611533,192.352
369,0.613133,192.352
370,0.6148,193.246
371,0.6164500000000001,193.946
372,0.61815,194.609
373,0.619783,194.609
374,0.6214499999999999,195.391
375,0.623117,196.099
376,0.624783,196.099
377,0.62645,196.762
378,0.628117,197.619
379,0.629783,197.999
380,0.63145,197.999
381,0.633117,198.253
382,0.634783,198.528
383,0.63645,198.402
384,0.638117,198.402
385,0.639783,198.759
386,0.64145,199.288
387,0.643117,200.115
388,0.644783,200.115
389,0.64645,200.696
390,0.6481170000000001,201.248
391,0.649783,201.918
392,0.65145,201.918
393,0.6531169999999999,202.44
394,0.654783,202.999
395,0.65645,202.999
396,0.658117,203.49
397,0.659783,203.297
398,0.66145,202.946
399,0.663117,202.946
400,0.664783,202.894
401,0.66645,202.604
402,0.668117,202.678
403,0.669783,202.678
404,0.67145,203.013
405,0.673117,203.55
406,0.674783,204.541
407,0.676433,204.541
408,0.678117,205.636
409,0.679767,206.903
410,0.681433,206.903
411,0.6831,207.797
412,0.684767,208.84
413,0.68645,210.531
414,0.6881,210.531
415,0.689767,212.289
416,0.691433,214.569
417,0.6931,217.065
418,0.694767,217.065
419,0.696433,219.688
420,0.6981000000000001,222.839
421,0.699767,226.766
422,0.701433,226.766
423,0.7030999999999999,231.512
424,0.704767,236.928
425,0.706433,242.867
426,0.7081,242.867
427,0.709767,249.632
428,0.711433,256.918
429,0.713167,256.918
430,0.714767,265.189
431,0.71645,274.956
432,0.7181,286.102
433,0.719767,286.102
434,0.721433,298.381
435,0.7231,312.224
436,0.7247670000000001,327.423
437,0.726433,327.423
438,0.7281,344.485
439,0.7297670000000001,363.439
440,0.731433,384.092
441,0.7331,384.092
442,0.73475,406.832
443,0.736417,431.329
444,0.738083,431.329
445,0.73975,458.27
446,0.741417,487.618
447,0.743083,519.343
448,0.74475,519.343
449,0.746417,553.414
450,0.7480830000000001,589.788
451,0.74975,628.538
452,0.751417,628.538
453,0.7530829999999999,669.599
454,0.75475,712.715
455,0.756417,757.828
456,0.758083,757.828
457,0.75975,805.162
458,0.761417,854.261
459,0.7631,905.298
460,0.76475,905.298
461,0.766417,958.003
462,0.768083,1012.079
463,0.76975,1012.079
464,0.771417,1067.579
465,0.773083,1124.516
466,0.77475,1182.511
467,0.776417,1182.511
468,0.778083,1241.662
469,0.7797500000000001,1301.333
470,0.781417,1360.953
471,0.7831,1360.953
472,0.7847499999999999,1421.422
473,0.786417,1481.503
474,0.788083,1541.704
475,0.78975,1541.704
476,0.791417,1601.711
477,0.793083,1660.63
478,0.794733,1660.63
479,0.7964,1719.125
480,0.798067,1776.725
481,0.799717,1833.111
482,0.801383,1833.111
483,0.80305,1888.596
484,0.804717,1942.687
485,0.806383,1994.818
486,0.80805,1994.818
487,0.809717,2045.661
488,0.811383,2094.768
489,0.8130500000000001,2141.61
490,0.814717,2141.61
491,0.816383,2186.939
492,0.8180500000000001,2230.577
493,0.819717,2230.577
494,0.821383,2272.084
495,0.8230499999999999,2311.781
496,0.824717,2349.645
497,0.8264,2349.645
498,0.82805,2385.363
499,0.829717,2419.025
500,0.831433,2450.727
501,0.83305,2450.727
502,0.834717,2479.896
503,0.836383,2506.778
504,0.83805,2531.677
505,0.839717,2531.677
506,0.841383,2554.64
507,0.84305,2575.941
508,0.8447170000000001,2595.305
509,0.846383,2595.305
510,0.848117,2612.919
511,0.8497169999999999,2628.736
512,0.851383,2628.736
513,0.85305,2642.579
514,0.8547,2654.843
515,0.856367,2665.08
516,0.858033,2665.08
517,0.8597,2673.984
518,0.861367,2681.464
519,0.8630330000000001,2687.782
520,0.864783,2687.782
521,0.866367,2693.102
522,0.8680330000000001,2696.849
523,0.8697,2699.636
524,0.871367,2699.636
525,0.8730329999999999,2701.193
526,0.8747,2701.812
527,0.876367,2701.812
528,0.878033,2701.663
529,0.8797,2700.321
530,0.881367,2698.176
531,0.883033,2698.176
532,0.8847,2695.091
533,0.886367,2691.15
534,0.888033,2687.313
535,0.8897,2687.313
536,0.891383,2682.448
537,0.893033,2677.076
538,0.8947000000000001,2671.406
539,0.896367,2671.406
540,0.898033,2665.088
541,0.8997000000000001,2658.546
542,0.901383,2651.46
543,0.903033,2651.46
544,0.9046999999999999,2643.764
545,0.906367,2635.531
546,0.908033,2635.531
547,0.9097,2627.104
548,0.911367,2618.633
549,0.913033,2609.67
550,0.914683,2609.67
551,0.91635,2600.61
552,0.918017,2591.386
553,0.919683,2582.029
554,0.92135,2582.029
555,0.923017,2572.656
556,0.924683,2562.918
557,0.92635,2552.867
558,0.928017,2552.867
559,0.929683,2542.652
560,0.93135,2532.802
561,0.933017,2532.802
562,0.934683,2523.057
563,0.93635,2513.208
564,0.938017,2502.784
565,0.939683,2502.784
566,0.94135,2492.003
567,0.943017,2481.17
568,0.9446830000000001,2470.404
569,0.94635,2470.404
570,0.948017,2460.383
571,0.94975,2450.004
572,0.95135,2439.343
573,0.953017,2439.343
574,0.9546829999999999,2428.487
575,0.95635,2417.319
576,0.958017,2417.319
577,0.959683,2406.515
578,0.96135,2395.771
579,0.963017,2385.117
580,0.964683,2385.117
581,0.96635,2374.634
582,0.968017,2363.704
583,0.969683,2353.057
584,0.97135,2353.057
585,0.973,2342.15
586,0.974667,2330.862
587,0.976333,2320.304
588,0.978,2320.304
589,0.979667,2309.375
590,0.981333,2298.765
591,0.983117,2288.155
592,0.984667,2288.155
593,0.986333,2277.24
594,0.988,2266.541
595,0.989667,2266.541
596,0.991333,2255.857
597,0.993,2244.838
598,0.994667,2233.684
599,0.996333,2233.684
600,0.998,2222.672
601,0.999667,2211.615
602,1.001333,2201.103
603,1.003,2201.103
604,1.004667,2190.709
605,1.006333,2180.323
606,1.008,2170.026
607,1.009667,2170.026
608,1.011333,2159.491
609,1.013,2148.837
610,1.014667,2148.837
611,1.016333,2138.13
612,1.018,2127.267
613,1.019667,2116.621
614,1.021333,2116.621
615,1.023,2106.51
616,1.024667,2096.355
617,1.026333,2086.267
618,1.028,2086.267
619,1.029667,2076.7
620,1.031333,2066.784
621,1.033,2057.009
622,1.03465,2057.009
623,1.036317,2047.062
624,1.037983,2036.996
625,1.039683,2027.102
626,1.041317,2027.102
627,1.04305,2016.962
628,1.04465,2007.76
629,1.046317,2007.76
630,1.047983,1998.179
631,1.04965,1988.716
632,1.051317,1979.209
633,1.052983,1979.209
634,1.05465,1969.352
635,1.056317,1959.92
636,1.057983,1950.249
637,1.05965,1950.249
638,1.061317,1940.861
639,1.062983,1931.57
640,1.06465,1922.093
641,1.066317,1922.093
642,1.067983,1912.765
643,1.06965,1903.728
644,1.071317,1903.728
645,1.072983,1894.869
646,1.07465,1886.167
647,1.076317,1877.494
648,1.077983,1877.494
649,1.07965,1868.561
650,1.081317,1859.65
651,1.082983,1850.739
652,1.084683,1850.739
653,1.086317,1841.709
654,1.087983,1833.312
655,1.08965,1824.729
656,1.0913,1824.729
657,1.092967,1816.414
658,1.094617,1808.435
659,1.096283,1808.435
660,1.09795,1800.306
661,1.099617,1791.984
662,1.101367,1783.513
663,1.10295,1783.513
664,1.104617,1775.265
665,1.106283,1766.831
666,1.10795,1758.575
667,1.109617,1758.575
668,1.111283,1750.566
669,1.11295,1742.572
670,1.114617,1734.354
671,1.116317,1734.354
672,1.118083,1726.724
673,1.119617,1718.722
674,1.121283,1710.646
675,1.12295,1710.646
676,1.124617,1703.203
677,1.126283,1695.193
678,1.12795,1695.193
679,1.129617,1687.758
680,1.131283,1680.396
681,1.13295,1672.685
682,1.134617,1672.685
683,1.136283,1665.562
684,1.13795,1658.186
685,1.139617,1650.788
686,1.141283,1650.788
687,1.14295,1643.688
688,1.144617,1636.356
689,1.146283,1629.144
690,1.14795,1629.144
691,1.149617,1622.118
692,1.151283,1614.861
693,1.15295,1614.861
694,1.1546,1607.858
695,1.156267,1600.943
696,1.157933,1594.044
697,1.1596,1594.044
698,1.161267,1587.1
699,1.162933,1580.328
700,1.1646,1573.771
701,1.166267,1573.771
702,1.167933,1567.014
703,1.1696,1560.554
704,1.171267,1554.146
705,1.172933,1554.146
706,1.1746,1547.575
707,1.176267,1541.19
708,1.17795,1534.529
709,1.1796,1534.529
710,1.181267,1527.734
711,1.182933,1521.245
712,1.1846,1521.245
713,1.186267,1514.912
714,1.18795,1508.944
715,1.1896,1502.715
716,1.191267,1502.715
717,1.192933,1496.397
718,1.1946,1490.183
719,1.196267,1483.82
720,1.197933,1483.82
721,1.1996,1477.681
722,1.201267,1471.37
723,1.203,1464.956
724,1.2046,1464.956
725,1.206267,1458.831
726,1.207933,1453.087
727,1.2096,1453.087
728,1.211267,1447.476
729,1.212933,1441.866
730,1.2146,1436.435
731,1.21625,1436.435
732,1.217917,1430.765
733,1.21965,1424.968
734,1.22125,1419.127
735,1.222917,1419.127
736,1.224583,1413.271
737,1.22625,1407.616
738,1.227917,1402.155
739,1.229583,1402.155
740,1.23125,1397.118
741,1.232917,1391.672
742,1.234583,1386.501
743,1.236383,1386.501
744,1.237917,1381.286
745,1.239583,1376.16
746,1.24125,1376.16
747,1.242917,1370.899
748,1.244583,1365.699
749,1.24625,1360.431
750,1.247917,1360.431
751,1.249583,1355.052
752,1.25125,1350.157
753,1.252917,1345.21
754,1.254617,1345.21
755,1.25625,1340.091
756,1.257917,1334.786
757,1.259583,1329.936
758,1.26125,1329.936
759,1.262917,1324.713
760,1.264583,1319.87
761,1.26625,1319.87
762,1.267917,1314.968
763,1.269583,1309.581
764,1.27125,1304.664
765,1.2729,1304.664
766,1.274567,1299.798
767,1.276233,1295.075
768,1.277933,1290.634
769,1.279567,1290.634
770,1.281233,1286.089
771,1.2829,1281.619
772,1.284567,1277.089
773,1.286233,1277.089
774,1.2879,1272.432
775,1.289567,1267.619
776,1.291233,1263.015
777,1.2929,1263.015
778,1.294583,1258.366
779,1.296233,1254.03
780,1.2979,1254.03
781,1.299567,1249.448
782,1.301233,1244.634
783,1.3029,1240.164
784,1.304567,1240.164
785,1.306233,1235.582
786,1.3079,1231.573
787,1.309567,1227.409
788,1.311233,1227.409
789,1.3129,1223.199
790,1.314567,1218.848
791,1.316233,1214.542
792,1.3179,1214.542
793,1.319567,1210.511
794,1.3213,1206.368
795,1.3229,1206.368
796,1.324583,1202.352
797,1.326233,1198.24
798,1.3279,1194.12
799,1.329567,1194.12
800,1.331233,1190.312
801,1.3329,1186.334
802,1.33455,1182.176
803,1.336217,1182.176
804,1.337933,1178.369
805,1.33955,1174.346
806,1.341217,1170.628
807,1.342883,1170.628
808,1.34455,1166.813
809,1.346217,1162.782
810,1.347883,1162.782
811,1.34955,1159.139
812,1.351217,1155.213
813,1.352883,1151.666
814,1.354683,1151.666
815,1.356217,1148.142
816,1.357883,1144.253
817,1.35955,1140.617
818,1.361217,1140.617
819,1.362883,1136.81
820,1.36455,1133.129
821,1.366217,1129.694
822,1.367883,1129.694
823,1.36955,1126.327
824,1.371217,1122.609
825,1.372883,1118.846
826,1.37455,1118.846
827,1.376217,1115.084
828,1.377883,1111.15
829,1.37955,1111.15
830,1.381217,1107.611
831,1.382867,1103.997
832,1.384533,1100.54
833,1.3862,1100.54
834,1.387867,1097.18
835,1.389533,1093.797
836,1.3912,1090.333
837,1.392867,1090.333
838,1.394517,1086.98
839,1.396183,1083.657
840,1.397883,1080.275
841,1.399517,1080.275
842,1.401183,1077.019
843,1.40285,1073.457
844,1.404517,1073.457
845,1.406183,1070.268
846,1.40785,1067.169
847,1.409517,1063.958
848,1.411183,1063.958
849,1.41285,1060.56
850,1.414517,1057.081
851,1.416183,1053.713
852,1.41785,1053.713
853,1.419517,1050.815
854,1.421183,1047.939
855,1.42285,1045.22
856,1.424517,1045.22
857,1.426183,1042.485
858,1.42785,1039.177
859,1.429517,1035.906
860,1.431183,1035.906
861,1.43285,1032.457
862,1.434517,1029.298
863,1.436183,1029.298
864,1.43785,1026.698
865,1.439583,1024.142
866,1.441183,1021.653
867,1.44285,1021.653
868,1.444517,1019.016
869,1.446183,1016.08
870,1.44785,1013.115
871,1.449517,1013.115
872,1.451183,1009.859
873,1.45285,1006.38
874,1.4545,1003.161
875,1.456167,1003.161
876,1.457833,1000.278
877,1.4595,997.6849999999999
878,1.461167,997.6849999999999
879,1.462833,995.092
880,1.4645,992.537
881,1.466167,989.825
882,1.467833,989.825
883,1.469517,986.829
884,1.471167,984.095
885,1.472967,981.212
886,1.4745,981.212
887,1.476167,978.425
888,1.477833,975.899
889,1.4795,973.2619999999999
890,1.481167,973.2619999999999
891,1.482833,970.587
892,1.4845,967.972
893,1.486167,965.446
894,1.487833,965.446
895,1.4895,962.928
896,1.491167,960.2380000000001
897,1.492833,960.2380000000001
898,1.4945,957.623
899,1.496167,954.866
900,1.497833,952.303
901,1.4995,952.303
902,1.501167,949.703
903,1.502833,947.066
904,1.5045,944.48
905,1.506167,944.48
906,1.507833,941.999
907,1.5095,939.704
908,1.511167,937.223
909,1.512833,937.223
910,1.514483,934.854
911,1.51615,932.224
912,1.517817,932.224
913,1.519483,929.7430000000001
914,1.52115,927.322
915,1.522817,925.079
916,1.524483,925.079
917,1.52615,922.6950000000001
918,1.527833,920.385
919,1.529483,918.21
920,1.53115,918.21
921,1.532817,915.803
922,1.534483,913.598
923,1.53615,911.482
924,1.53785,911.482
925,1.539483,908.956
926,1.54115,906.497
927,1.542817,906.497
928,1.544483,904.299
929,1.54615,901.55
930,1.547817,899.181
931,1.549483,899.181
932,1.55115,896.953
933,1.552817,894.539
934,1.554483,892.684
935,1.55615,892.684
936,1.557883,890.724
937,1.559483,888.489
938,1.56115,886.1799999999999
939,1.562817,886.1799999999999
940,1.564483,883.602
