"ID","sea_time","fid_signal"
1,0,1298.934
2,0.001667,1298.189
3,0.003333,1298.189
4,0.005,1301.542
5,0.006683,1300.648
6,0.008333,1300.648
7,0.01,1293.272
8,0.011667,1280.531
9,0.01335,1267.269
10,0.015,1267.269
11,0.016667,1260.266
12,0.018333,1260.191
13,0.02,1267.195
14,0.021667,1267.195
15,0.023333,1277.03
16,0.025,1284.182
17,0.026667,1287.609
18,0.028333,1287.609
19,0.03,1289.994
20,0.031667,1288.578
21,0.033333,1288.578
22,0.035,1286.939
23,0.036667,1290.888
24,0.038333,1293.123
25,0.040067,1293.123
26,0.041667,1294.762
27,0.043333,1297.742
28,0.045,1295.954
29,0.046667,1295.954
30,0.04835,1294.985
31,0.05,1293.123
32,0.051667,1293.868
33,0.053333,1293.868
34,0.055,1294.613
35,0.056633,1295.656
36,0.058317,1295.656
37,0.059967,1294.985
38,0.061633,1293.048
39,0.0633,1294.166
40,0.064967,1294.166
41,0.066633,1294.166
42,0.0683,1297.146
43,0.069967,1297.668
44,0.071633,1297.668
45,0.073433,1297.519
46,0.07496700000000001,1301.244
47,0.07663300000000001,1303.405
48,0.07829999999999999,1303.405
49,0.079967,1304.224
50,0.081633,1303.852
51,0.0833,1299.828
52,0.084967,1299.828
53,0.086633,1298.413
54,0.0883,1300.946
55,0.08996700000000001,1300.946
56,0.09163300000000001,1303.777
57,0.09329999999999999,1308.098
58,0.094967,1308.396
59,0.096633,1308.396
60,0.0983,1305.64
61,0.099983,1302.958
62,0.101633,1301.244
63,0.1033,1301.244
64,0.104967,1300.424
65,0.106633,1300.871
66,0.1083,1303.479
67,0.109967,1303.479
68,0.111633,1300.499
69,0.1133,1302.287
70,0.114967,1302.287
71,0.116633,1302.436
72,0.1183,1301.095
73,0.119967,1301.616
74,0.121617,1301.616
75,0.123283,1302.287
76,0.12495,1303.256
77,0.126617,1304.597
78,0.128283,1304.597
79,0.12995,1304.895
80,0.131617,1302.66
81,0.133283,1298.189
82,0.13495,1298.189
83,0.136617,1295.73
84,0.138283,1295.432
85,0.13995,1296.699
86,0.141617,1296.699
87,0.143283,1298.636
88,0.14495,1300.052
89,0.14665,1300.052
90,0.148283,1301.318
91,0.14995,1301.691
92,0.151617,1302.063
93,0.153283,1302.063
94,0.15495,1300.722
95,0.156617,1297.146
96,0.158333,1298.562
97,0.15995,1298.562
98,0.161617,1298.413
99,0.163283,1299.53
100,0.16495,1303.926
101,0.166617,1303.926
102,0.168283,1302.436
103,0.16995,1304.671
104,0.171617,1304.671
105,0.173283,1304.15
106,0.174983,1304.969
107,0.176617,1304.82
108,0.1783,1304.82
109,0.179933,1304.373
110,0.1816,1302.958
111,0.183267,1299.605
112,0.184933,1299.605
113,0.1866,1297.519
114,0.188267,1296.997
115,0.189933,1300.275
116,0.191717,1300.275
117,0.193267,1302.138
118,0.194933,1302.436
119,0.1966,1300.126
120,0.198267,1300.126
121,0.199933,1296.476
122,0.2016,1294.762
123,0.203267,1294.762
124,0.204933,1296.848
125,0.2066,1299.307
126,0.208267,1302.361
127,0.209933,1302.361
128,0.2116,1301.691
129,0.213267,1296.997
130,0.214933,1296.401
131,0.2166,1296.401
132,0.218267,1295.88
133,0.219933,1295.73
134,0.2216,1299.307
135,0.223283,1299.307
136,0.224933,1298.636
137,0.2266,1295.88
138,0.228267,1295.88
139,0.229933,1296.699
140,0.2316,1296.028
141,0.233267,1295.581
142,0.234933,1295.581
143,0.2366,1296.923
144,0.238267,1296.252
145,0.239917,1298.338
146,0.241583,1298.338
147,0.24325,1302.138
148,0.244917,1303.628
149,0.246583,1307.204
150,0.24825,1307.204
151,0.249917,1305.044
152,0.251583,1301.542
153,0.25325,1301.542
154,0.254917,1299.828
155,0.256583,1299.381
156,0.25825,1299.381
157,0.259917,1299.381
158,0.261583,1298.785
159,0.263267,1298.115
160,0.264917,1295.954
161,0.266583,1295.954
162,0.26825,1296.476
163,0.269917,1297.221
164,0.271583,1295.507
165,0.27325,1295.507
166,0.274917,1293.495
167,0.276633,1293.346
168,0.27825,1294.687
169,0.279917,1294.687
170,0.281583,1295.134
171,0.28325,1294.687
172,0.284917,1294.687
173,0.286583,1296.252
174,0.28825,1294.464
175,0.289917,1295.954
176,0.291583,1295.954
177,0.29335,1299.009
178,0.294917,1297.519
179,0.296583,1297.742
180,0.29825,1297.742
181,0.2999,1296.923
182,0.301567,1293.644
183,0.303233,1293.868
184,0.3049,1293.868
185,0.306567,1293.719
186,0.308233,1295.209
187,0.310017,1297.444
188,0.311567,1297.444
189,0.313233,1296.774
190,0.3149,1296.625
191,0.316567,1296.625
192,0.318233,1296.923
193,0.3199,1297.072
194,0.321567,1296.177
195,0.323233,1296.177
196,0.3249,1296.55
197,0.326567,1295.209
198,0.328233,1295.283
199,0.3299,1295.283
200,0.331567,1295.209
201,0.333233,1294.389
202,0.3349,1293.346
203,0.336567,1293.346
204,0.338233,1292.825
205,0.3399,1296.699
206,0.341567,1296.699
207,0.343233,1299.381
208,0.3449,1301.393
209,0.346567,1305.267
210,0.348217,1305.267
211,0.349883,1305.938
212,0.35155,1305.416
213,0.353217,1309.067
214,0.354883,1309.067
215,0.35655,1309.216
216,0.358217,1310.036
217,0.359867,1313.388
218,0.361533,1313.388
219,0.363217,1314.282
220,0.364867,1317.039
221,0.366533,1317.039
222,0.3682,1320.168
223,0.369867,1326.576
224,0.371533,1331.717
225,0.3732,1331.717
226,0.374867,1336.038
227,0.376533,1342.371
228,0.3782,1349.151
229,0.379867,1349.151
230,0.381533,1355.037
231,0.3832,1363.382
232,0.384867,1368.448
233,0.386533,1368.448
234,0.3882,1372.695
235,0.389867,1381.114
236,0.391533,1388.49
237,0.3932,1388.49
238,0.394867,1397.356
239,0.396533,1406.297
240,0.398217,1406.297
241,0.399867,1413.673
242,0.401533,1418.665
243,0.4032,1424.178
244,0.404867,1424.178
245,0.406533,1430.139
246,0.4082,1436.994
247,0.409867,1446.605
248,0.4116,1446.605
249,0.4132,1455.545
250,0.414867,1461.804
251,0.416533,1469.552
252,0.418183,1469.552
253,0.41985,1474.023
254,0.421517,1477.376
255,0.423183,1477.376
256,0.42485,1480.132
257,0.426517,1478.344
258,0.428283,1476.631
259,0.42985,1476.631
260,0.431517,1478.344
261,0.433183,1480.132
262,0.43485,1482.74
263,0.436517,1482.74
264,0.438183,1484.752
265,0.43985,1484.156
266,0.441517,1478.046
267,0.443183,1478.046
268,0.44495,1470.447
269,0.446517,1464.188
270,0.448183,1464.188
271,0.44985,1455.098
272,0.451517,1450.181
273,0.453183,1444.817
274,0.45485,1444.817
275,0.456517,1439.527
276,0.458183,1436.099
277,0.45985,1433.268
278,0.461517,1433.268
279,0.463183,1430.661
280,0.46485,1429.245
281,0.466517,1424.402
282,0.468183,1424.402
283,0.46985,1417.697
284,0.471517,1414.94
285,0.473183,1408.905
286,0.47485,1408.905
287,0.476517,1402.944
288,0.478167,1403.242
289,0.479833,1403.242
290,0.4815,1395.866
291,0.483167,1393.706
292,0.484833,1389.906
293,0.4865,1389.906
294,0.488167,1379.55
295,0.489833,1377.463
296,0.4915,1374.111
297,0.493167,1374.111
298,0.494833,1375.452
299,0.4965,1374.856
300,0.498167,1369.938
301,0.499833,1369.938
302,0.5014999999999999,1364.425
303,0.503183,1358.986
304,0.50485,1358.986
305,0.5065,1353.547
306,0.508167,1350.939
307,0.509833,1349.3
308,0.5115,1349.3
309,0.513167,1346.171
310,0.514833,1346.99
311,0.5165,1346.618
312,0.518167,1346.618
313,0.519833,1344.606
314,0.5215,1340.657
315,0.523167,1338.72
316,0.524833,1338.72
317,0.5265,1334.697
318,0.5281670000000001,1331.866
319,0.529883,1332.313
320,0.5315,1332.313
321,0.5331669999999999,1331.642
322,0.534833,1331.94
323,0.5365,1331.94
324,0.53815,1333.654
325,0.539817,1335.815
326,0.541483,1337.454
327,0.54315,1337.454
328,0.544817,1340.21
329,0.54655,1342.297
330,0.54815,1345.053
331,0.549817,1345.053
332,0.5514829999999999,1346.171
333,0.55315,1349.375
334,0.554817,1352.057
335,0.5564829999999999,1352.057
336,0.55815,1352.429
337,0.559817,1357.198
338,0.561483,1357.198
339,0.563267,1358.464
340,0.564817,1360.178
341,0.566483,1360.104
342,0.56815,1360.104
343,0.569817,1355.931
344,0.571483,1353.1
345,0.57315,1350.418
346,0.574817,1350.418
347,0.576483,1350.269
348,0.5781500000000001,1349.077
349,0.579817,1350.269
350,0.581483,1350.269
351,0.583183,1348.034
352,0.584817,1345.053
353,0.586483,1346.767
354,0.58815,1346.767
355,0.589817,1344.085
356,0.591483,1342.371
357,0.59315,1342.371
358,0.594817,1341.999
359,0.596483,1339.391
360,0.59815,1337.379
361,0.5998,1337.379
362,0.601467,1335.442
363,0.603133,1334.771
364,0.6048,1334.771
365,0.606467,1334.771
366,0.608133,1338.571
367,0.6098,1343.936
368,0.611467,1348.704
369,0.613133,1348.704
370,0.6148,1355.857
371,0.616467,1363.009
372,0.618133,1363.009
373,0.6198,1372.695
374,0.621467,1386.479
375,0.623133,1400.635
376,0.6248,1400.635
377,0.626483,1422.465
378,0.6281330000000001,1451.15
379,0.6298,1484.677
380,0.631467,1484.677
381,0.6331329999999999,1527.742
382,0.6348,1576.394
383,0.636467,1633.912
384,0.638133,1633.912
385,0.639783,1698.136
386,0.64145,1773.313
387,0.643117,1773.313
388,0.644783,1859.143
389,0.64645,1955.181
390,0.648217,2062.917
391,0.649783,2062.917
392,0.65145,2178.624
393,0.6531169999999999,2305.806
394,0.6548,2441.257
395,0.65645,2441.257
396,0.658117,2590.045
397,0.659767,2749.413
398,0.661433,2917.2
399,0.6631,2917.2
400,0.664817,3093.63
401,0.6664330000000001,3279.522
402,0.6681,3476.217
403,0.669767,3476.217
404,0.6714329999999999,3678.277
405,0.6731,3889.576
406,0.674767,3889.576
407,0.676433,4103.258
408,0.6781,4322.231
409,0.679767,4546.27
410,0.6815330000000001,4546.27
411,0.6831,4773.438
412,0.684767,5007.61
413,0.686433,5244.538
414,0.6881,5244.538
415,0.689767,5487.725
416,0.691433,5732.328
417,0.6931,5978.048
418,0.694767,5978.048
419,0.696433,6221.458
420,0.6981000000000001,6462.708
421,0.699767,6462.708
422,0.701433,6707.981
423,0.7030999999999999,6953.552
424,0.704767,7200.912
425,0.706433,7200.912
426,0.7081,7451.102
427,0.709767,7700.175
428,0.711433,7949.099
429,0.7131,7949.099
430,0.714767,8198.245999999999
431,0.716433,8445.978999999999
432,0.718117,8690.432000000001
433,0.71975,8690.432000000001
434,0.721417,8936.375
435,0.723083,9184.182000000001
436,0.72475,9426.847
437,0.726417,9426.847
438,0.728083,9669.587
439,0.72975,9908.898999999999
440,0.731417,9908.898999999999
441,0.733083,10148.883
442,0.73475,10388.94
443,0.736417,10625.795
444,0.738083,10625.795
445,0.73975,10859.817
446,0.741417,11088.028
447,0.743083,11320.114
448,0.74475,11320.114
449,0.746417,11549.741
450,0.7480830000000001,11779.815
451,0.74975,12006.164
452,0.751417,12006.164
453,0.7530829999999999,12228.787
454,0.75475,12450.963
455,0.756417,12450.963
456,0.758083,12667.626
457,0.75975,12888.313
458,0.761417,13102.964
459,0.763083,13102.964
460,0.76475,13317.54
461,0.766433,13530.031
462,0.768083,13736.338
463,0.76975,13736.338
464,0.771417,13943.24
465,0.773083,14146.716
466,0.77475,14350.19
467,0.776417,14350.19
468,0.778083,14552.847
469,0.779733,14751.852
470,0.7814,14948.473
471,0.78315,14948.473
472,0.784733,15141.145
473,0.7864,15331.507
474,0.788067,15331.507
475,0.78975,15520.603
476,0.7914,15706.271
477,0.793067,15889.183
478,0.794733,15889.183
479,0.7964,16067.103
480,0.798067,16242.266
481,0.799867,16414.82
482,0.801417,16414.82
483,0.803067,16584.695
484,0.804733,16753.971
485,0.8064,16917.289
486,0.808067,16917.289
487,0.809733,17079.264
488,0.8114,17238.334
489,0.813067,17238.334
490,0.814733,17390.4
491,0.8164,17541.721
492,0.818067,17684.252
493,0.819733,17684.252
494,0.8214,17821.938
495,0.823067,17957.389
496,0.824733,18086.73
497,0.8264,18086.73
498,0.828083,18211.604
499,0.8297330000000001,18327.311
500,0.8314,18432.066
501,0.833067,18432.066
502,0.8347329999999999,18526.912
503,0.8364,18611.699
504,0.83805,18611.699
505,0.839717,18688.291
506,0.841383,18753.855
507,0.84305,18803.18
508,0.8447170000000001,18803.18
509,0.846383,18833.875
510,0.84805,18841.922
511,0.8497169999999999,18822.551
512,0.851383,18822.551
513,0.85305,18770.174
514,0.8547169999999999,18681.139
515,0.856383,18550.605
516,0.858067,18550.605
517,0.859717,18366.65
518,0.861383,18124.953
519,0.86305,17814.412
520,0.864717,17814.412
521,0.866383,17425.195
522,0.86805,16957.299
523,0.869717,16957.299
524,0.871383,16409.383
525,0.87305,15792.996
526,0.874717,15122.741
527,0.876383,15122.741
528,0.87805,14420.972
529,0.879717,13714.806
530,0.881383,13019.294
531,0.88305,13019.294
532,0.884767,12353.436
533,0.886383,11733.994
534,0.88805,11160.672
535,0.889717,11160.672
536,0.891383,10643.899
537,0.89305,10183.155
538,0.894717,10183.155
539,0.896383,9775.534
540,0.89805,9415.597
541,0.8997000000000001,9097.978999999999
542,0.901367,9097.978999999999
543,0.90305,8817.911
544,0.9046999999999999,8561.686
545,0.906367,8333.251
546,0.908033,8333.251
547,0.9097,8127.913
548,0.911367,7939.115
549,0.913033,7768.571
550,0.9147,7768.571
551,0.916367,7611.438
552,0.918133,7462.353
553,0.9197,7327.795
554,0.921367,7327.795
555,0.923033,7199.57
556,0.9247,7075.965
557,0.9263670000000001,7075.965
558,0.928033,6959.662
559,0.929683,6848.201
560,0.93135,6744.489
561,0.933017,6744.489
562,0.934683,6648.153
563,0.93635,6555.021
564,0.938017,6459.951
565,0.939683,6459.951
566,0.94135,6368.682
567,0.943017,6280.914
568,0.9446830000000001,6195.307
569,0.94635,6195.307
570,0.948017,6117.374
571,0.9496830000000001,6041.601
572,0.95135,6041.601
573,0.953017,5967.17
574,0.9546829999999999,5897.656
575,0.95635,5828.217
576,0.958,5828.217
577,0.959667,5760.863
578,0.961333,5694.777
579,0.963,5628.988
580,0.9646670000000001,5628.988
581,0.966333,5570.501
582,0.968,5512.163
583,0.9696669999999999,5456.954
584,0.971333,5456.954
585,0.973,5405.918
586,0.974667,5349.666
587,0.9763500000000001,5293.19
588,0.978,5293.19
589,0.979667,5239.919
590,0.981333,5188.659
591,0.983,5188.659
592,0.984667,5141.422
593,0.986333,5096.719
594,0.988,5048.364
595,0.989667,5048.364
596,0.99135,5000.234
597,0.993,4951.358
598,0.994667,4905.537
599,0.996333,4905.537
600,0.9980329999999999,4862.994
601,0.999667,4821.047
602,1.001333,4781.261
603,1.003067,4781.261
604,1.004667,4741.624
605,1.006333,4703.253
606,1.008,4703.253
607,1.009667,4666.82
608,1.011333,4628.748
609,1.013,4592.016
610,1.014667,4592.016
611,1.016333,4557.595
612,1.017983,4519.597
613,1.01965,4483.313
614,1.021317,4483.313
615,1.022983,4449.263
616,1.02465,4417.077
617,1.026317,4385.933
618,1.027983,4385.933
619,1.02965,4356.354
620,1.031317,4324.689
621,1.032983,4324.689
622,1.03465,4291.907
623,1.036433,4262.253
624,1.037983,4229.024
625,1.03965,4229.024
626,1.041317,4198.849
627,1.042983,4170.611
628,1.04465,4140.66
629,1.046317,4140.66
630,1.047983,4114.136
631,1.04965,4086.941
632,1.051317,4058.927
633,1.052983,4058.927
634,1.05465,4035.607
635,1.056317,4009.753
636,1.057983,3983.006
637,1.05965,3983.006
638,1.061317,3959.239
639,1.062983,3932.342
640,1.06465,3932.342
641,1.066317,3910.586
642,1.067983,3889.427
643,1.06965,3864.914
644,1.071317,3864.914
645,1.072983,3839.135
646,1.074667,3817.305
647,1.076317,3797.188
648,1.078017,3797.188
649,1.079633,3776.997
650,1.0813,3760.234
651,1.082967,3737.286
652,1.084633,3737.286
653,1.0863,3715.977
654,1.087967,3693.551
655,1.089633,3693.551
656,1.0913,3671.423
657,1.092967,3652.945
658,1.094633,3634.617
659,1.0963,3634.617
660,1.097967,3619.865
661,1.099633,3602.877
662,1.1013,3581.867
663,1.102967,3581.867
664,1.104633,3559.813
665,1.1063,3537.461
666,1.107967,3517.866
667,1.109633,3517.866
668,1.1113,3503.71
669,1.112967,3488.362
670,1.114633,3468.618
671,1.1163,3468.618
672,1.117967,3449.842
673,1.119633,3429.502
674,1.121367,3429.502
675,1.122967,3410.578
676,1.124633,3395.975
677,1.1263,3382.116
678,1.127967,3382.116
679,1.129633,3368.556
680,1.1313,3352.314
681,1.132967,3338.084
682,1.134633,3338.084
683,1.1363,3320.426
684,1.13795,3304.034
685,1.139633,3289.431
686,1.141283,3289.431
687,1.14295,3273.86
688,1.144617,3262.013
689,1.146283,3262.013
690,1.14795,3247.932
691,1.149683,3235.117
692,1.151283,3220.29
693,1.15295,3220.29
694,1.154617,3203.377
695,1.156283,3188.998
696,1.15795,3176.033
697,1.159617,3176.033
698,1.161283,3165.826
699,1.16295,3157.854
700,1.164617,3148.094
701,1.166283,3148.094
702,1.16795,3136.62
703,1.169617,3125.519
704,1.171283,3111.66
705,1.17295,3111.66
706,1.174617,3098.026
707,1.176283,3083.274
708,1.17795,3083.274
709,1.179617,3068.522
710,1.181283,3055.409
711,1.18295,3042.817
712,1.184617,3042.817
713,1.186283,3033.355
714,1.18795,3023.147
715,1.189617,3010.407
716,1.191283,3010.407
717,1.19295,2999.529
718,1.194617,2985
719,1.196283,2970.919
720,1.19795,2970.919
721,1.1996,2961.457
722,1.201267,2951.398
723,1.202933,2951.398
724,1.204617,2943.724
725,1.206267,2933.741
726,1.207933,2922.788
727,1.2096,2922.788
728,1.211267,2913.177
729,1.212933,2902.523
730,1.2146,2892.315
731,1.216267,2892.315
732,1.217933,2880.469
733,1.219683,2866.983
734,1.22125,2858.49
735,1.222917,2858.49
736,1.224583,2851.188
737,1.22625,2845.153
738,1.227917,2845.153
739,1.229583,2839.267
740,1.23125,2828.24
741,1.232917,2817.511
742,1.234583,2817.511
743,1.23625,2804.697
744,1.237917,2792.85
745,1.2396,2784.729
746,1.24125,2784.729
747,1.242917,2777.278
748,1.244583,2769.604
749,1.24625,2762.154
750,1.247917,2762.154
751,1.249583,2752.394
752,1.25125,2740.994
753,1.252917,2733.395
754,1.254583,2733.395
755,1.256317,2724.826
756,1.257917,2718.121
757,1.259567,2718.121
758,1.261233,2713.874
759,1.2629,2706.349
760,1.264567,2700.09
761,1.266233,2700.09
762,1.2679,2689.287
763,1.269567,2678.707
764,1.271233,2667.829
765,1.273017,2667.829
766,1.274567,2658.293
767,1.276233,2651.736
768,1.2779,2643.392
769,1.279567,2643.392
770,1.281233,2636.909
771,1.2829,2630.279
772,1.284567,2630.279
773,1.286233,2624.02
774,1.2879,2620.146
775,1.289667,2615.526
776,1.291233,2615.526
777,1.2929,2604.797
778,1.294567,2596.304
779,1.29625,2588.183
780,1.2979,2588.183
781,1.299567,2579.987
782,1.301233,2574.25
783,1.3029,2567.47
784,1.304567,2567.47
785,1.306233,2558.008
786,1.3079,2550.11
787,1.309567,2544.448
788,1.311233,2544.448
789,1.3129,2540.201
790,1.314567,2535.283
791,1.316233,2535.283
792,1.3179,2532.452
793,1.31955,2525.598
794,1.321217,2514.571
795,1.322883,2514.571
796,1.32455,2507.344
797,1.326217,2499.744
798,1.327883,2493.858
799,1.32955,2493.858
800,1.331217,2488.419
801,1.332883,2481.863
802,1.33455,2474.636
803,1.336217,2474.636
804,1.337883,2472.624
805,1.33955,2469.719
806,1.341217,2469.719
807,1.342883,2466.068
808,1.34455,2462.119
809,1.346217,2452.657
810,1.347883,2452.657
811,1.34955,2444.908
812,1.351217,2438.352
813,1.352883,2430.23
814,1.35455,2430.23
815,1.356217,2426.729
816,1.35795,2421.662
817,1.35955,2418.086
818,1.361217,2418.086
819,1.362883,2414.435
820,1.36455,2404.75
821,1.366217,2399.385
822,1.367883,2399.385
823,1.36955,2390.295
824,1.371217,2383.664
825,1.372883,2383.664
826,1.374633,2378.523
827,1.376217,2370.849
828,1.377867,2365.187
829,1.37955,2365.187
830,1.3812,2358.63
831,1.382867,2353.638
832,1.384533,2350.733
833,1.3862,2350.733
834,1.387867,2345.89
835,1.389533,2341.718
836,1.391267,2338.737
837,1.392867,2338.737
838,1.394533,2331.51
839,1.3962,2327.114
840,1.397867,2327.114
841,1.399533,2320.483
842,1.4012,2314.15
843,1.402867,2311.543
844,1.404533,2311.543
845,1.4062,2305.731
846,1.407983,2302.378
847,1.409533,2296.865
848,1.4112,2296.865
849,1.412867,2293.512
850,1.414533,2290.606
851,1.4162,2288.52
852,1.417867,2288.52
853,1.419533,2284.572
854,1.4212,2275.482
855,1.422867,2270.49
856,1.424533,2270.49
857,1.4262,2266.243
858,1.427867,2263.859
859,1.429533,2263.859
860,1.4312,2261.698
861,1.432867,2257.675
862,1.434533,2250.597
863,1.436217,2250.597
864,1.437867,2245.679
865,1.439517,2244.785
866,1.441183,2240.166
867,1.44285,2240.166
868,1.444517,2237.26
869,1.446183,2231.672
870,1.44785,2223.775
871,1.449517,2223.775
872,1.451183,2217.74
873,1.45285,2215.505
874,1.454533,2215.505
875,1.456183,2213.94
876,1.45785,2211.332
877,1.459517,2212.823
878,1.461183,2212.823
879,1.46285,2208.352
880,1.464517,2203.584
881,1.466183,2199.411
882,1.46785,2199.411
883,1.469517,2194.866
884,1.471183,2192.11
885,1.47285,2189.13
886,1.474517,2189.13
887,1.476183,2183.467
888,1.47785,2177.283
889,1.479517,2177.283
890,1.481183,2172.44
891,1.48285,2168.864
892,1.484517,2167.448
893,1.486183,2167.448
894,1.48785,2165.139
895,1.489517,2161.264
896,1.491183,2155.751
897,1.4929,2155.751
898,1.494517,2153.814
899,1.496183,2149.642
900,1.49785,2143.085
901,1.4995,2143.085
902,1.501167,2143.159
903,1.502833,2138.093
904,1.5045,2133.846
905,1.506167,2133.846
906,1.507833,2130.717
907,1.509517,2123.713
908,1.511167,2123.713
909,1.512817,2118.796
910,1.514483,2114.028
911,1.51615,2111.42
912,1.517817,2111.42
913,1.519483,2107.397
