"ID","sea_time","fid_signal"
1,0,139.9
2,0.00155,139.9
3,0.003217,140.034
4,0.004883,140.436
5,0.00655,140.436
6,0.008217,139.996
7,0.009882999999999999,140.071
8,0.011567,140.242
9,0.013217,140.242
10,0.014883,140.272
11,0.01655,140.436
12,0.018233,140.212
13,0.019883,140.212
14,0.02155,140.28
15,0.023217,140.183
16,0.024883,140.287
17,0.02655,140.287
18,0.028217,140.555
19,0.029883,140.168
20,0.03155,140.168
21,0.033217,140.123
22,0.034867,140.131
23,0.036533,140.049
24,0.0382,140.049
25,0.039867,140.339
26,0.041533,140.436
27,0.0432,140.443
28,0.044867,140.443
29,0.046533,140.518
30,0.0482,140.123
31,0.049867,139.87
32,0.051533,139.87
33,0.053183,139.639
34,0.05485,139.862
35,0.056517,140.011
36,0.058183,140.011
37,0.05985,140.175
38,0.061517,140.257
39,0.063183,140.257
40,0.06485,139.773
41,0.06651700000000001,139.721
42,0.06818299999999999,139.721
43,0.06985,139.721
44,0.071517,139.996
45,0.073183,140.347
46,0.07485,140.265
47,0.076517,140.265
48,0.078183,140.324
49,0.07985,140.436
50,0.08151700000000001,140.794
51,0.08318300000000001,140.794
52,0.0849,140.779
53,0.086517,140.786
54,0.088183,140.786
55,0.08985,140.585
56,0.091517,140.183
57,0.09321699999999999,140.376
58,0.094833,140.376
59,0.0965,140.22
60,0.098167,139.795
61,0.09983300000000001,139.773
62,0.1015,139.773
63,0.103167,139.669
64,0.104833,139.84
65,0.1065,140.339
66,0.108167,140.339
67,0.109833,140.22
68,0.1115,140.555
69,0.113167,140.57
70,0.114833,140.57
71,0.1165,140.242
72,0.118283,140.518
73,0.119833,140.518
74,0.1215,140.51
75,0.123167,140.458
76,0.124833,140.704
77,0.1265,140.704
78,0.128167,140.473
79,0.129833,140.175
80,0.1315,139.683
81,0.133167,139.683
82,0.134933,139.765
83,0.1365,139.676
84,0.138167,139.765
85,0.139833,139.765
86,0.1415,140.25
87,0.143167,139.877
88,0.144833,139.877
89,0.1465,139.862
90,0.148167,140.019
91,0.149833,139.996
92,0.1515,139.996
93,0.153167,140.332
94,0.154817,140.749
95,0.156483,140.704
96,0.15815,140.704
97,0.159817,140.466
98,0.161483,140.28
99,0.16315,139.847
100,0.164817,139.847
101,0.166483,139.542
102,0.16815,139.631
103,0.169817,139.78
104,0.171483,139.78
105,0.17315,139.952
106,0.174817,140.175
107,0.176483,140.175
108,0.178167,140.086
109,0.179817,140.093
110,0.181483,140.205
111,0.183167,140.205
112,0.184867,140.294
113,0.1865,140.674
114,0.18815,140.615
115,0.189817,140.615
116,0.191483,140.57
117,0.19315,140.555
118,0.194817,140.205
119,0.196483,140.205
120,0.19815,140.011
121,0.199817,140.198
122,0.201483,140.198
123,0.20315,140.138
124,0.204817,140.399
125,0.206483,140.786
126,0.20815,140.786
127,0.209817,140.645
128,0.211483,140.727
129,0.213133,140.488
130,0.2148,140.488
131,0.216467,140.019
132,0.218133,139.691
133,0.219883,139.445
134,0.221467,139.445
135,0.223133,139.505
136,0.2248,139.736
137,0.226467,139.736
138,0.228133,139.974
139,0.2298,140.16
140,0.231467,140.399
141,0.233133,140.399
142,0.2348,140.525
143,0.23655,140.637
144,0.238133,140.622
145,0.2398,140.622
146,0.241467,140.302
147,0.243133,140.227
148,0.2448,139.907
149,0.246467,139.907
150,0.248133,139.594
151,0.2498,139.579
152,0.251467,139.393
153,0.2532,139.393
154,0.2548,139.371
155,0.256467,139.713
156,0.258133,139.713
157,0.2598,139.639
158,0.261467,139.967
159,0.263133,140.257
160,0.2648,140.257
161,0.266467,140.339
162,0.268133,140.704
163,0.2698,140.525
164,0.271467,140.525
165,0.273133,140.578
166,0.274783,140.376
167,0.27645,140.227
168,0.278117,140.227
169,0.279783,140.242
170,0.28145,139.907
171,0.283117,139.907
172,0.284783,140.131
173,0.28645,140.153
174,0.288117,140.272
175,0.289783,140.272
176,0.29145,140.585
177,0.293117,140.332
178,0.294783,140.138
179,0.29645,140.138
180,0.298117,140.011
181,0.299783,139.728
182,0.30145,139.512
183,0.303117,139.512
184,0.304783,139.52
185,0.30645,139.259
186,0.308117,139.497
187,0.309783,139.497
188,0.31145,139.818
189,0.313117,140.034
190,0.314783,140.034
191,0.31645,140.25
192,0.318117,140.354
193,0.319783,140.369
194,0.321467,140.369
195,0.323117,140.168
196,0.324783,140.294
197,0.32645,139.967
198,0.328117,139.967
199,0.329783,139.669
200,0.331433,139.602
201,0.333117,139.542
202,0.334767,139.542
203,0.336433,139.721
204,0.338133,139.967
205,0.339767,139.967
206,0.341433,140.212
207,0.3431,140.324
208,0.34475,140.525
209,0.346417,140.525
210,0.348083,140.66
211,0.34975,140.6
212,0.351417,140.592
213,0.353083,140.592
214,0.3548,140.458
215,0.356417,140.496
216,0.358083,140.555
217,0.35975,140.555
218,0.361433,140.518
219,0.363083,140.525
220,0.36475,140.801
221,0.366417,140.801
222,0.368083,141.159
223,0.36975,141.673
224,0.371517,141.673
225,0.373083,141.926
226,0.37475,142.105
227,0.376417,142.589
228,0.378083,142.589
229,0.37975,142.865
230,0.381417,143.632
231,0.383083,144.705
232,0.38475,144.705
233,0.386417,145.473
234,0.388083,146.419
235,0.38975,147.529
236,0.391417,147.529
237,0.393067,148.475
238,0.394733,149.891
239,0.3964,149.891
240,0.398067,151.239
241,0.399767,152.759
242,0.4014,154.302
243,0.403067,154.302
244,0.404733,156.045
245,0.4064,158.444
246,0.408067,160.925
247,0.409733,160.925
248,0.4114,163.734
249,0.413067,167.042
250,0.414733,170.521
251,0.4164,170.521
252,0.418067,174.716
253,0.41975,179.835
254,0.4214,179.835
255,0.423067,185.803
256,0.424733,193.045
257,0.4264,201.941
258,0.428067,201.941
259,0.429733,213.34
260,0.4314,227.98
261,0.433067,246.793
262,0.434733,246.793
263,0.4364,271.566
264,0.438067,304.118
265,0.439733,347.86
266,0.4414,347.86
267,0.443067,406.764
268,0.444733,485.718
269,0.4464,590.205
270,0.448067,590.205
271,0.449733,726.119
272,0.4514,900.604
273,0.45305,900.604
274,0.454717,1120.105
275,0.4564,1390.8
276,0.45805,1717.538
277,0.459717,1717.538
278,0.461383,2103.485
279,0.46305,2549.149
280,0.464717,3053.457
281,0.466383,3053.457
282,0.46805,3612.287
283,0.469733,4218.996
284,0.471383,4865.117
285,0.473067,4865.117
286,0.474717,5540.222
287,0.476383,6233.252
288,0.47805,6233.252
289,0.479717,6931.998
290,0.481383,7624.589
291,0.48305,8299.224
292,0.484717,8299.224
293,0.486383,8945.1
294,0.48805,9552.977999999999
295,0.489833,10114.178
296,0.491383,10114.178
297,0.49305,10621.339
298,0.494717,11069.306
299,0.496383,11454.597
300,0.49805,11454.597
301,0.499717,11776.47
302,0.501383,12035.578
303,0.50305,12233.332
304,0.504717,12233.332
305,0.506383,12372.62
306,0.508067,12456.462
307,0.509717,12456.462
308,0.511383,12489.147
309,0.513033,12475.677
310,0.5147,12420.87
311,0.516367,12420.87
312,0.518033,12329.884
313,0.5197000000000001,12207.068
314,0.521367,12057.401
315,0.523033,12057.401
316,0.5247000000000001,11885.517
317,0.526367,11696.025
318,0.528033,11493.296
319,0.5296999999999999,11493.296
320,0.531367,11280.112
321,0.533033,11058.859
322,0.5347,11058.859
323,0.536367,10832.57
324,0.538033,10603.592
325,0.5397,10373.443
326,0.5414,10373.443
327,0.543033,10144.293
328,0.5447,9916.618
329,0.546367,9691.895
330,0.548033,9691.895
331,0.5497,9471.602999999999
332,0.5513670000000001,9255.915999999999
333,0.553033,9045.571
334,0.5547,9045.571
335,0.5563669999999999,8840.522999999999
336,0.558033,8641.041999999999
337,0.5597,8448.146000000001
338,0.5613669999999999,8448.146000000001
339,0.563033,8261.196
340,0.5647,8079.849
341,0.566367,8079.849
342,0.568033,7904.396
343,0.5697,7734.44
344,0.57135,7570.535
345,0.573017,7570.535
346,0.574767,7412.836
347,0.57635,7260.911
348,0.578017,7114.47
349,0.5796829999999999,7114.47
350,0.58135,6973.036
351,0.583017,6836.511
352,0.584683,6704.39
353,0.58635,6704.39
354,0.588017,6576.792
355,0.5897,6453.961
356,0.59135,6453.961
357,0.593017,6335.438
358,0.594683,6221.615
359,0.59635,6111.652
360,0.598017,6111.652
361,0.599683,6005.324
362,0.6013500000000001,5902.678
363,0.603017,5803.719
364,0.604683,5803.719
365,0.6063499999999999,5708.33
366,0.608117,5615.831
367,0.609683,5526.051
368,0.6113499999999999,5526.051
369,0.613017,5438.79
370,0.614683,5354.308
371,0.61635,5272.716
372,0.6180330000000001,5272.716
373,0.619683,5193.986
374,0.62135,5117.662
375,0.623017,5117.662
376,0.624683,5043.455
377,0.62635,4971.348
378,0.628017,4901.275
379,0.629683,4901.275
380,0.63135,4832.886
381,0.633,4766.36
382,0.634667,4701.652
383,0.636317,4701.652
384,0.637983,4638.567
385,0.6396500000000001,4577.845
386,0.641317,4518.986
387,0.642983,4518.986
388,0.6446499999999999,4461.557
389,0.646317,4405.7
390,0.647983,4405.7
391,0.6496499999999999,4350.401
392,0.651317,4296.258
393,0.652983,4243.165
394,0.65465,4243.165
395,0.656317,4191.414
396,0.657983,4141.085
397,0.65965,4091.457
398,0.661317,4091.457
399,0.662983,4043.095
400,0.66465,3995.687
401,0.666317,3949.374
402,0.667983,3949.374
403,0.66965,3904.261
404,0.6713170000000001,3860.004
405,0.672983,3860.004
406,0.67465,3816.843
407,0.6763169999999999,3774.509
408,0.677983,3732.756
409,0.67965,3732.756
410,0.681333,3692.046
411,0.682983,3651.902
412,0.68465,3612.623
413,0.686317,3612.623
414,0.687983,3573.88
415,0.68965,3535.896
416,0.691317,3498.547
417,0.693033,3498.547
418,0.6946329999999999,3461.637
419,0.6963,3425.65
420,0.697967,3390.104
421,0.6996329999999999,3390.104
422,0.7013,3355.16
423,0.702967,3320.619
424,0.704633,3320.619
425,0.7063,3286.794
426,0.707967,3253.728
427,0.709633,3221.125
428,0.7113,3221.125
429,0.712967,3189.214
430,0.714633,3157.75
431,0.7163,3126.495
432,0.717967,3126.495
433,0.719633,3095.858
434,0.7213000000000001,3065.511
435,0.722967,3035.486
436,0.724633,3035.486
437,0.7264,3005.929
438,0.727967,2976.596
439,0.729633,2976.596
440,0.7313,2947.643
441,0.732967,2919.614
442,0.734633,2891.801
443,0.7363,2891.801
444,0.737967,2864.346
445,0.739633,2837.256
446,0.7413,2810.001
447,0.742967,2810.001
448,0.744633,2783.313
449,0.7463,2756.409
450,0.747967,2730.273
451,0.749633,2730.273
452,0.7513,2704.866
453,0.7529670000000001,2679.922
454,0.754617,2655.335
455,0.756283,2655.335
456,0.7579669999999999,2630.748
457,0.759683,2606.064
458,0.761283,2606.064
459,0.76295,2581.544
460,0.764633,2557.829
461,0.766283,2533.935
462,0.76795,2533.935
463,0.769617,2510.6
464,0.7712830000000001,2487.369
465,0.77295,2464.086
466,0.774617,2464.086
467,0.7762829999999999,2441.593
468,0.77795,2419.166
469,0.779617,2396.867
470,0.7812829999999999,2396.867
471,0.78295,2374.962
472,0.784617,2353.348
473,0.786283,2353.348
474,0.78795,2331.838
475,0.789617,2310.276
476,0.791283,2288.923
477,0.79295,2288.923
478,0.794617,2267.606
479,0.796283,2246.849
480,0.79795,2226.554
481,0.799617,2226.554
482,0.801283,2206.534
483,0.8029500000000001,2186.552
484,0.804617,2166.517
485,0.806283,2166.517
486,0.8079499999999999,2146.848
487,0.809617,2127.364
488,0.811333,2108.03
489,0.812933,2108.03
490,0.8146,2088.688
491,0.816267,2069.674
492,0.817933,2069.674
493,0.8196,2051.048
494,0.821267,2032.734
495,0.822933,2014.488
496,0.8246,2014.488
497,0.826267,1996.07
498,0.827933,1977.816
499,0.8296,1959.682
500,0.831283,1959.682
501,0.832933,1941.964
502,0.8346,1924.552
503,0.836267,1907.155
504,0.837933,1907.155
505,0.8396,1890.071
506,0.841267,1873.188
507,0.842933,1873.188
508,0.8447170000000001,1856.431
509,0.846267,1839.75
510,0.847933,1823.045
511,0.8496,1823.045
512,0.851267,1806.326
513,0.8529330000000001,1789.853
514,0.8546,1773.782
515,0.856267,1773.782
516,0.8579329999999999,1757.89
517,0.8596,1742.005
518,0.861267,1726.419
519,0.862933,1726.419
520,0.8646,1710.46
521,0.866267,1694.97
522,0.867933,1694.97
523,0.8696,1680.084
524,0.871267,1664.735
525,0.8729170000000001,1649.849
526,0.874583,1649.849
527,0.87625,1634.903
528,0.8779169999999999,1619.883
529,0.879583,1605.474
530,0.88125,1605.474
531,0.882917,1591.079
532,0.884583,1576.707
533,0.88625,1562.603
534,0.887917,1562.603
535,0.889583,1548.328
536,0.89125,1534.283
537,0.892917,1520.38
538,0.894583,1520.38
539,0.89625,1506.731
540,0.897917,1493.297
541,0.899617,1493.297
542,0.90125,1479.872
543,0.902917,1466.632
544,0.904583,1453.221
545,0.90625,1453.221
546,0.907917,1440.093
547,0.909583,1427.33
548,0.91125,1414.47
549,0.912933,1414.47
550,0.914583,1401.626
551,0.91625,1388.699
552,0.917917,1375.809
553,0.919583,1375.809
554,0.92125,1363.441
555,0.922917,1351.208
556,0.924583,1351.208
557,0.92625,1339.331
558,0.9278999999999999,1327.634
559,0.9296,1315.802
560,0.931233,1315.802
561,0.932883,1304.105
562,0.93455,1292.504
563,0.936217,1280.695
564,0.937883,1280.695
565,0.939567,1269.057
566,0.941217,1257.725
567,0.942883,1246.631
568,0.94455,1246.631
569,0.946217,1236.014
570,0.947883,1225.211
571,0.94955,1214.422
572,0.951217,1214.422
573,0.952883,1203.433
574,0.95455,1192.488
575,0.956217,1192.488
576,0.957883,1181.93
577,0.95955,1171.492
578,0.961217,1161.411
579,0.962983,1161.411
580,0.96455,1151.167
581,0.966217,1141.146
582,0.967883,1130.953
583,0.96955,1130.953
584,0.971217,1120.701
585,0.9728830000000001,1111.016
586,0.97455,1101.054
587,0.976233,1101.054
588,0.9778829999999999,1091.503
589,0.97965,1081.936
590,0.981217,1081.936
591,0.982883,1071.967
592,0.98455,1062.542
593,0.986217,1053.251
594,0.987883,1053.251
595,0.98955,1044.281
596,0.991217,1035.713
597,0.992883,1026.876
598,0.994533,1026.876
599,0.9962,1018.278
600,0.9978669999999999,1009.539
601,0.999533,1000.948
602,1.0012,1000.948
603,1.002867,992.09
604,1.004533,983.35
605,1.0062,983.35
606,1.007867,974.692
607,1.009533,966.117
608,1.0112,958.271
609,1.012867,958.271
610,1.014533,949.994
611,1.0162,942.029
612,1.017867,933.766
613,1.019533,933.766
614,1.0212,925.876
615,1.022867,918.277
616,1.024533,910.409
617,1.0262,910.409
618,1.027867,902.72
619,1.029533,895.016
620,1.0312,887.141
621,1.032867,887.141
622,1.034533,879.534
623,1.0362,872.061
624,1.037867,872.061
625,1.039533,864.26
626,1.0412,856.973
627,1.042867,849.91
628,1.044533,849.91
629,1.0462,842.899
630,1.047867,836.223
631,1.049533,829.533
632,1.0512,829.533
633,1.052867,823.058
634,1.054517,816.427
635,1.056183,809.722
636,1.05785,809.722
637,1.059517,803.128
638,1.061183,796.102
639,1.06285,796.102
640,1.064583,789.605
641,1.066183,783.324
642,1.06785,777.11
643,1.069517,777.11
644,1.071183,770.919
645,1.07285,764.646
646,1.074517,758.372
647,1.076183,758.372
648,1.07785,752.062
649,1.079517,746.273
650,1.081233,740.677
651,1.08285,740.677
652,1.084517,734.724
653,1.086217,728.86
654,1.08785,722.9
655,1.089517,722.9
656,1.091183,717.074
657,1.09285,711.314
658,1.094517,711.314
659,1.096183,705.332
660,1.09795,699.759
661,1.099517,694.1849999999999
662,1.101183,694.1849999999999
663,1.10285,688.8579999999999
664,1.104517,684.127
665,1.106183,678.875
666,1.10785,678.875
667,1.109517,673.54
668,1.111183,668.436
669,1.112833,663.3920000000001
670,1.1145,663.3920000000001
671,1.116167,658.408
672,1.117833,653.341
673,1.119533,653.341
674,1.121167,648.29
675,1.122833,643.067
676,1.1245,638.038
677,1.126167,638.038
678,1.127833,633.2619999999999
679,1.1295,628.628
680,1.131167,624.128
681,1.132833,624.128
682,1.1345,619.508
683,1.136167,614.9640000000001
684,1.137833,610.434
685,1.1395,610.434
686,1.141167,605.926
687,1.142833,601.7089999999999
688,1.1445,597.455
689,1.146167,597.455
690,1.147833,593.066
691,1.1495,588.752
692,1.151167,588.752
693,1.152833,584.6319999999999
694,1.1545,580.549
695,1.156167,576.817
696,1.157833,576.817
697,1.1595,572.816
698,1.161167,568.45
699,1.162833,563.979
700,1.1645,563.979
701,1.166183,559.606
702,1.167833,555.359
703,1.1695,551.462
704,1.171167,551.462
705,1.17285,547.647
706,1.174483,543.654
707,1.17615,543.654
708,1.177817,539.675
709,1.179483,535.972
710,1.18115,532.545
711,1.182867,532.545
712,1.184483,529.289
713,1.18615,526.1
714,1.187817,522.8440000000001
715,1.189517,522.8440000000001
716,1.19115,519.372
717,1.192817,515.796
718,1.194483,512.309
719,1.19615,512.309
720,1.197817,508.539
721,1.19955,505.038
722,1.20115,501.536
723,1.202817,501.536
724,1.204483,498.146
725,1.20615,494.897
726,1.207817,494.897
727,1.209483,491.701
728,1.21115,488.251
729,1.212817,485.122
730,1.214483,485.122
731,1.216233,481.881
732,1.217817,478.543
733,1.219467,475.869
734,1.221133,475.869
735,1.2228,472.717
736,1.224467,469.707
737,1.226133,466.809
738,1.2278,466.809
739,1.229467,463.761
740,1.231133,460.967
741,1.232783,460.967
742,1.23445,458.062
743,1.236117,455.067
744,1.237783,452.124
745,1.23945,452.124
746,1.241117,449.136
747,1.242783,446.528
748,1.24445,444.151
749,1.246117,444.151
750,1.247783,441.544
751,1.24945,439.152
752,1.251117,436.433
753,1.252783,436.433
754,1.25445,433.572
755,1.256117,430.778
756,1.257783,430.778
757,1.25945,427.835
758,1.261117,425.428
759,1.2628,422.969
760,1.26445,422.969
761,1.266117,420.63
762,1.267783,418.134
763,1.26945,415.534
764,1.271117,415.534
765,1.272783,413.112
766,1.27445,410.691
767,1.276117,408.694
768,1.277783,408.694
769,1.27945,406.265
770,1.281117,403.911
771,1.282783,401.653
772,1.28445,401.653
773,1.286117,399.262
774,1.287783,397.019
775,1.28945,397.019
776,1.291117,394.769
777,1.292767,392.571
778,1.294433,390.343
779,1.2961,390.343
780,1.297767,388.242
781,1.299433,385.97
782,1.30115,383.727
783,1.302767,383.727
784,1.304433,381.477
785,1.3061,379.615
786,1.307767,377.581
787,1.309433,377.581
788,1.3111,375.465
789,1.312767,373.773
790,1.314433,373.773
791,1.3161,371.762
792,1.317783,370.011
793,1.319433,368.111
794,1.3211,368.111
795,1.322767,366.181
796,1.324433,364.423
797,1.3261,362.493
798,1.327767,362.493
799,1.329433,360.541
800,1.3311,358.596
801,1.332767,356.458
802,1.334517,356.458
803,1.3361,354.752
804,1.337767,352.934
805,1.339467,351.31
806,1.3411,351.31
807,1.342767,349.812
808,1.344433,347.927
809,1.3461,347.927
810,1.347767,346.601
811,1.349433,344.612
812,1.3511,342.682
813,1.35275,342.682
814,1.354417,341.013
815,1.356083,339.173
816,1.35775,337.631
817,1.359417,337.631
818,1.361083,336.051
819,1.36275,334.218
820,1.364417,332.698
821,1.366083,332.698
822,1.36775,330.918
823,1.369417,329.308
824,1.371083,329.308
825,1.37275,328.124
826,1.374417,326.343
827,1.376083,325.002
828,1.37775,325.002
829,1.379417,323.296
830,1.381083,321.433
831,1.38275,319.98
832,1.384417,319.98
833,1.386083,318.535
834,1.38775,317.216
835,1.389417,315.912
836,1.391083,315.912
837,1.39275,314.72
838,1.394417,313.185
839,1.3961,312.053
840,1.39775,312.053
841,1.399417,310.622
842,1.401083,309.236
843,1.40275,309.236
844,1.404417,307.851
845,1.406083,306.226
846,1.40775,305.235
847,1.409417,305.235
848,1.411083,304.066
849,1.412733,302.881
850,1.4144,301.741
851,1.4161,301.741
852,1.417733,300.273
853,1.419483,298.843
854,1.421067,297.718
855,1.422733,297.718
856,1.4244,296.243
857,1.426067,295.065
858,1.427733,295.065
859,1.4294,293.963
860,1.431067,292.577
861,1.432733,291.668
862,1.4344,291.668
863,1.436067,290.468
864,1.437733,289.172
865,1.4394,288.159
866,1.441067,288.159
867,1.442733,286.937
868,1.4444,285.73
869,1.446067,284.649
870,1.447733,284.649
871,1.4494,283.413
872,1.451067,282.615
873,1.45285,281.632
874,1.4544,281.632
875,1.456067,280.388
876,1.457733,279.419
877,1.4594,279.419
878,1.461067,278.078
879,1.462733,276.774
880,1.4644,275.739
881,1.466067,275.739
882,1.467733,274.673
883,1.4694,273.541
884,1.471067,272.781
885,1.472717,272.781
886,1.474383,271.782
887,1.47605,270.642
888,1.477717,269.927
889,1.479383,269.927
890,1.481067,268.936
891,1.482717,268.05
892,1.484383,268.05
893,1.48605,267.118
894,1.487717,265.911
895,1.489383,265.054
896,1.49105,265.054
897,1.492717,264.011
898,1.494383,263.318
899,1.49605,262.365
900,1.497717,262.365
901,1.499383,261.217
902,1.501067,260.443
903,1.502717,259.407
904,1.504383,259.407
905,1.50605,258.557
906,1.507717,257.879
907,1.509367,257.879
908,1.511033,257.067
909,1.5127,256.188
910,1.514367,255.57
911,1.516033,255.57
912,1.5177,254.765
913,1.519367,253.901
914,1.521033,253.297
915,1.5227,253.297
916,1.524367,252.143
917,1.526033,250.988
918,1.5277,250.041
919,1.529367,250.041
920,1.531033,248.753
921,1.532683,247.896
922,1.53435,247.195
923,1.536017,247.195
924,1.537767,246.421
925,1.53935,245.638
926,1.541017,245.638
927,1.542683,245.057
928,1.54435,244.349
929,1.546017,243.716
930,1.5477,243.716
931,1.54935,243.105
932,1.551017,242.561
933,1.552683,241.786
934,1.55435,241.786
935,1.556017,241.138
