"ID","sea_time","fid_signal"
1,0,1303.405
2,0.001667,1307.651
3,0.003333,1306.757
4,0.005,1306.757
5,0.006683,1306.608
6,0.008333,1301.244
7,0.01,1284.629
8,0.011667,1284.629
9,0.013333,1269.504
10,0.015,1258.254
11,0.016667,1256.54
12,0.018317,1256.54
13,0.019983,1264.885
14,0.02165,1276.657
15,0.023317,1276.657
16,0.024983,1284.182
17,0.02665,1286.492
18,0.028317,1288.652
19,0.029983,1288.652
20,0.03165,1287.982
21,0.033317,1287.535
22,0.035033,1291.856
23,0.03665,1291.856
24,0.038317,1291.484
25,0.039983,1292.378
26,0.04165,1293.197
27,0.043317,1293.197
28,0.044983,1290.813
29,0.04665,1295.805
30,0.048317,1298.562
31,0.049983,1298.562
32,0.051717,1297.891
33,0.053317,1295.88
34,0.054983,1295.88
35,0.05665,1294.762
36,0.058317,1292.75
37,0.059967,1293.346
38,0.061633,1293.346
39,0.0633,1295.432
40,0.064967,1293.793
41,0.066633,1292.229
42,0.0684,1292.229
43,0.069967,1291.484
44,0.071633,1292.899
45,0.0733,1296.327
46,0.07496700000000001,1296.327
47,0.07663300000000001,1301.542
48,0.07828300000000001,1305.789
49,0.07994999999999999,1305.789
50,0.081617,1304.82
51,0.083283,1305.64
52,0.08495,1303.181
53,0.086617,1303.181
54,0.088283,1300.35
55,0.08995,1300.275
56,0.091617,1295.507
57,0.093283,1295.507
58,0.09495000000000001,1293.644
59,0.09661699999999999,1295.581
60,0.098283,1296.401
61,0.09995,1296.401
62,0.101633,1298.785
63,0.103283,1304.299
64,0.10495,1305.416
65,0.106617,1305.416
66,0.108283,1305.267
67,0.10995,1304.15
68,0.111617,1304.15
69,0.113283,1301.244
70,0.11495,1297.742
71,0.116617,1300.201
72,0.118283,1300.201
73,0.11995,1303.479
74,0.121617,1302.436
75,0.123283,1299.977
76,0.12495,1299.977
77,0.126617,1295.283
78,0.128283,1291.931
79,0.12995,1294.836
80,0.131617,1294.836
81,0.133283,1297.891
82,0.13495,1302.585
83,0.136617,1302.585
84,0.138283,1303.554
85,0.139933,1302.063
86,0.1416,1303.032
87,0.143267,1303.032
88,0.144933,1301.095
89,0.1466,1303.554
90,0.148267,1305.267
91,0.149933,1305.267
92,0.1516,1305.938
93,0.153283,1306.832
94,0.154933,1304.373
95,0.1566,1304.373
96,0.158267,1301.765
97,0.159933,1299.605
98,0.1616,1297.146
99,0.163267,1297.146
100,0.164933,1293.421
101,0.1666,1292.974
102,0.168283,1292.974
103,0.16995,1292.229
104,0.1716,1292.08
105,0.173267,1294.613
106,0.174933,1294.613
107,0.1766,1294.538
108,0.178267,1295.283
109,0.179933,1296.997
110,0.1816,1296.997
111,0.183267,1298.785
112,0.184933,1300.201
113,0.186683,1303.107
114,0.188267,1303.107
115,0.189933,1302.808
116,0.1916,1301.691
117,0.193267,1301.691
118,0.194933,1296.55
119,0.1966,1291.782
120,0.198267,1289.323
121,0.199917,1289.323
122,0.201583,1286.715
123,0.20325,1291.409
124,0.20495,1290.515
125,0.206583,1290.515
126,0.20825,1291.409
127,0.209917,1294.464
128,0.211583,1295.432
129,0.21325,1295.432
130,0.214917,1297.221
131,0.216583,1297.742
132,0.21825,1297.742
133,0.219917,1298.562
134,0.221583,1296.848
135,0.22325,1300.424
136,0.224917,1300.424
137,0.226583,1300.946
138,0.22825,1297.891
139,0.229917,1297.072
140,0.231583,1297.072
141,0.23325,1294.315
142,0.234917,1295.283
143,0.236583,1296.848
144,0.23825,1296.848
145,0.239917,1298.338
146,0.241583,1297.295
147,0.24325,1297.295
148,0.244917,1297.295
149,0.246583,1296.401
150,0.24825,1295.06
151,0.249917,1295.06
152,0.251583,1296.401
153,0.25325,1294.762
154,0.254917,1295.656
155,0.256583,1295.656
156,0.258233,1299.307
157,0.259933,1297.519
158,0.261567,1298.189
159,0.263233,1298.189
160,0.2649,1297.593
161,0.266567,1294.836
162,0.268233,1295.88
163,0.2699,1295.88
164,0.271667,1294.538
165,0.273233,1293.346
166,0.2749,1293.346
167,0.276567,1291.633
168,0.278233,1290.739
169,0.2799,1289.174
170,0.281567,1289.174
171,0.283233,1287.088
172,0.2849,1288.429
173,0.286567,1291.037
174,0.288233,1291.037
175,0.2899,1293.346
176,0.291567,1295.73
177,0.293233,1293.793
178,0.2949,1293.793
179,0.296567,1292.303
180,0.298233,1293.048
181,0.2999,1294.24
182,0.301567,1294.24
183,0.303233,1298.487
184,0.305017,1298.413
185,0.306567,1298.413
186,0.308233,1298.189
187,0.3099,1297.444
188,0.311567,1295.06
189,0.313233,1295.06
190,0.3149,1292.899
191,0.316567,1290.962
192,0.318217,1293.942
193,0.319883,1293.942
194,0.32155,1294.762
195,0.323217,1295.805
196,0.324883,1294.985
197,0.32655,1294.985
198,0.328217,1292.825
199,0.329883,1293.719
200,0.33155,1293.719
201,0.333217,1298.413
202,0.334883,1300.275
203,0.33655,1299.083
204,0.338217,1299.083
205,0.339883,1294.911
206,0.34155,1294.166
207,0.343217,1296.103
208,0.344917,1296.103
209,0.34655,1299.754
210,0.348217,1303.107
211,0.349867,1302.063
212,0.351533,1302.063
213,0.3532,1304.373
214,0.354867,1302.51
215,0.356533,1304.448
216,0.3582,1304.448
217,0.359867,1308.62
218,0.361533,1311.6
219,0.3632,1311.6
220,0.364867,1317.859
221,0.366533,1322.105
222,0.3682,1326.129
223,0.369867,1326.129
224,0.371533,1329.184
225,0.3732,1329.854
226,0.374867,1334.921
227,0.376533,1334.921
228,0.3782,1339.242
229,0.37985,1343.638
230,0.381517,1349.002
231,0.383183,1349.002
232,0.38485,1351.982
233,0.386517,1356.304
234,0.388183,1356.304
235,0.389867,1362.19
236,0.391517,1371.205
237,0.393183,1383.424
238,0.39485,1383.424
239,0.396517,1394.153
240,0.398183,1403.54
241,0.39985,1412.481
242,0.401517,1412.481
243,0.403183,1416.504
244,0.40485,1422.241
245,0.406567,1430.735
246,0.408183,1430.735
247,0.40985,1438.335
248,0.411517,1447.35
249,0.413183,1447.35
250,0.41485,1451.299
251,0.41655,1454.428
252,0.4182,1456.067
253,0.41985,1456.067
254,0.421517,1455.098
255,0.423283,1456.291
256,0.42485,1457.036
257,0.426517,1457.036
258,0.428183,1459.047
259,0.42985,1461.506
260,0.431517,1467.019
261,0.433183,1467.019
262,0.43485,1465.38
263,0.436517,1464.412
264,0.438183,1467.019
265,0.439833,1467.019
266,0.4415,1463.965
267,0.443167,1461.133
268,0.444833,1461.133
269,0.4465,1458.6
270,0.448167,1450.777
271,0.449833,1446.158
272,0.4515,1446.158
273,0.453167,1444.817
274,0.454833,1441.166
275,0.4565,1439.154
276,0.458167,1439.154
277,0.459833,1433.566
278,0.4615,1427.01
279,0.463167,1422.092
280,0.464833,1422.092
281,0.4665,1414.567
282,0.468167,1409.501
283,0.469833,1409.501
284,0.4715,1406.893
285,0.473167,1401.231
286,0.474833,1397.729
287,0.4765,1397.729
288,0.478167,1391.694
289,0.479833,1385.734
290,0.4815,1383.051
291,0.483217,1383.051
292,0.484833,1378.059
293,0.4865,1374.93
294,0.488167,1369.566
295,0.489833,1369.566
296,0.4915,1366.138
297,0.493167,1364.35
298,0.494833,1360.923
299,0.496483,1360.923
300,0.498167,1359.284
301,0.499817,1351.684
302,0.501483,1351.684
303,0.50315,1349.226
304,0.504817,1346.543
305,0.506483,1344.83
306,0.5081830000000001,1344.83
307,0.509817,1342.818
308,0.511483,1338.124
309,0.51315,1335.07
310,0.514817,1335.07
311,0.516483,1332.015
312,0.51815,1329.631
313,0.519817,1325.086
314,0.521483,1325.086
315,0.52315,1323.67
316,0.524817,1322.925
317,0.526483,1322.925
318,0.52815,1321.51
319,0.529817,1325.011
320,0.531483,1326.427
321,0.53315,1326.427
322,0.534817,1325.384
323,0.536483,1327.843
324,0.53815,1325.309
325,0.539817,1325.309
326,0.541617,1325.309
327,0.54315,1327.917
328,0.544817,1331.344
329,0.5464830000000001,1331.344
330,0.54815,1332.909
331,0.549817,1337.901
332,0.5514829999999999,1340.881
333,0.55315,1340.881
334,0.554817,1343.638
335,0.5564829999999999,1349.971
336,0.55815,1349.971
337,0.5598,1347.288
338,0.561467,1347.438
339,0.563133,1343.638
340,0.5648,1343.638
341,0.5664670000000001,1343.563
342,0.568133,1347.81
343,0.5698,1349.077
344,0.571483,1349.077
345,0.573133,1353.696
346,0.5748,1354.441
347,0.576467,1352.206
348,0.578133,1352.206
349,0.5798,1352.802
350,0.581467,1349.747
351,0.583133,1349.747
352,0.5848,1346.245
353,0.586467,1344.308
354,0.588133,1339.316
355,0.5898,1339.316
356,0.591467,1339.391
357,0.593133,1337.975
358,0.5948,1335.07
359,0.596467,1335.07
360,0.598133,1334.921
361,0.5998,1333.132
362,0.601467,1332.983
363,0.603133,1332.983
364,0.6048,1331.344
365,0.606467,1329.035
366,0.608133,1328.588
367,0.6098,1328.588
368,0.611467,1329.333
369,0.613133,1331.344
370,0.6148,1331.344
371,0.616467,1334.995
372,0.618117,1340.434
373,0.619783,1349.822
374,0.6214499999999999,1349.822
375,0.623117,1361.668
376,0.624817,1376.867
377,0.626483,1391.843
378,0.628117,1391.843
379,0.629783,1408.011
380,0.63145,1428.872
381,0.633117,1453.161
382,0.634783,1453.161
383,0.63645,1486.689
384,0.638117,1530.796
385,0.639783,1530.796
386,0.641433,1580.864
387,0.6431,1639.947
388,0.644767,1706.63
389,0.646433,1706.63
390,0.6481,1777.858
391,0.649767,1862.496
392,0.651433,1958.087
393,0.6531,1958.087
394,0.654767,2062.023
395,0.656433,2176.762
396,0.6581,2301.037
397,0.659833,2301.037
398,0.661433,2434.775
399,0.6631,2578.497
400,0.664767,2578.497
401,0.6664330000000001,2731.01
402,0.6681,2892.539
403,0.669767,3063.381
404,0.6714329999999999,3063.381
405,0.6731,3240.555
406,0.6748,3427.714
407,0.676433,3623.217
408,0.6781,3623.217
409,0.67975,3820.062
410,0.6814170000000001,4024.357
411,0.683083,4235.208
412,0.68475,4235.208
413,0.6864170000000001,4451.35
414,0.688083,4673.079
415,0.68975,4900.62
416,0.6914169999999999,4900.62
417,0.693083,5127.788
418,0.69475,5353.466
419,0.69645,5353.466
420,0.698083,5579.889
421,0.69975,5810.037
422,0.701417,6041.452
423,0.703083,6041.452
424,0.70475,6276.146
425,0.706417,6516.576
426,0.708083,6754.622
427,0.70975,6754.622
428,0.711417,6993.711
429,0.713083,7232.8
430,0.71475,7468.388
431,0.716417,7468.388
432,0.718083,7702.932
433,0.71975,7935.837
434,0.721417,7935.837
435,0.723083,8170.009
436,0.72475,8402.316999999999
437,0.726417,8634.553
438,0.728083,8634.553
439,0.72975,8865.223
440,0.731417,9094.253000000001
441,0.733083,9323.209999999999
442,0.73475,9323.209999999999
443,0.736417,9550.154
444,0.738083,9775.459999999999
445,0.739733,9994.805
446,0.7413999999999999,9994.805
447,0.743067,10213.405
448,0.744817,10429.174
449,0.746417,10644.421
450,0.748067,10644.421
451,0.749733,10862.499
452,0.7514,11073.351
453,0.753067,11073.351
454,0.754733,11283.979
455,0.7564,11489.168
456,0.758067,11690.855
457,0.759733,11690.855
458,0.7614,11894.33
459,0.7630670000000001,12093.187
460,0.764783,12293.384
461,0.7664,12293.384
462,0.7680670000000001,12488.067
463,0.769733,12677.685
464,0.7714,12863.874
465,0.7730669999999999,12863.874
466,0.774733,13045.147
467,0.7764,13225.823
468,0.77815,13404.34
469,0.779733,13404.34
470,0.7814,13576.895
471,0.783067,13747.438
472,0.784733,13747.438
473,0.7864,13912.32
474,0.788067,14074.072
475,0.789733,14232.248
476,0.7914,14232.248
477,0.793067,14384.091
478,0.794833,14531.464
479,0.7964,14672.503
480,0.79805,14672.503
481,0.799717,14812.723
482,0.801383,14946.088
483,0.80305,14946.088
484,0.804717,15069.32
485,0.806383,15190.467
486,0.80805,15302.301
487,0.809717,15302.301
488,0.811383,15404.299
489,0.8130500000000001,15501.604
490,0.814717,15586.093
491,0.816383,15586.093
492,0.8180500000000001,15656.277
493,0.819717,15721.619
494,0.821383,15768.707
495,0.8230499999999999,15768.707
496,0.824717,15800.744
497,0.826383,15819.296
498,0.82805,15818.402
499,0.829717,15818.402
500,0.831383,15801.713
501,0.83305,15761.331
502,0.834717,15761.331
503,0.836383,15698.522
504,0.83805,15610.158
505,0.839733,15493.93
506,0.841383,15493.93
507,0.84305,15350.654
508,0.8447170000000001,15174.746
509,0.846383,14964.938
510,0.84805,14964.938
511,0.8497169999999999,14723.837
512,0.851383,14451.37
513,0.85305,14145.971
514,0.8547169999999999,14145.971
515,0.856383,13811.066
516,0.85805,13455.823
517,0.8597,13455.823
518,0.861367,13078.675
519,0.8630330000000001,12695.491
520,0.8647,12309.029
521,0.866367,12309.029
522,0.8680330000000001,11919.588
523,0.8697,11537.224
524,0.871367,11163.131
525,0.8730329999999999,11163.131
526,0.8747,10802.671
527,0.876367,10460.689
528,0.878033,10140.017
529,0.87975,10140.017
530,0.881367,9841.695
531,0.883033,9559.84
532,0.8847,9296.909
533,0.886367,9296.909
534,0.888033,9048.507
535,0.8897,8817.688
536,0.891367,8817.688
537,0.893033,8606.464
538,0.8947000000000001,8409.471
539,0.896417,8227.378000000001
540,0.898033,8227.378000000001
541,0.8997000000000001,8052.29
542,0.901367,7886.812
543,0.903033,7730.573
544,0.9046999999999999,7730.573
545,0.906367,7582.456
546,0.908033,7445.142
547,0.9097,7316.843
548,0.911367,7316.843
549,0.913133,7195.324
550,0.9147,7078.275
551,0.9163829999999999,7078.275
552,0.91805,6966.591
553,0.919683,6856.322
554,0.92135,6752.014
555,0.923017,6752.014
556,0.924683,6655.827
557,0.92635,6559.938
558,0.928017,6470.829
559,0.929683,6470.829
560,0.93135,6385.595
561,0.9330000000000001,6302.968
562,0.934667,6224.438
563,0.936333,6224.438
564,0.9379999999999999,6147.176
565,0.939667,6067.529
566,0.941333,5993.917
567,0.9429999999999999,5993.917
568,0.944667,5922.094
569,0.946333,5850.941
570,0.948,5850.941
571,0.949667,5787.089
572,0.951333,5721.301
573,0.953,5657.896
574,0.954667,5657.896
575,0.956333,5600.154
576,0.958,5537.719
577,0.959667,5479.529
578,0.961333,5479.529
579,0.963,5420.595
580,0.9646670000000001,5362.034
581,0.966333,5307.57
582,0.968,5307.57
583,0.9696669999999999,5253.479
584,0.971333,5205.944
585,0.973,5205.944
586,0.974667,5157.068
587,0.976333,5111.247
588,0.977983,5063.787
589,0.97965,5063.787
590,0.981383,5015.507
591,0.98305,4971.624
592,0.98465,4925.951
593,0.986317,4925.951
594,0.9879829999999999,4881.621
595,0.98965,4839.45
596,0.991317,4798.1
597,0.9929829999999999,4798.1
598,0.99465,4759.729
599,0.996317,4720.613
600,0.998017,4682.914
601,0.99965,4682.914
602,1.001317,4644.468
603,1.002983,4607.141
604,1.00465,4607.141
605,1.006317,4570.037
606,1.007983,4531.518
607,1.00965,4497.99
608,1.011317,4497.99
609,1.012983,4462.823
610,1.014683,4430.935
611,1.016317,4399.344
612,1.017983,4399.344
613,1.01965,4366.934
614,1.021317,4335.418
615,1.022983,4304.647
616,1.02465,4304.647
617,1.026317,4275.143
618,1.027983,4245.788
619,1.02965,4245.788
620,1.031383,4216.879
621,1.032983,4187.673
622,1.03465,4159.287
623,1.036317,4159.287
624,1.037967,4127.994
625,1.039633,4100.8
626,1.0413,4071.891
627,1.042967,4071.891
628,1.044633,4045.367
629,1.0463,4020.557
630,1.047967,3994.852
631,1.049633,3994.852
632,1.0513,3971.085
633,1.052967,3945.827
634,1.054633,3945.827
635,1.056317,3923.55
636,1.058033,3898.218
637,1.059633,3875.196
638,1.0613,3875.196
639,1.062967,3852.025
640,1.064633,3828.779
641,1.0663,3806.502
642,1.067967,3806.502
643,1.069633,3784.895
644,1.0713,3765.225
645,1.072967,3743.395
646,1.074633,3743.395
647,1.0763,3724.769
648,1.077967,3704.354
649,1.079633,3682.002
650,1.0813,3682.002
651,1.082967,3660.47
652,1.084633,3637.969
653,1.0863,3637.969
654,1.087967,3617.778
655,1.089633,3600.791
656,1.0913,3584.176
657,1.092967,3584.176
658,1.094633,3568.903
659,1.096283,3550.202
660,1.09795,3530.234
661,1.099617,3530.234
662,1.101283,3509.745
663,1.10295,3491.64
664,1.104617,3477.186
665,1.106283,3477.186
666,1.10795,3461.763
667,1.109617,3445.223
668,1.111283,3445.223
669,1.11295,3429.8
670,1.114617,3413.633
671,1.116333,3398.88
672,1.11795,3398.88
673,1.119617,3382.787
674,1.121283,3364.086
675,1.12295,3347.322
676,1.124617,3347.322
677,1.126283,3328.994
678,1.12795,3316.104
679,1.12965,3300.086
680,1.1313,3300.086
681,1.13295,3285.035
682,1.134617,3270.73
683,1.136283,3252.7
684,1.13795,3252.7
685,1.139617,3241.077
686,1.141283,3224.984
687,1.14295,3224.984
688,1.144617,3211.424
689,1.146283,3200.397
690,1.14795,3186.613
691,1.149717,3186.613
692,1.151283,3175.885
693,1.15295,3161.207
694,1.154617,3146.008
695,1.156283,3146.008
696,1.157933,3129.169
697,1.1596,3114.492
698,1.161267,3100.485
699,1.162933,3100.485
700,1.1646,3086.999
701,1.166267,3075.525
702,1.167933,3075.525
703,1.1696,3062.859
704,1.171267,3051.907
705,1.172933,3041.849
706,1.1746,3041.849
707,1.176267,3031.045
708,1.177933,3018.379
709,1.1796,3006.235
710,1.181267,3006.235
711,1.182933,2992.526
712,1.1846,2981.797
713,1.186267,2973.154
714,1.187933,2973.154
715,1.1896,2962.872
716,1.191267,2955.645
717,1.192933,2946.258
718,1.1946,2946.258
719,1.196267,2934.411
720,1.197933,2926.29
721,1.1996,2926.29
722,1.201267,2916.902
723,1.20295,2904.832
724,1.2046,2897.158
725,1.206267,2897.158
726,1.207933,2885.535
727,1.2096,2874.434
728,1.211267,2865.27
729,1.212933,2865.27
730,1.2146,2853.051
731,1.216267,2845.377
732,1.217917,2836.138
733,1.219583,2836.138
734,1.22125,2826.229
735,1.2229,2818.257
736,1.224567,2818.257
737,1.226233,2808.198
738,1.2279,2797.097
739,1.229567,2787.709
740,1.231233,2787.709
741,1.2329,2776.31
742,1.234617,2766.55
743,1.236233,2758.056
744,1.2379,2758.056
745,1.239567,2750.009
746,1.241233,2743.006
747,1.2429,2734.959
748,1.244567,2734.959
749,1.246233,2729.222
750,1.2479,2722.293
751,1.249567,2722.293
752,1.251233,2712.682
753,1.2529,2701.134
754,1.254567,2690.628
755,1.256233,2690.628
756,1.2579,2683.848
757,1.259567,2678.931
758,1.261233,2674.535
759,1.2629,2674.535
760,1.264567,2666.861
761,1.266233,2657.324
762,1.2679,2647.862
763,1.269567,2647.862
764,1.271233,2640.486
765,1.2729,2632.737
766,1.274567,2626.628
767,1.276233,2626.628
768,1.2779,2619.997
769,1.27955,2612.472
770,1.28125,2612.472
771,1.282883,2606.437
772,1.28455,2598.315
773,1.286217,2590.641
774,1.287883,2590.641
775,1.28955,2582.371
776,1.291217,2574.176
777,1.292883,2566.576
778,1.29455,2566.576
779,1.296217,2560.615
780,1.297883,2557.337
781,1.29955,2549.291
782,1.301217,2549.291
783,1.302883,2544.746
784,1.30455,2539.679
785,1.306217,2539.679
786,1.307883,2529.919
787,1.30955,2525.374
788,1.311217,2517.998
789,1.312883,2517.998
790,1.31455,2507.791
791,1.316217,2501.905
792,1.317883,2496.466
793,1.31955,2496.466
794,1.321217,2490.133
795,1.322883,2486.11
796,1.32455,2477.616
797,1.326217,2477.616
798,1.327883,2472.177
799,1.32955,2464.652
800,1.331217,2457.723
801,1.332883,2457.723
802,1.33455,2453.774
803,1.336217,2446.771
804,1.337883,2446.771
805,1.339533,2440.885
806,1.3412,2437.01
807,1.342867,2431.72
808,1.344533,2431.72
809,1.34625,2425.387
810,1.347867,2419.874
811,1.349533,2413.69
812,1.3512,2413.69
813,1.352967,2408.251
814,1.354533,2403.93
815,1.3562,2396.33
816,1.357867,2396.33
817,1.359533,2388.284
818,1.3612,2380.61
819,1.362867,2380.61
820,1.364533,2372.488
821,1.3662,2366.9
822,1.367867,2363.25
823,1.369533,2363.25
824,1.3712,2359.45
825,1.372867,2354.979
826,1.374533,2352.074
827,1.3762,2352.074
828,1.377883,2344.996
829,1.379533,2341.792
830,1.3812,2338.514
831,1.382867,2338.514
832,1.384533,2332.702
833,1.386317,2331.585
834,1.387867,2326.071
835,1.389533,2326.071
836,1.3912,2323.836
837,1.392867,2322.57
838,1.394533,2322.57
839,1.3962,2318.546
840,1.397867,2314.299
841,1.399517,2309.754
842,1.401183,2309.754
843,1.40285,2304.018
844,1.404517,2299.771
845,1.406183,2293.959
846,1.40785,2293.959
847,1.409517,2287.03
848,1.411183,2280.325
849,1.41285,2273.917
850,1.414517,2273.917
851,1.416183,2269.447
852,1.41785,2264.083
853,1.419517,2264.083
854,1.421183,2260.432
855,1.42285,2254.769
856,1.424517,2253.726
857,1.426183,2253.726
858,1.42785,2251.118
859,1.429517,2246.425
860,1.431183,2242.029
861,1.43285,2242.029
862,1.434517,2235.845
863,1.436183,2233.088
864,1.43785,2228.096
865,1.439517,2228.096
866,1.441183,2224.52
867,1.44285,2218.783
868,1.444517,2218.783
869,1.446183,2209.917
870,1.44785,2209.172
871,1.449517,2207.16
872,1.451183,2207.16
873,1.45285,2204.552
874,1.454517,2201.125
875,1.456183,2194.494
876,1.45785,2194.494
877,1.4595,2187.192
878,1.461167,2181.828
879,1.462833,2178.252
880,1.4645,2178.252
881,1.466167,2178.326
882,1.467833,2175.57
883,1.4695,2172.217
884,1.471217,2172.217
885,1.472833,2170.503
886,1.4745,2163.872
887,1.476167,2163.872
888,1.477833,2159.7
889,1.4795,2156.571
890,1.481167,2151.653
891,1.482833,2151.653
892,1.4845,2148.971
893,1.486167,2148.002
894,1.4879,2146.587
895,1.4895,2146.587
896,1.491167,2143.159
897,1.492833,2140.254
898,1.4945,2134.666
899,1.496167,2134.666
900,1.497833,2130.568
901,1.4995,2126.992
902,1.501167,2126.992
903,1.502833,2123.266
904,1.504583,2120.808
905,1.506167,2119.094
906,1.507833,2119.094
907,1.5095,2117.604
908,1.511167,2113.357
909,1.512833,2107.62
910,1.514483,2107.62
911,1.51615,2100.021
912,1.5178,2096.742
913,1.519467,2094.433
