"ID","sea_time","fid_signal"
1,0,1193.881
2,0.001667,1194.179
3,0.003333,1194.179
4,0.005,1193.881
5,0.006667,1190.901
6,0.00835,1188.889
7,0.01,1188.889
8,0.011667,1184.866
9,0.013333,1179.725
10,0.015,1180.917
11,0.016667,1180.917
12,0.018333,1182.482
13,0.02,1183.748
14,0.021667,1183.748
15,0.023333,1186.207
16,0.025,1185.536
17,0.026667,1185.462
18,0.028333,1185.462
19,0.03,1188.964
20,0.031667,1190.454
21,0.033333,1190.528
22,0.035,1190.528
23,0.03665,1192.987
24,0.038317,1194.104
25,0.039983,1191.72
26,0.041733,1191.72
27,0.043317,1191.422
28,0.044983,1187.101
29,0.04665,1184.568
30,0.048317,1184.568
31,0.049983,1185.611
32,0.05165,1186.43
33,0.053317,1186.43
34,0.054983,1190.975
35,0.05665,1193.807
36,0.058317,1195.148
37,0.059983,1195.148
38,0.06165,1196.638
39,0.063317,1195.744
40,0.064983,1195.446
41,0.06665,1195.446
42,0.068317,1195.297
43,0.069983,1192.167
44,0.07165000000000001,1192.54
45,0.07331699999999999,1192.54
46,0.07498299999999999,1192.316
47,0.07665,1189.56
48,0.078317,1189.56
49,0.079983,1189.336
50,0.08165,1188.964
51,0.083317,1188.964
52,0.084983,1188.964
53,0.08665,1193.434
54,0.08831700000000001,1198.947
55,0.08998299999999999,1199.543
56,0.09165,1199.543
57,0.09329999999999999,1196.936
58,0.094983,1195.371
59,0.09665,1194.477
60,0.0983,1194.477
61,0.09995,1194.477
62,0.101617,1196.936
63,0.103283,1196.936
64,0.10495,1198.5
65,0.106617,1197.085
66,0.108283,1198.351
67,0.10995,1198.351
68,0.111617,1196.34
69,0.113283,1194.477
70,0.11495,1192.763
71,0.116617,1192.763
72,0.118283,1188.666
73,0.11995,1190.007
74,0.121617,1193.359
75,0.123283,1193.359
76,0.12495,1194.775
77,0.126617,1200.363
78,0.128283,1203.194
79,0.12995,1203.194
80,0.131617,1200.885
81,0.133283,1199.022
82,0.13495,1199.022
83,0.136617,1194.999
84,0.138283,1191.124
85,0.13995,1192.689
86,0.141617,1192.689
87,0.143283,1196.116
88,0.14495,1194.477
89,0.146617,1195.669
90,0.148283,1195.669
91,0.14995,1193.136
92,0.151617,1189.932
93,0.153283,1193.285
94,0.15495,1193.285
95,0.1566,1189.932
96,0.158267,1187.697
97,0.160067,1190.23
98,0.1616,1190.23
99,0.163267,1187.772
100,0.164933,1188.07
101,0.1666,1188.07
102,0.168267,1189.262
103,0.169933,1187.846
104,0.171667,1191.124
105,0.173267,1191.124
106,0.174933,1190.677
107,0.1766,1190.379
108,0.178267,1189.187
109,0.179933,1189.187
110,0.1816,1187.921
111,0.183267,1191.273
112,0.184933,1192.242
113,0.1866,1192.242
114,0.188267,1192.465
115,0.189933,1189.634
116,0.1916,1189.634
117,0.193267,1186.207
118,0.194933,1188.07
119,0.1966,1188.889
120,0.198267,1188.889
121,0.199933,1191.497
122,0.2016,1195.073
123,0.203267,1194.03
124,0.204933,1194.03
125,0.2066,1193.359
126,0.208267,1192.912
127,0.209933,1191.72
128,0.2116,1191.72
129,0.213267,1194.104
130,0.214933,1195.669
131,0.216583,1195.669
132,0.21825,1193.881
133,0.219917,1190.23
134,0.221583,1185.834
135,0.22325,1185.834
136,0.224917,1186.43
137,0.226583,1187.399
138,0.22825,1189.634
139,0.229917,1189.634
140,0.231583,1191.869
141,0.23325,1190.156
142,0.234917,1192.54
143,0.236583,1192.54
144,0.238283,1195.371
145,0.23995,1197.457
146,0.241583,1200.065
147,0.24325,1200.065
148,0.244967,1198.202
149,0.246583,1194.701
150,0.24825,1194.701
151,0.249917,1192.093
152,0.251583,1190.975
153,0.25325,1189.485
154,0.254917,1189.485
155,0.256583,1189.336
156,0.25825,1186.058
157,0.259917,1183.748
158,0.261583,1183.748
159,0.26325,1186.43
160,0.264917,1186.505
161,0.266583,1189.858
162,0.26825,1189.858
163,0.269917,1189.038
164,0.271583,1189.783
165,0.27325,1189.783
166,0.2749,1191.869
167,0.276567,1189.411
168,0.278283,1192.763
169,0.2799,1192.763
170,0.281567,1190.007
171,0.283233,1188.815
172,0.2849,1191.05
173,0.286567,1191.05
174,0.288233,1192.093
175,0.2899,1194.701
176,0.291567,1193.956
177,0.293233,1193.956
178,0.2949,1194.924
179,0.296567,1192.465
180,0.298233,1190.677
181,0.2999,1190.677
182,0.301583,1194.85
183,0.303233,1196.265
184,0.3049,1196.265
185,0.306567,1196.563
186,0.308233,1193.881
187,0.3099,1190.752
188,0.311567,1190.752
189,0.31325,1186.579
190,0.3149,1188.442
191,0.316567,1192.465
192,0.318233,1192.465
193,0.3199,1191.795
194,0.321567,1193.881
195,0.323233,1193.285
196,0.3249,1193.285
197,0.326567,1190.007
198,0.328233,1190.752
199,0.3299,1190.752
200,0.331567,1191.571
201,0.333233,1188.442
202,0.334883,1192.465
203,0.336567,1192.465
204,0.338217,1195.073
205,0.339883,1193.136
206,0.34155,1193.807
207,0.343217,1193.807
208,0.344883,1189.783
209,0.34655,1189.336
210,0.348217,1191.422
211,0.349883,1191.422
212,0.35155,1194.328
213,0.353217,1198.426
214,0.354883,1198.426
215,0.35655,1197.085
216,0.358217,1195.073
217,0.359883,1193.509
218,0.36155,1193.509
219,0.363267,1189.709
220,0.364883,1190.156
221,0.36655,1189.485
222,0.368217,1189.485
223,0.369883,1186.803
224,0.37155,1189.858
225,0.373217,1190.454
226,0.374883,1190.454
227,0.37655,1192.242
228,0.378217,1195.818
229,0.379933,1196.787
230,0.381567,1196.787
231,0.383217,1197.532
232,0.384883,1200.512
233,0.38655,1200.512
234,0.388217,1203.641
235,0.389883,1204.014
236,0.391533,1207.069
237,0.3932,1207.069
238,0.39485,1208.261
239,0.39665,1206.1
240,0.398183,1207.888
241,0.39985,1207.888
242,0.401517,1208.037
243,0.403183,1209.825
244,0.40485,1215.786
245,0.406517,1215.786
246,0.408183,1221.523
247,0.40985,1225.024
248,0.411517,1225.024
249,0.413183,1225.77
250,0.41485,1225.099
251,0.416517,1223.907
252,0.418183,1223.907
253,0.41985,1225.323
254,0.421517,1227.409
255,0.423183,1229.495
256,0.42485,1229.495
257,0.426517,1229.793
258,0.428183,1230.985
259,0.42985,1228.526
260,0.431517,1228.526
261,0.433183,1225.919
262,0.43485,1224.354
263,0.436517,1222.119
264,0.438183,1222.119
265,0.43985,1222.342
266,0.441517,1222.417
267,0.443183,1222.417
268,0.44485,1222.566
269,0.446517,1224.205
270,0.448183,1227.111
271,0.44985,1227.111
272,0.451517,1230.165
273,0.453183,1229.197
274,0.45485,1228.377
275,0.4565,1228.377
276,0.458167,1228.079
277,0.459833,1225.173
278,0.4615,1226.664
279,0.463167,1226.664
280,0.464833,1225.844
281,0.466517,1227.781
282,0.468167,1227.781
283,0.469833,1234.04
284,0.4715,1238.808
285,0.473167,1245.067
286,0.474833,1245.067
287,0.476517,1253.858
288,0.478167,1273.304
289,0.479833,1306.385
290,0.481533,1306.385
291,0.483167,1356.378
292,0.484833,1430.437
293,0.4865,1532.212
294,0.488167,1532.212
295,0.489833,1676.083
296,0.4915,1869.202
297,0.493167,2121.776
298,0.494833,2121.776
299,0.4965,2446.547
300,0.498167,2850.965
301,0.499833,2850.965
302,0.5014999999999999,3342.479
303,0.503167,3922.805
304,0.504833,4590.005
305,0.5065,4590.005
306,0.508167,5341.619
307,0.509833,6174.371
308,0.5115,7083.491
309,0.513167,7083.491
310,0.51495,8060.857
311,0.516483,9095.594999999999
312,0.51815,10180.25
313,0.519817,10180.25
314,0.521483,11302.456
315,0.52315,12457.669
316,0.524817,12457.669
317,0.526483,13639.629
318,0.5281670000000001,14837.607
319,0.529817,16048.774
320,0.531483,16048.774
321,0.53315,17256.439
322,0.534817,18455.908
323,0.536483,19642.785
324,0.53815,19642.785
325,0.539817,20804.256
326,0.541483,21933.838
327,0.54315,23024.977
328,0.544817,23024.977
329,0.5464830000000001,24065.748
330,0.54815,25049.002
331,0.549817,25049.002
332,0.5514829999999999,25965.795
333,0.55315,26804.432
334,0.554817,27558.506
335,0.5565,27558.506
336,0.55815,28212.965
337,0.559817,28759.24
338,0.561483,29185.041
339,0.56315,29185.041
340,0.564817,29482.32
341,0.566483,29649.287
342,0.56815,29675.588
343,0.569817,29675.588
344,0.571483,29566.438
345,0.573133,29316.693
346,0.5748,28936.043
347,0.576467,28936.043
348,0.578133,28437.748
349,0.5798,27823.598
350,0.581467,27823.598
351,0.583133,27116.016
352,0.5848,26330.5
353,0.586467,25490.373
354,0.588133,25490.373
355,0.5898,24623.051
356,0.591467,23740.68
357,0.593133,22857.486
358,0.5948,22857.486
359,0.596467,21985.918
360,0.598133,21133.125
361,0.5998,20310.879
362,0.601467,20310.879
363,0.603133,19526.631
364,0.6048,18777.176
365,0.606467,18777.176
366,0.608133,18064.826
367,0.6098,17391.07
368,0.611467,16753.449
369,0.613133,16753.449
370,0.6148,16153.082
371,0.616533,15593.842
372,0.618133,15064.255
373,0.6198,15064.255
374,0.621467,14564.544
375,0.623133,14097.542
376,0.6248,13652.816
377,0.626467,13652.816
378,0.6281330000000001,13235.658
379,0.6298,12841.97
380,0.631467,12471.452
381,0.6331830000000001,12471.452
382,0.6348,12121.2
383,0.63645,11789.054
384,0.63815,11789.054
385,0.639783,11475.607
386,0.64145,11175.274
387,0.643117,10893.419
388,0.644783,10893.419
389,0.64645,10626.465
390,0.6481170000000001,10368.079
391,0.649917,10123.327
392,0.65145,10123.327
393,0.6531169999999999,9887.367
394,0.654783,9662.583000000001
395,0.65645,9452.477999999999
396,0.658117,9452.477999999999
397,0.659783,9254.291999999999
398,0.66145,9063.035
399,0.663117,9063.035
400,0.664783,8882.284
401,0.666467,8708.313
402,0.668117,8539.781000000001
403,0.669783,8539.781000000001
404,0.67145,8380.785
405,0.673117,8224.994000000001
406,0.674783,8076.429
407,0.67645,8076.429
408,0.678117,7933.155
409,0.679783,7792.935
410,0.681433,7655.323
411,0.6831,7655.323
412,0.684767,7525.161
413,0.686433,7397.682
414,0.6881,7397.682
415,0.689767,7274.821
416,0.691433,7161.125
417,0.6931,7047.951
418,0.694767,7047.951
419,0.696417,6941.408
420,0.698083,6838.739
421,0.69975,6737.784
422,0.701417,6737.784
423,0.703083,6640.479
424,0.70475,6547.421
425,0.706417,6456.45
426,0.708083,6456.45
427,0.70975,6370.47
428,0.711417,6282.404
429,0.713083,6195.083
430,0.71475,6195.083
431,0.716417,6112.158
432,0.71815,6032.064
433,0.71975,6032.064
434,0.721417,5959.272
435,0.723083,5887.151
436,0.72475,5814.135
437,0.726417,5814.135
438,0.728083,5740.821
439,0.72975,5671.531
440,0.731417,5605.519
441,0.733083,5605.519
442,0.7348170000000001,5540.699
443,0.736417,5478.561
444,0.738083,5415.38
445,0.73975,5415.38
446,0.741417,5353.167
447,0.743083,5296.99
448,0.74475,5296.99
449,0.746417,5240.366
450,0.7480830000000001,5184.636
451,0.74975,5128.905
452,0.751483,5128.905
453,0.7530829999999999,5076.155
454,0.754733,5026.385
455,0.7564,4979
456,0.758067,4979
457,0.759733,4935.786
458,0.7614,4886.24
459,0.7630670000000001,4837.141
460,0.764733,4837.141
461,0.7664,4790.351
462,0.7681829999999999,4742.593
463,0.769733,4700.497
464,0.7714,4700.497
465,0.7730669999999999,4657.656
466,0.774733,4614.666
467,0.7764,4614.666
468,0.778067,4570.931
469,0.779733,4527.271
470,0.7814,4486.74
471,0.783067,4486.74
472,0.784733,4449.114
473,0.7864,4413.873
474,0.788067,4379.75
475,0.789733,4379.75
476,0.7914,4345.849
477,0.793067,4312.843
478,0.794733,4279.315
479,0.7964,4279.315
480,0.798067,4245.639
481,0.799733,4214.197
482,0.8014,4214.197
483,0.803067,4179.105
484,0.80475,4148.707
485,0.8064,4117.191
486,0.808083,4117.191
487,0.809733,4086.867
488,0.8114,4058.331
489,0.813067,4024.431
490,0.814717,4024.431
491,0.816383,3995.15
492,0.8180500000000001,3966.689
493,0.819717,3937.408
494,0.821383,3937.408
495,0.8230499999999999,3914.013
496,0.824717,3891.066
497,0.826383,3866.181
498,0.82805,3866.181
499,0.829717,3842.563
500,0.831383,3815.591
501,0.83305,3815.591
502,0.834717,3789.589
503,0.836383,3764.555
504,0.83805,3738.254
505,0.839717,3738.254
506,0.841383,3715.009
507,0.84305,3688.335
508,0.8447170000000001,3664.121
509,0.846383,3664.121
510,0.84805,3644.973
511,0.8497169999999999,3626.123
512,0.851383,3607.273
513,0.853067,3607.273
514,0.8547169999999999,3589.317
515,0.856383,3567.263
516,0.85805,3567.263
517,0.859717,3547.296
518,0.861383,3530.532
519,0.86305,3511.235
520,0.864717,3511.235
521,0.866383,3491.268
522,0.86805,3470.629
523,0.869733,3448.203
524,0.871383,3448.203
525,0.87305,3427.043
526,0.8747,3409.833
527,0.876367,3389.865
528,0.878067,3389.865
529,0.879717,3372.878
530,0.881367,3357.53
531,0.883033,3342.554
532,0.884717,3342.554
533,0.8865,3327.28
534,0.888033,3312.677
535,0.889717,3312.677
536,0.891367,3296.062
537,0.893033,3280.565
538,0.8947000000000001,3268.048
539,0.896367,3268.048
540,0.898033,3252.327
541,0.8997000000000001,3239.065
542,0.901367,3225.654
543,0.903033,3225.654
544,0.9046999999999999,3210.977
545,0.906367,3196.448
546,0.908033,3177.822
547,0.9097,3177.822
548,0.911367,3160.015
549,0.913033,3143.027
550,0.9147,3143.027
551,0.916367,3127.605
552,0.918033,3116.131
553,0.9197,3102.198
554,0.921367,3102.198
555,0.923033,3090.128
556,0.9247,3078.282
557,0.9263670000000001,3064.647
558,0.928033,3064.647
559,0.9297,3051.013
560,0.9313669999999999,3039.017
561,0.933033,3025.904
562,0.934683,3025.904
563,0.93635,3012.27
564,0.938017,3003.105
565,0.939683,3003.105
566,0.94135,2992.079
567,0.943017,2980.381
568,0.9446830000000001,2970.099
569,0.94635,2970.099
570,0.948017,2958.849
571,0.9497,2946.928
572,0.951417,2935.231
573,0.953017,2935.231
574,0.9546829999999999,2924.875
575,0.95635,2914.146
576,0.958017,2902.597
577,0.959683,2902.597
578,0.96135,2896.86
579,0.963017,2887.845
580,0.964683,2878.83
581,0.96635,2878.83
582,0.968017,2868.846
583,0.969683,2855.957
584,0.97135,2855.957
585,0.973,2842.769
586,0.974667,2832.189
587,0.976333,2824.068
588,0.978,2824.068
589,0.979667,2815.947
590,0.981333,2813.19
591,0.983,2805.367
592,0.984667,2805.367
593,0.986333,2798.289
594,0.988,2787.486
595,0.989667,2775.639
596,0.991333,2775.639
597,0.993,2764.091
598,0.994667,2752.617
599,0.996317,2752.617
600,0.997983,2745.241
601,0.99965,2736.151
602,1.001317,2728.85
603,1.002983,2728.85
604,1.004733,2719.909
605,1.006317,2711.937
606,1.007983,2705.306
607,1.00965,2705.306
608,1.011317,2699.047
609,1.012983,2690.405
610,1.01465,2681.315
611,1.016317,2681.315
612,1.017983,2673.566
613,1.01965,2663.061
614,1.021317,2655.238
615,1.022983,2655.238
616,1.024667,2650.246
617,1.026317,2642.125
618,1.027983,2642.125
619,1.02965,2633.333
620,1.031317,2626.255
621,1.032983,2618.805
622,1.03465,2618.805
623,1.036317,2611.727
624,1.037983,2606.884
625,1.03965,2600.476
626,1.041317,2600.476
627,1.042983,2593.696
628,1.04465,2586.99
629,1.046317,2583.712
630,1.047983,2583.712
631,1.04965,2577.305
632,1.051317,2566.129
633,1.052983,2566.129
634,1.05465,2558.678
635,1.0563,2549.738
636,1.057967,2543.256
637,1.059633,2543.256
638,1.0613,2540.201
639,1.062967,2532.825
640,1.064633,2527.013
641,1.0663,2527.013
642,1.067967,2524.108
643,1.069633,2518.669
644,1.0713,2515.688
645,1.072967,2515.688
646,1.074633,2508.089
647,1.0763,2499.819
648,1.077967,2493.188
649,1.079633,2493.188
650,1.0813,2484.396
651,1.082967,2477.393
652,1.084633,2477.393
653,1.0863,2469.867
654,1.087967,2466.664
655,1.0897,2464.28
656,1.0913,2464.28
657,1.092967,2458.542
658,1.094633,2455.339
659,1.0963,2446.547
660,1.097967,2446.547
661,1.099633,2439.246
662,1.1013,2437.606
663,1.102983,2430.677
664,1.104633,2430.677
665,1.1063,2427.921
666,1.107967,2421.737
667,1.109633,2421.737
668,1.1113,2412.796
669,1.112967,2407.506
670,1.114617,2401.62
671,1.116283,2401.62
672,1.11795,2398.789
673,1.119617,2394.766
674,1.121283,2390.221
675,1.123083,2390.221
676,1.124617,2385.154
677,1.126283,2379.343
678,1.12795,2376.884
679,1.129617,2376.884
680,1.131283,2374.724
681,1.13295,2369.434
682,1.134617,2369.434
683,1.136283,2365.41
684,1.13795,2358.63
685,1.139617,2350.584
686,1.141283,2350.584
687,1.14295,2346.188
688,1.144617,2341.494
689,1.146283,2338.141
690,1.14795,2338.141
691,1.149617,2330.989
692,1.151283,2324.432
693,1.15295,2318.323
694,1.154617,2318.323
695,1.156283,2312.809
696,1.15795,2313.331
697,1.159617,2311.841
698,1.161283,2311.841
699,1.16295,2308.115
700,1.164617,2305.508
701,1.166283,2305.508
702,1.16795,2303.049
703,1.169617,2295.449
704,1.171283,2292.32
705,1.17295,2292.32
706,1.174617,2286.136
707,1.176267,2277.94
708,1.177933,2276.152
709,1.1796,2276.152
710,1.181267,2271.533
711,1.182933,2269
712,1.184617,2269.447
713,1.186267,2269.447
714,1.187933,2265.498
715,1.1896,2264.083
716,1.191267,2264.083
717,1.192933,2260.73
718,1.1946,2256.483
719,1.196267,2253.056
720,1.197933,2253.056
721,1.1996,2248.064
722,1.201267,2244.115
723,1.202933,2239.421
724,1.2046,2239.421
725,1.206267,2235.398
726,1.208,2231.225
727,1.2096,2227.724
728,1.211267,2227.724
729,1.212933,2223.104
730,1.2146,2222.285
731,1.216267,2218.559
732,1.217933,2218.559
733,1.2196,2215.43
734,1.221267,2212.599
735,1.222933,2212.599
736,1.2246,2208.352
737,1.226267,2202.764
738,1.227933,2197.251
739,1.2296,2197.251
740,1.231267,2193.451
741,1.23295,2188.236
742,1.2346,2186
743,1.236267,2186
744,1.237917,2183.914
745,1.239583,2178.848
746,1.241367,2174.676
747,1.242917,2174.676
748,1.244583,2170.652
749,1.24625,2167.672
750,1.247917,2167.672
751,1.249583,2166.256
752,1.25125,2163.052
753,1.252917,2162.531
754,1.254583,2162.531
755,1.25625,2158.731
756,1.257917,2154.559
757,1.259583,2152.398
758,1.26125,2152.398
759,1.262917,2148.971
760,1.264567,2144.501
761,1.266233,2142.34
762,1.2679,2142.34
763,1.269567,2140.03
764,1.271233,2136.677
765,1.272917,2138.615
766,1.274567,2138.615
767,1.276233,2138.54
768,1.2779,2135.336
769,1.279567,2135.336
770,1.281233,2131.686
771,1.282917,2127.29
772,1.284567,2121.851
773,1.286233,2121.851
774,1.2879,2119.094
775,1.289567,2116.114
776,1.291233,2112.314
777,1.2929,2112.314
778,1.29455,2110.898
779,1.296217,2107.471
780,1.297883,2104.491
781,1.29955,2104.491
782,1.301217,2100.617
783,1.302883,2095.327
784,1.30455,2095.327
785,1.30625,2095.699
786,1.307883,2093.241
787,1.30955,2088.77
788,1.311217,2088.77
789,1.312883,2086.088
790,1.31455,2080.128
791,1.316217,2077.073
792,1.317883,2077.073
793,1.31955,2074.54
794,1.321217,2072.677
795,1.322883,2070.665
796,1.32455,2070.665
797,1.326267,2069.399
798,1.327883,2069.548
799,1.32955,2069.548
800,1.331217,2068.579
801,1.332883,2065.152
802,1.33455,2060.979
803,1.336217,2060.979
804,1.337883,2058.297
805,1.33955,2054.498
806,1.341217,2054.199
807,1.342883,2054.199
808,1.34455,2052.114
809,1.346217,2048.016
810,1.347883,2046.526
811,1.34955,2046.526
812,1.351217,2042.353
813,1.352883,2038.404
814,1.354533,2035.052
815,1.3562,2035.052
816,1.357867,2031.326
817,1.359667,2032.071
818,1.3612,2032.071
819,1.362867,2032.071
820,1.364533,2031.103
821,1.3662,2028.644
822,1.367867,2028.644
823,1.369533,2022.535
824,1.3712,2022.982
825,1.372867,2024.621
826,1.374533,2024.621
827,1.3762,2022.46
828,1.377867,2020.821
829,1.379533,2014.935
830,1.3812,2014.935
831,1.382867,2008.602
832,1.384533,2007.112
833,1.3862,2007.112
834,1.387867,2004.504
835,1.389533,2003.759
836,1.3912,2003.312
837,1.392867,2003.312
838,1.394533,2001.971
839,1.3962,2002.642
840,1.397867,2002.195
841,1.399533,2002.195
842,1.4012,1996.309
843,1.402867,1990.274
844,1.404533,1988.262
845,1.4062,1988.262
846,1.407867,1985.058
847,1.409533,1986.399
848,1.4112,1988.113
849,1.412867,1988.113
850,1.414533,1984.984
851,1.416183,1982.376
852,1.41785,1982.376
853,1.419517,1981.184
854,1.421183,1978.502
855,1.42285,1975.894
856,1.424517,1975.894
857,1.426183,1973.435
858,1.42785,1971.424
859,1.429517,1971.275
860,1.431183,1971.275
861,1.43285,1969.859
862,1.434517,1967.698
863,1.436183,1965.165
864,1.43785,1965.165
865,1.439517,1960.62
866,1.441183,1957.64
867,1.442867,1957.64
868,1.444567,1958.534
869,1.446183,1956.82
870,1.44785,1953.468
871,1.449533,1953.468
872,1.451183,1951.456
873,1.45285,1948.625
874,1.454517,1946.166
875,1.456183,1946.166
876,1.45785,1946.613
877,1.459517,1942.739
878,1.461267,1936.033
879,1.46285,1936.033
880,1.464517,1933.277
881,1.466183,1933.202
882,1.46785,1934.394
883,1.469517,1934.394
884,1.471183,1934.99
885,1.47285,1931.042
886,1.4745,1931.042
887,1.476167,1926.05
888,1.477933,1921.43
889,1.4795,1919.195
890,1.481167,1919.195
891,1.482833,1919.419
892,1.4845,1919.419
893,1.486167,1921.43
894,1.487833,1921.43
895,1.4895,1919.121
896,1.491167,1918.45
897,1.492833,1915.246
898,1.494617,1915.246
899,1.496167,1912.192
900,1.497833,1915.023
901,1.4995,1915.023
902,1.501167,1913.756
903,1.502833,1911.223
904,1.5045,1910.627
905,1.506167,1910.627
906,1.507833,1906.604
907,1.5095,1904.294
908,1.511183,1906.156
909,1.512833,1906.156
910,1.5145,1900.196
911,1.516167,1898.184
912,1.517833,1896.992
913,1.5195,1896.992
914,1.521167,1894.757
915,1.522867,1895.651
916,1.524517,1891.404
