"ID","sea_time","fid_signal"
1,0,143.334
2,0.001667,143.327
3,0.003333,143.453
4,0.004983,143.453
5,0.0067,143.595
6,0.008317,142.865
7,0.009983000000000001,142.097
8,0.01165,142.097
9,0.013317,141.665
10,0.014983,141.397
11,0.01665,142.03
12,0.018317,142.03
13,0.019983,142.485
14,0.02165,142.835
15,0.023367,142.835
16,0.024983,143.185
17,0.02665,143.081
18,0.028317,143.401
19,0.029983,143.401
20,0.03165,143.185
21,0.033317,143.021
22,0.034983,143.036
23,0.03665,143.036
24,0.038317,142.902
25,0.040083,143.26
26,0.04165,143.319
27,0.043317,143.319
28,0.044983,143.409
29,0.04665,143.55
30,0.048317,143.55
31,0.049983,143.811
32,0.05165,143.67
33,0.053317,143.61
34,0.054983,143.61
35,0.056667,143.513
36,0.058317,143.118
37,0.059983,143.26
38,0.06165,143.26
39,0.063317,143.543
40,0.064967,143.513
41,0.066633,143.491
42,0.0683,143.491
43,0.069967,143.372
44,0.071633,142.954
45,0.07335,143.237
46,0.07496700000000001,143.237
47,0.07663300000000001,143.304
48,0.07829999999999999,143.282
49,0.079967,143.282
50,0.081633,143.684
51,0.0833,143.491
52,0.084967,143.446
53,0.086617,143.446
54,0.088283,143.364
55,0.08995,143.051
56,0.091617,142.843
57,0.093283,142.843
58,0.09495000000000001,142.939
59,0.09661699999999999,143.044
60,0.098283,143.036
61,0.09995,143.036
62,0.101617,143.141
63,0.103283,143.364
64,0.10495,143.364
65,0.106617,143.61
66,0.108283,143.498
67,0.10995,143.379
68,0.111617,143.379
69,0.113283,143.237
70,0.11495,142.798
71,0.116617,142.768
72,0.118283,142.768
73,0.11995,142.768
74,0.121617,142.381
75,0.123267,142.53
76,0.124983,142.53
77,0.1266,142.924
78,0.128267,143.133
79,0.129933,143.133
80,0.1316,143.64
81,0.133267,143.766
82,0.134933,143.498
83,0.1366,143.498
84,0.138267,143.655
85,0.139933,143.342
86,0.141683,143.193
87,0.143267,143.193
88,0.144933,143.163
89,0.1466,142.865
90,0.148267,142.731
91,0.149933,142.731
92,0.1516,142.746
93,0.153267,142.79
94,0.154933,142.716
95,0.1566,142.716
96,0.158367,142.969
97,0.159933,143.051
98,0.1616,143.051
99,0.163267,143.074
100,0.164933,143.237
101,0.1666,143.133
102,0.168267,143.133
103,0.169933,142.917
104,0.1716,142.954
105,0.173267,142.85
106,0.174933,142.85
107,0.1766,142.843
108,0.178267,142.88
109,0.179933,142.753
110,0.1816,142.753
111,0.183267,142.708
112,0.184917,142.679
113,0.186583,142.679
114,0.18825,142.835
115,0.189917,143.021
116,0.191583,143.304
117,0.19325,143.304
118,0.194917,143.379
119,0.196583,143.334
120,0.19825,143.185
121,0.199917,143.185
122,0.201583,142.88
123,0.20325,143.133
124,0.204917,143.021
125,0.206583,143.021
126,0.20825,142.895
127,0.20995,143.267
128,0.21165,143.133
129,0.21325,143.133
130,0.214917,143.193
131,0.216583,143.148
132,0.21825,143.148
133,0.219917,142.783
134,0.221583,142.545
135,0.22325,142.738
136,0.224917,142.738
137,0.226583,142.984
138,0.22825,143.193
139,0.229917,143.461
140,0.231583,143.461
141,0.23325,143.074
142,0.234917,142.85
143,0.236583,142.671
144,0.23825,142.671
145,0.239917,142.388
146,0.241583,142.641
147,0.243317,142.694
148,0.2449,142.694
149,0.246567,142.798
150,0.248233,142.932
151,0.2499,142.932
152,0.251567,143.021
153,0.253233,143.349
154,0.2549,143.193
155,0.256567,143.193
156,0.258233,143.275
157,0.2599,143.006
158,0.261567,142.895
159,0.263233,142.895
160,0.2649,143.215
161,0.266567,143.163
162,0.268233,143.64
163,0.2699,143.64
164,0.271567,143.521
165,0.273233,143.64
166,0.2749,143.64
167,0.276667,143.521
168,0.278233,143.074
169,0.2799,142.969
170,0.281567,142.969
171,0.283233,142.857
172,0.2849,142.731
173,0.2866,142.79
174,0.288233,142.79
175,0.2899,142.708
176,0.291567,142.723
177,0.293233,142.924
178,0.2949,142.924
179,0.296567,142.865
180,0.298233,143.26
181,0.2999,143.26
182,0.301567,143.282
183,0.303233,143.074
184,0.3049,143.26
185,0.30655,143.26
186,0.308217,143.014
187,0.309883,142.477
188,0.31155,142.612
189,0.313217,142.612
190,0.314883,142.679
191,0.31655,142.798
192,0.318217,143.163
193,0.319883,143.163
194,0.32155,143.252
195,0.323217,143.118
196,0.324883,142.604
197,0.32655,142.604
198,0.328217,142.358
199,0.329883,142.5
200,0.33155,142.5
201,0.333217,142.552
202,0.334883,143.074
203,0.33655,143.252
204,0.338217,143.252
205,0.339883,143.126
206,0.34155,143.312
207,0.343217,143.729
208,0.344883,143.729
209,0.34655,144.258
210,0.348217,145.1
211,0.3499,145.897
212,0.35155,145.897
213,0.353217,146.814
214,0.354883,148.043
215,0.35655,148.043
216,0.358217,149.22
217,0.359883,150.926
218,0.36165,152.647
219,0.3632,152.647
220,0.364867,154.816
221,0.366533,157.811
222,0.3682,161.707
223,0.369867,161.707
224,0.371533,167.064
225,0.3732,173.368
226,0.374867,180.915
227,0.376533,180.915
228,0.378183,189.729
229,0.37985,200.137
230,0.381517,200.137
231,0.383183,212.699
232,0.38485,227.369
233,0.386517,245.057
234,0.388183,245.057
235,0.38985,266.06
236,0.391517,291.318
237,0.393183,320.993
238,0.394967,320.993
239,0.396517,355.661
240,0.398183,396.438
241,0.39985,443.682
242,0.401517,443.682
243,0.403183,499.062
244,0.40485,562.936
245,0.406517,636.019
246,0.408183,636.019
247,0.40985,719.696
248,0.411517,814.5940000000001
249,0.413183,814.5940000000001
250,0.41485,921.324
251,0.416517,1040.637
252,0.418183,1172.431
253,0.41985,1172.431
254,0.421517,1316.041
255,0.423183,1471.154
256,0.424833,1635.879
257,0.426533,1635.879
258,0.428167,1809.306
259,0.429833,1989.663
260,0.4315,2174.452
261,0.433167,2174.452
262,0.434833,2362.355
263,0.4365,2550.088
264,0.438167,2550.088
265,0.439833,2735.384
266,0.4415,2915.382
267,0.443167,3086.984
268,0.444833,3086.984
269,0.4465,3247.678
270,0.448167,3395.423
271,0.449833,3528.856
272,0.4515,3528.856
273,0.453167,3646.411
274,0.454833,3747.292
275,0.4565,3830.336
276,0.458167,3830.336
277,0.459833,3894.948
278,0.4615,3941.275
279,0.463167,3969.766
280,0.464833,3969.766
281,0.4665,3981.069
282,0.468167,3975.928
283,0.469833,3975.928
284,0.4715,3955.573
285,0.473167,3921.203
286,0.474833,3873.691
287,0.4765,3873.691
288,0.478167,3815.249
289,0.479867,3746.942
290,0.4815,3669.813
291,0.483167,3669.813
292,0.484817,3585.667
293,0.486483,3495.507
294,0.48815,3400.363
295,0.489817,3400.363
296,0.491483,3301.352
297,0.49315,3199.845
298,0.494833,3199.845
299,0.496617,3097.102
300,0.49815,2993.204
301,0.499817,2889.618
302,0.501483,2889.618
303,0.50315,2787.344
304,0.504817,2686.165
305,0.506483,2587.05
306,0.50815,2587.05
307,0.509817,2489.865
308,0.511483,2394.907
309,0.5131829999999999,2302.103
310,0.514817,2302.103
311,0.516483,2212.45
312,0.51815,2126.113
313,0.519817,2042.659
314,0.521483,2042.659
315,0.52315,1962.49
316,0.524817,1885.794
317,0.526483,1885.794
318,0.52815,1812.145
319,0.529817,1741.558
320,0.531483,1674.227
321,0.5331669999999999,1674.227
322,0.534817,1609.467
323,0.5365,1547.992
324,0.53815,1489.386
325,0.539817,1489.386
326,0.541483,1433.969
327,0.54315,1381.39
328,0.5448,1331.098
329,0.546467,1331.098
330,0.548133,1283.169
331,0.5498,1237.191
332,0.551467,1237.191
333,0.553133,1193.352
334,0.5548,1151.673
335,0.556467,1112.014
336,0.558133,1112.014
337,0.5598,1074.426
338,0.561467,1038.827
339,0.563133,1005.054
340,0.5648,1005.054
341,0.5664670000000001,973.0309999999999
342,0.568133,942.424
343,0.5698,912.771
344,0.5714669999999999,912.771
345,0.573133,884.54
346,0.5748,857.8819999999999
347,0.576467,857.8819999999999
348,0.578133,832.684
349,0.5798,808.7380000000001
350,0.581467,785.634
351,0.583133,785.634
352,0.5848,763.595
353,0.586467,742.391
354,0.588133,722.066
355,0.5898,722.066
356,0.591467,702.88
357,0.593133,684.5069999999999
358,0.5948,666.477
359,0.596467,666.477
360,0.598133,649.765
361,0.5998,633.612
362,0.601467,618.242
363,0.603133,618.242
364,0.604783,604.093
365,0.60645,590.242
366,0.608117,590.242
367,0.609783,577.495
368,0.61145,564.732
369,0.613117,552.461
370,0.614783,552.461
371,0.616467,540.249
372,0.618117,528.172
373,0.619783,517.093
374,0.6214499999999999,517.093
375,0.623117,506.461
376,0.624783,496.939
377,0.62645,487.611
378,0.628117,487.611
379,0.629783,478.29
380,0.6315499999999999,469.133
381,0.633117,469.133
382,0.634783,460.401
383,0.63645,451.908
384,0.638117,443.719
385,0.639783,443.719
386,0.64145,435.844
387,0.643117,428.103
388,0.644783,420.772
389,0.64645,420.772
390,0.6482329999999999,413.887
391,0.649783,407.45
392,0.65145,400.968
393,0.6531169999999999,400.968
394,0.654783,394.531
395,0.65645,388.354
396,0.658117,382.021
397,0.659783,382.021
398,0.66145,376.493
399,0.6631,371.478
400,0.664767,371.478
401,0.6664330000000001,366.561
402,0.668083,361.703
403,0.66975,356.562
404,0.671417,356.562
405,0.673083,351.541
406,0.67475,346.594
407,0.676417,342.175
408,0.678083,342.175
409,0.67975,337.809
410,0.6814170000000001,333.615
411,0.683083,329.614
412,0.68475,329.614
413,0.6864170000000001,325.717
414,0.688083,321.992
415,0.68975,321.992
416,0.6914169999999999,318.125
417,0.693083,314.698
418,0.69475,310.972
419,0.696417,310.972
420,0.698083,307.687
421,0.699767,304.855
422,0.701417,301.614
423,0.703083,301.614
424,0.70475,298.686
425,0.706417,295.497
426,0.7081,292.033
427,0.70975,292.033
428,0.711417,288.963
429,0.713083,285.968
430,0.71475,285.968
431,0.716417,283.472
432,0.718083,280.976
433,0.71975,278.227
434,0.721417,278.227
435,0.723067,275.768
436,0.724733,273.041
437,0.7264,270.635
438,0.728067,270.635
439,0.729733,268.608
440,0.7314000000000001,266.559
441,0.733117,264.384
442,0.734733,264.384
443,0.7364000000000001,262.171
444,0.738067,259.943
445,0.739733,257.611
446,0.7413999999999999,257.611
447,0.743067,256.017
448,0.744733,254.035
449,0.7464,254.035
450,0.748067,252.359
451,0.7498,250.608
452,0.7514,248.38
453,0.753067,248.38
454,0.754733,246.838
455,0.7564,244.997
456,0.758067,243.492
457,0.759733,243.492
458,0.7614,241.883
459,0.7630670000000001,240.244
460,0.764733,238.389
461,0.766517,238.389
462,0.7680670000000001,236.578
463,0.769733,235.17
464,0.7714,235.17
465,0.7730669999999999,233.673
466,0.774733,232.346
467,0.7764,231.02
468,0.778083,231.02
469,0.779733,229.716
470,0.7814,228.621
471,0.78305,227.481
472,0.784717,227.481
473,0.7863830000000001,226.341
474,0.78805,225.075
475,0.789717,223.488
476,0.7913829999999999,223.488
477,0.79305,222.474
478,0.794717,221.409
479,0.796383,220.127
480,0.79805,220.127
481,0.799717,219.092
482,0.801383,217.743
483,0.80305,217.743
484,0.804717,216.685
485,0.806383,215.635
486,0.80805,214.763
487,0.809717,214.763
488,0.811383,214.048
489,0.8130500000000001,212.751
490,0.814717,211.842
491,0.816383,211.842
492,0.8180500000000001,210.784
493,0.819717,209.615
494,0.821383,209.026
495,0.8230499999999999,209.026
496,0.824717,208.147
497,0.826383,207.178
498,0.82805,207.178
499,0.829717,206.135
500,0.831383,205.174
501,0.83305,204.429
502,0.834717,204.429
503,0.836383,203.922
504,0.83805,203.542
505,0.839717,203.006
506,0.841383,203.006
507,0.843067,202.321
508,0.8447,201.486
509,0.846367,200.465
510,0.848033,200.465
511,0.8497,199.43
512,0.8514,198.513
513,0.853033,197.925
514,0.8547,197.925
515,0.856367,197.589
516,0.858033,197.18
517,0.8597,197.18
518,0.861367,196.636
519,0.8630330000000001,195.824
520,0.8647,194.93
521,0.866367,194.93
522,0.86805,194.155
523,0.8697,193.678
524,0.871367,193.097
525,0.8730329999999999,193.097
526,0.8747,192.545
527,0.876367,191.815
528,0.878033,190.929
529,0.8797,190.929
530,0.881367,190.131
531,0.883033,189.334
532,0.884817,188.954
533,0.886367,188.954
534,0.888033,188.567
535,0.8897,188.217
536,0.891367,188.217
537,0.893033,188.038
538,0.8947000000000001,187.568
539,0.896367,187.188
540,0.898033,187.188
541,0.8997000000000001,186.823
542,0.90135,186.287
543,0.903017,185.721
544,0.904683,185.721
545,0.90635,185.11
546,0.908017,184.581
547,0.909683,183.955
548,0.91135,183.955
549,0.913017,183.62
550,0.914683,183.083
551,0.916367,183.083
552,0.918067,182.532
553,0.919683,182.308
554,0.92135,181.869
555,0.923017,181.869
556,0.924683,181.273
557,0.92635,180.833
558,0.928017,180.252
559,0.929683,180.252
560,0.93135,179.924
561,0.933017,180.021
562,0.934683,180.013
563,0.9363669999999999,180.013
564,0.938017,179.812
565,0.939683,179.067
566,0.94135,179.067
567,0.943017,178.374
568,0.9446830000000001,177.495
569,0.94635,177.16
570,0.948017,177.16
571,0.9496830000000001,177.13
572,0.95135,176.877
573,0.953017,176.862
574,0.9546829999999999,176.862
575,0.95635,176.407
576,0.958017,176.08
577,0.959667,175.841
578,0.961317,175.841
579,0.962983,175.618
580,0.96465,175.431
581,0.966317,175.431
582,0.967983,175.2
583,0.969733,174.969
584,0.971317,174.56
585,0.972983,174.56
586,0.97465,174.202
587,0.976317,173.725
588,0.977983,173.338
589,0.97965,173.338
590,0.981317,173.047
591,0.9829830000000001,172.913
592,0.984667,172.682
593,0.9863499999999999,172.682
594,0.9879829999999999,172.332
595,0.98965,171.974
596,0.991317,171.371
597,0.9929829999999999,171.371
598,0.99465,171.065
599,0.996317,170.745
600,0.997983,170.745
601,0.99965,170.372
602,1.001317,170.007
603,1.00305,169.426
604,1.00465,169.426
605,1.006317,169.359
606,1.007983,169.247
607,1.00965,168.964
608,1.011317,168.964
609,1.012983,168.92
610,1.01465,168.532
611,1.016317,168.391
612,1.017983,168.391
613,1.01965,168.465
614,1.021317,168.301
615,1.022983,168.301
616,1.024633,168.346
617,1.0263,167.876
618,1.027967,167.325
619,1.029633,167.325
620,1.0313,167.005
621,1.032967,166.759
622,1.034633,166.61
623,1.0363,166.61
624,1.037967,166.647
625,1.039633,166.714
626,1.0413,166.461
627,1.042967,166.461
628,1.044633,166.357
629,1.0463,166.066
630,1.047967,165.604
631,1.049633,165.604
632,1.0513,165.388
633,1.053,165.135
634,1.05465,165.135
635,1.0563,165.008
636,1.057967,164.926
637,1.059633,164.613
638,1.0613,164.613
639,1.062967,164.464
640,1.064633,164.241
641,1.0663,164.121
642,1.067967,164.121
643,1.069633,163.965
644,1.0713,163.808
645,1.072967,163.868
646,1.074633,163.868
647,1.0763,163.466
648,1.077967,163.145
649,1.079633,163.145
650,1.0813,162.974
651,1.082967,162.452
652,1.084617,162.311
653,1.086283,162.311
654,1.088017,162.005
655,1.089617,161.842
656,1.091283,161.797
657,1.09295,161.797
658,1.094617,161.901
659,1.096283,161.976
660,1.09795,161.722
661,1.099617,161.722
662,1.101283,161.506
663,1.10295,160.977
664,1.104617,160.612
665,1.106283,160.612
666,1.10795,160.754
667,1.109617,160.843
668,1.1113,160.843
669,1.11295,161.059
670,1.114617,161.059
671,1.116283,160.903
672,1.11795,160.903
673,1.119617,160.567
674,1.1214,160.448
675,1.12295,160.299
676,1.124617,160.299
677,1.126283,159.815
678,1.12795,159.778
679,1.129617,159.584
680,1.131283,159.584
681,1.13295,159.673
682,1.134633,159.487
683,1.136283,159.487
684,1.13795,159.45
685,1.139617,159.472
686,1.141283,159.547
687,1.142933,159.547
688,1.1446,160.001
689,1.146267,159.688
690,1.147933,159.39
691,1.1496,159.39
692,1.151267,158.958
693,1.152933,158.489
694,1.1546,158.533
695,1.156267,158.533
696,1.157933,158.399
697,1.1596,158.332
698,1.161267,158.332
699,1.162933,158.34
700,1.1646,157.796
701,1.166267,157.535
702,1.167933,157.535
703,1.1696,157.341
704,1.171267,157.416
705,1.172933,158.004
706,1.1746,158.004
707,1.176267,158.34
708,1.177933,158.504
709,1.1796,158.198
710,1.181267,158.198
711,1.182933,157.908
712,1.1846,157.505
713,1.186267,157.14
714,1.187933,157.14
715,1.1896,156.954
716,1.191267,156.589
717,1.192933,156.589
718,1.1946,156.395
719,1.196267,156.514
720,1.197933,156.708
721,1.1996,156.708
722,1.201267,157.17
723,1.202917,157.505
724,1.204617,157.237
725,1.206333,157.237
726,1.207917,156.872
727,1.209583,156.619
728,1.21125,156.142
729,1.212917,156.142
730,1.214583,156.038
731,1.21625,156.097
732,1.217917,156.097
733,1.219583,155.769
734,1.22125,155.881
735,1.222917,156
736,1.224583,156
737,1.22625,155.769
738,1.227917,155.598
739,1.229583,155.24
740,1.23125,155.24
741,1.232917,154.778
742,1.234583,154.51
743,1.23625,154.428
744,1.237917,154.428
745,1.2397,154.398
746,1.24125,154.406
747,1.242917,154.413
748,1.244583,154.413
749,1.24625,154.339
750,1.247917,154.346
751,1.249583,154.346
752,1.251233,154.071
753,1.2529,153.959
754,1.254567,153.825
755,1.256233,153.825
756,1.2579,153.75
757,1.259567,154.026
758,1.261233,154.085
759,1.262883,154.085
760,1.26455,154.331
761,1.266217,154.562
762,1.267883,154.905
763,1.26955,154.905
764,1.271217,154.95
765,1.272883,154.696
766,1.27455,154.696
767,1.276217,154.376
768,1.277883,154.003
769,1.27955,153.84
770,1.281217,153.84
771,1.282883,153.638
772,1.28455,153.311
773,1.286233,152.893
774,1.287883,152.893
775,1.28955,152.58
776,1.291217,152.469
777,1.292883,152.312
778,1.29455,152.312
779,1.296217,152.633
780,1.297883,152.946
781,1.29955,153.303
782,1.301217,153.303
783,1.302883,153.467
784,1.30455,153.124
785,1.306217,153.124
786,1.307883,152.797
787,1.30955,152.178
788,1.311217,151.969
789,1.312883,151.969
790,1.31455,151.992
791,1.316217,152.051
792,1.317883,152.446
793,1.31955,152.446
794,1.321217,152.625
795,1.322883,152.722
796,1.32455,152.439
797,1.3262,152.439
798,1.327867,152.387
799,1.329533,152.588
800,1.3312,152.588
801,1.332867,152.7
802,1.334533,152.662
803,1.3362,152.461
804,1.337867,152.461
805,1.339533,152.402
806,1.341283,152.118
807,1.3429,152.394
808,1.344533,152.394
809,1.3462,152.208
810,1.347867,151.731
811,1.349533,151.664
812,1.3512,151.664
813,1.352867,151.478
814,1.354533,151.493
815,1.3562,151.493
816,1.357967,151.813
817,1.359533,151.895
818,1.3612,151.969
819,1.362867,151.969
820,1.364533,152.037
821,1.3662,151.843
822,1.367867,151.552
823,1.369533,151.552
824,1.3712,151.135
825,1.372867,151.008
826,1.374533,151.001
827,1.3762,151.001
828,1.377867,151.187
829,1.379533,151.321
830,1.3812,151.493
831,1.382867,151.493
832,1.384517,151.441
833,1.386183,151.441
834,1.38785,151.441
835,1.389517,151.478
836,1.391183,151.284
837,1.39285,151.046
838,1.394517,151.046
839,1.396183,150.681
840,1.39785,150.77
841,1.399517,150.576
842,1.401183,150.576
843,1.40285,150.606
844,1.404517,150.479
845,1.406183,150.338
846,1.40785,150.338
847,1.409517,150.397
848,1.411183,150.494
849,1.412867,150.494
850,1.414517,150.584
851,1.416183,150.315
852,1.41785,150.181
853,1.419517,150.181
854,1.421183,150.189
855,1.42285,150.345
856,1.424517,150.152
857,1.4262,150.152
858,1.42785,149.921
859,1.429517,149.652
860,1.431183,149.608
861,1.43285,149.608
862,1.434517,149.712
863,1.436183,149.839
864,1.43785,150.047
865,1.439517,150.047
866,1.441183,150.107
867,1.44285,150.546
868,1.444517,150.546
869,1.446167,150.584
870,1.447833,149.891
871,1.4495,149.503
872,1.451167,149.503
873,1.452833,149.153
874,1.4545,149.28
875,1.456167,149.876
876,1.457833,149.876
877,1.4595,150.032
878,1.461167,150.211
879,1.462833,150.062
880,1.4645,150.062
881,1.466167,149.854
882,1.467833,149.935
883,1.4695,149.935
884,1.471167,149.57
885,1.472833,149.362
886,1.4745,149.421
887,1.476267,149.421
888,1.477833,149.384
889,1.4795,149.317
890,1.481167,149.421
891,1.482833,149.421
892,1.4845,149.168
893,1.486167,148.818
894,1.487833,148.788
895,1.4895,148.788
896,1.491167,148.624
897,1.492967,148.833
898,1.4945,148.922
899,1.496167,148.922
900,1.497833,148.974
901,1.4995,148.9
902,1.501167,148.9
903,1.502817,148.691
904,1.504483,148.855
905,1.50615,149.041
906,1.507817,149.041
907,1.509483,149.153
908,1.51115,149.176
909,1.512817,148.796
910,1.5145,148.796
911,1.51615,148.714
912,1.517817,149.004
913,1.519483,149.108
914,1.52115,149.108
915,1.522817,149.146
916,1.524483,148.587
917,1.52615,148.587
918,1.527817,148.058
919,1.529483,147.931
920,1.53115,148.177
921,1.532817,148.177
922,1.534483,148.535
923,1.53615,148.81
924,1.537817,148.758
925,1.539483,148.758
926,1.54115,148.624
927,1.5428,148.684
928,1.544467,148.445
929,1.546133,148.445
930,1.5478,148.654
931,1.549467,148.49
932,1.551133,148.49
933,1.5528,148.378
934,1.554467,148.46
935,1.556133,147.767
936,1.5578,147.767
937,1.559467,147.626
938,1.561117,147.663
939,1.562783,147.678
940,1.56445,147.678
941,1.566117,148.132
942,1.567783,148.065
943,1.56945,148.147
944,1.571117,148.147
945,1.572783,148.319
946,1.57445,148.423
947,1.576117,148.751
948,1.577833,148.751
949,1.57945,148.639
950,1.581117,148.274
951,1.582783,148.274
952,1.58445,147.864
953,1.586117,147.648
954,1.587783,147.469
955,1.58945,147.469
