"ID","sea_time","fid_signal"
1,0,1229.122
2,0.001667,1229.122
3,0.003333,1229.122
4,0.005,1228.154
5,0.006667,1224.801
6,0.008333,1216.903
7,0.01,1216.903
8,0.011667,1210.123
9,0.013333,1204.535
10,0.014983,1199.543
11,0.01665,1199.543
12,0.018317,1204.908
13,0.019983,1208.261
14,0.02165,1208.261
15,0.02345,1210.123
16,0.024983,1213.253
17,0.02665,1213.7
18,0.028317,1213.7
19,0.029983,1216.233
20,0.03165,1217.946
21,0.033317,1217.499
22,0.034983,1217.499
23,0.036667,1215.339
24,0.0383,1216.158
25,0.039967,1216.605
26,0.041633,1216.605
27,0.0433,1217.946
28,0.044967,1220.852
29,0.046633,1220.033
30,0.0483,1220.033
31,0.049967,1222.566
32,0.051633,1224.652
33,0.0533,1224.652
34,0.054967,1223.236
35,0.056633,1223.087
36,0.0583,1220.331
37,0.059967,1220.331
38,0.061633,1216.605
39,0.0633,1215.488
40,0.064967,1215.488
41,0.066633,1215.488
42,0.0683,1216.754
43,0.069967,1218.766
44,0.071633,1224.354
45,0.0733,1224.354
46,0.07495,1224.726
47,0.07663300000000001,1222.491
48,0.07828300000000001,1222.491
49,0.07994999999999999,1222.789
50,0.081617,1221.97
51,0.083283,1224.577
52,0.08495,1224.577
53,0.086617,1225.993
54,0.088283,1225.993
55,0.08996700000000001,1223.236
56,0.091617,1223.236
57,0.093283,1223.907
58,0.09495000000000001,1225.248
59,0.09661699999999999,1225.099
60,0.098283,1225.099
61,0.099967,1225.695
62,0.101617,1223.236
63,0.103283,1222.119
64,0.10495,1222.119
65,0.106617,1218.915
66,0.108333,1216.903
67,0.10995,1216.903
68,0.111617,1215.562
69,0.113283,1214.221
70,0.11495,1217.797
71,0.116617,1217.797
72,0.118283,1219.213
73,0.11995,1218.692
74,0.121617,1221.895
75,0.123283,1221.895
76,0.125,1220.256
77,0.126617,1219.809
78,0.128283,1221.523
79,0.12995,1221.523
80,0.131617,1219.213
81,0.133283,1219.511
82,0.134933,1219.511
83,0.1366,1221.299
84,0.138267,1219.884
85,0.139933,1220.107
86,0.141717,1220.107
87,0.143267,1219.511
88,0.144933,1220.629
89,0.1466,1221.97
90,0.148267,1221.97
91,0.149933,1222.715
92,0.1516,1222.864
93,0.153267,1219.809
94,0.154933,1219.809
95,0.1566,1218.84
96,0.158267,1218.021
97,0.159933,1218.021
98,0.1616,1217.797
99,0.163267,1217.797
100,0.164933,1219.139
101,0.1666,1219.139
102,0.168267,1221.97
103,0.169967,1222.119
104,0.1716,1221.97
105,0.173267,1221.97
106,0.174933,1221.523
107,0.1766,1220.107
108,0.178267,1221.523
109,0.179933,1221.523
110,0.1816,1222.342
111,0.183267,1223.311
112,0.184933,1223.609
113,0.1866,1223.609
114,0.188267,1223.311
115,0.189933,1223.832
116,0.1916,1223.832
117,0.193267,1225.173
118,0.194917,1224.875
119,0.196583,1224.801
120,0.19825,1224.801
121,0.199917,1225.397
122,0.201583,1223.907
123,0.20325,1221.895
124,0.204917,1221.895
125,0.206583,1224.875
126,0.20825,1225.919
127,0.209917,1224.875
128,0.211583,1224.875
129,0.21325,1226.664
130,0.214917,1222.044
131,0.216583,1222.044
132,0.21825,1218.99
133,0.219917,1220.554
134,0.221583,1218.84
135,0.22325,1218.84
136,0.224917,1222.938
137,0.226633,1224.205
138,0.22825,1221.15
139,0.229917,1221.15
140,0.231583,1220.778
141,0.23325,1217.946
142,0.234917,1217.574
143,0.236583,1217.574
144,0.23825,1220.182
145,0.239917,1220.554
146,0.241583,1220.331
147,0.243333,1220.331
148,0.244933,1219.958
149,0.2466,1218.468
150,0.24825,1218.468
151,0.249917,1219.139
152,0.251583,1219.064
153,0.25325,1218.915
154,0.2549,1218.915
155,0.256583,1218.021
156,0.258233,1216.456
157,0.259983,1216.903
158,0.261567,1216.903
159,0.263233,1216.307
160,0.2649,1217.797
161,0.266567,1219.139
162,0.268233,1219.139
163,0.2699,1218.766
164,0.271567,1218.692
165,0.273233,1218.692
166,0.2749,1220.48
167,0.276667,1222.342
168,0.278233,1223.758
169,0.2799,1223.758
170,0.281567,1225.546
171,0.283233,1224.801
172,0.2849,1221.448
173,0.286567,1221.448
174,0.288233,1220.927
175,0.2899,1222.938
176,0.291567,1222.491
177,0.293233,1222.491
178,0.2949,1226.217
179,0.296567,1226.366
180,0.298233,1222.715
181,0.2999,1222.715
182,0.301567,1222.193
183,0.303233,1219.362
184,0.3049,1219.362
185,0.306567,1219.139
186,0.308233,1222.193
187,0.3099,1224.354
188,0.311567,1224.354
189,0.313233,1225.77
190,0.3149,1228.079
191,0.31655,1228.899
192,0.31825,1228.899
193,0.31995,1227.632
194,0.32155,1226.142
195,0.323217,1223.534
196,0.324883,1223.534
197,0.32655,1218.915
198,0.3282,1217.946
199,0.329867,1217.946
200,0.331533,1220.703
201,0.3332,1220.703
202,0.334867,1223.981
203,0.336533,1223.981
204,0.3382,1225.77
205,0.339867,1224.577
206,0.341533,1224.726
207,0.3432,1224.726
208,0.3449,1224.205
209,0.346533,1222.193
210,0.3482,1221.523
211,0.349867,1221.523
212,0.351533,1223.907
213,0.3532,1226.664
214,0.354867,1226.664
215,0.356533,1227.93
216,0.3582,1229.42
217,0.359867,1232.103
218,0.3616,1232.103
219,0.3632,1231.432
220,0.364867,1237.169
221,0.366533,1242.682
222,0.3682,1242.682
223,0.369867,1244.992
224,0.371533,1251.921
225,0.3732,1256.839
226,0.37485,1256.839
227,0.376517,1260.042
228,0.378267,1263.097
229,0.37985,1266.152
230,0.381517,1266.152
231,0.383183,1267.716
232,0.38485,1273.304
233,0.386517,1273.304
234,0.388183,1281.276
235,0.38985,1290.962
236,0.391517,1298.562
237,0.3932,1298.562
238,0.394983,1304.969
239,0.396517,1313.835
240,0.398183,1318.976
241,0.39985,1318.976
242,0.401517,1325.756
243,0.403183,1332.76
244,0.40485,1338.422
245,0.406517,1338.422
246,0.408183,1346.618
247,0.40985,1354.367
248,0.411517,1354.367
249,0.413183,1361.37
250,0.41485,1368.076
251,0.416517,1370.087
252,0.418183,1370.087
253,0.41985,1372.77
254,0.421517,1375.75
255,0.423183,1374.781
256,0.42485,1374.781
257,0.426517,1378.581
258,0.428183,1379.177
259,0.42985,1377.016
260,0.431517,1377.016
261,0.433183,1374.483
262,0.434833,1370.981
263,0.4365,1369.938
264,0.438167,1369.938
265,0.439833,1370.683
266,0.4415,1369.64
267,0.443167,1369.64
268,0.444833,1365.319
269,0.4465,1360.998
270,0.448167,1354.068
271,0.449833,1354.068
272,0.4515,1351.908
273,0.453167,1349.747
274,0.45485,1348.704
275,0.4565,1348.704
276,0.458167,1347.587
277,0.459833,1339.912
278,0.4615,1334.25
279,0.463183,1334.25
280,0.464833,1325.533
281,0.4665,1318.604
282,0.468167,1318.604
283,0.469833,1314.133
284,0.4715,1310.557
285,0.473167,1305.416
286,0.474833,1305.416
287,0.4765,1300.424
288,0.478167,1297.519
289,0.47985,1288.056
290,0.4815,1288.056
291,0.483167,1280.978
292,0.484833,1276.508
293,0.4865,1272.038
294,0.488167,1272.038
295,0.489833,1272.485
296,0.4915,1275.837
297,0.493167,1274.198
298,0.494817,1274.198
299,0.496517,1271.144
300,0.49815,1270.324
301,0.499817,1270.324
302,0.501483,1264.661
303,0.50315,1261.681
304,0.504817,1260.117
305,0.506483,1260.117
306,0.50815,1257.36
307,0.509817,1256.317
308,0.511483,1256.615
309,0.513267,1256.615
310,0.514817,1256.54
311,0.516483,1255.646
312,0.51815,1257.36
313,0.519817,1257.36
314,0.521483,1255.944
315,0.52315,1252.89
316,0.524817,1252.89
317,0.526483,1249.388
318,0.52815,1246.855
319,0.529817,1248.494
320,0.531483,1248.494
321,0.53315,1250.133
322,0.534817,1248.643
323,0.536483,1245.886
324,0.53815,1245.886
325,0.539817,1244.47
326,0.541483,1243.651
327,0.54315,1246.557
328,0.544817,1246.557
329,0.5465,1248.941
330,0.54815,1248.494
331,0.549833,1248.345
332,0.5514829999999999,1248.345
333,0.55315,1247.451
334,0.5548,1249.015
335,0.556467,1249.015
336,0.558133,1247.823
337,0.5598,1249.686
338,0.561467,1253.113
339,0.563133,1253.113
340,0.5648,1253.858
341,0.5664670000000001,1258.254
342,0.568133,1257.956
343,0.5698,1257.956
344,0.5714669999999999,1257.36
345,0.573133,1259.595
346,0.5748,1260.638
347,0.576467,1260.638
348,0.578133,1265.481
349,0.5798,1265.481
350,0.581467,1265.481
351,0.583133,1263.618
352,0.5848,1261.085
353,0.586467,1260.042
354,0.588133,1260.042
355,0.5898,1261.756
356,0.591467,1263.767
357,0.593133,1263.991
358,0.5948,1263.991
359,0.596467,1262.501
360,0.598217,1260.415
361,0.5998,1257.509
362,0.601467,1257.509
363,0.603133,1253.262
364,0.6048,1249.388
365,0.606467,1249.388
366,0.608133,1247.451
367,0.6098,1245.514
368,0.611467,1250.878
369,0.613117,1250.878
370,0.6148169999999999,1251.027
371,0.6164500000000001,1250.953
372,0.618117,1254.082
373,0.619767,1254.082
374,0.621433,1254.454
375,0.6231,1257.583
376,0.624767,1262.426
377,0.626433,1262.426
378,0.6281,1261.905
379,0.629767,1260.862
380,0.631567,1265.556
381,0.6331,1265.556
382,0.634767,1267.791
383,0.636433,1276.731
384,0.6381,1276.731
385,0.639767,1283.586
386,0.64145,1293.495
387,0.6431,1304.746
388,0.644767,1304.746
389,0.646433,1318.827
390,0.6481,1340.359
391,0.649767,1363.233
392,0.651433,1363.233
393,0.6531,1392.662
394,0.654767,1422.986
395,0.656433,1458.004
396,0.6581,1458.004
397,0.659767,1500.696
398,0.661433,1548.529
399,0.6631,1548.529
400,0.664767,1604.93
401,0.6664330000000001,1668.632
402,0.6681,1738.444
403,0.669767,1738.444
404,0.6714329999999999,1820.177
405,0.6731,1913.086
406,0.67475,2013.37
407,0.676417,2013.37
408,0.678117,2119.616
409,0.67975,2234.951
410,0.6814170000000001,2351.701
411,0.683083,2351.701
412,0.68475,2480.149
413,0.6864170000000001,2616.793
414,0.688083,2758.354
415,0.68975,2758.354
416,0.6914169999999999,2912.656
417,0.693083,3069.192
418,0.69475,3069.192
419,0.696417,3231.987
420,0.698083,3400.073
421,0.69975,3571.287
422,0.701417,3571.287
423,0.703083,3748.76
424,0.70475,3930.628
425,0.706417,4112.571
426,0.708083,4112.571
427,0.70975,4297.123
428,0.711417,4485.697
429,0.713083,4676.208
430,0.71475,4676.208
431,0.716467,4870.743
432,0.7181,5061.775
433,0.71975,5061.775
434,0.721433,5255.043
435,0.723083,5449.354
436,0.72475,5642.995
437,0.726417,5642.995
438,0.728083,5842.969
439,0.72975,6035.864
440,0.731417,6223.619
441,0.733067,6223.619
442,0.734733,6411.374
443,0.7364000000000001,6596.372
444,0.738067,6784.647
445,0.739733,6784.647
446,0.7413999999999999,6975.308
447,0.743067,7162.318
448,0.744733,7162.318
449,0.7464,7341.876
450,0.748067,7515.475
451,0.749833,7686.987
452,0.7514,7686.987
453,0.753067,7855.668
454,0.754733,8023.381
455,0.7564,8188.858
456,0.758067,8188.858
457,0.759733,8348.076999999999
458,0.7614,8504.316000000001
459,0.7630670000000001,8656.531000000001
460,0.764733,8656.531000000001
461,0.7664,8802.414000000001
462,0.7680670000000001,8942.559999999999
463,0.769733,9079.799000000001
464,0.7714,9079.799000000001
465,0.7730669999999999,9212.120999999999
466,0.774733,9339.004999999999
467,0.7764,9339.004999999999
468,0.778067,9459.183000000001
469,0.779733,9571.537
470,0.7814,9676.963
471,0.783067,9676.963
472,0.784733,9777.993
473,0.7864,9872.243
474,0.788067,9957.552
475,0.789733,9957.552
476,0.7914,10034.517
477,0.793067,10104.328
478,0.794717,10166.765
479,0.796383,10166.765
480,0.79805,10217.727
481,0.799717,10262.132
482,0.801383,10262.132
483,0.80305,10298.788
484,0.804717,10326.058
485,0.806383,10347.664
486,0.80805,10347.664
487,0.809717,10361.15
488,0.811383,10362.938
489,0.8130500000000001,10354.146
490,0.814717,10354.146
491,0.816383,10338.724
492,0.8180500000000001,10312.125
493,0.819717,10276.213
494,0.821383,10276.213
495,0.8230499999999999,10231.883
496,0.824717,10174.736
497,0.826383,10109.47
498,0.82805,10109.47
499,0.829717,10033.995
500,0.831383,9951.815000000001
501,0.83305,9951.815000000001
502,0.8347830000000001,9863.525
503,0.836383,9768.009
504,0.83805,9669.289000000001
505,0.839717,9669.289000000001
506,0.841383,9561.478999999999
507,0.84305,9450.763999999999
508,0.8447170000000001,9337.664000000001
509,0.846383,9337.664000000001
510,0.84805,9218.603999999999
511,0.8497169999999999,9101.257
512,0.851383,8978.77
513,0.85305,8978.77
514,0.8547,8852.481
515,0.856367,8728.802
516,0.858033,8728.802
517,0.8597,8604.303
518,0.861367,8481.219999999999
519,0.8630330000000001,8357.986000000001
520,0.8647,8357.986000000001
521,0.866367,8232.593999999999
522,0.86815,8110.553
523,0.8697,7990.524
524,0.871367,7990.524
525,0.8730329999999999,7874.593
526,0.8747,7761.195
527,0.876367,7649.437
528,0.878033,7649.437
529,0.8797,7540.956
530,0.881367,7433.444
531,0.883033,7327.795
532,0.8847,7327.795
533,0.886367,7225.946
534,0.888033,7124.543
535,0.889717,7124.543
536,0.891367,7025.451
537,0.893033,6933.585
538,0.8947000000000001,6840.676
539,0.896367,6840.676
540,0.898033,6753.579
541,0.8997000000000001,6668.791
542,0.901367,6583.333
543,0.903033,6583.333
544,0.9046999999999999,6501.675
545,0.906367,6419.197
546,0.908033,6340.072
547,0.9097,6340.072
548,0.91135,6265.864
549,0.913017,6192.625
550,0.914667,6192.625
551,0.916333,6121.099
552,0.918,6050.021
553,0.919667,5978.495
554,0.921333,5978.495
555,0.923,5910.769
556,0.924667,5847.588
557,0.926333,5787.388
558,0.928,5787.388
559,0.929667,5728.751
560,0.931333,5669.668
561,0.9330000000000001,5611.181
562,0.934667,5611.181
563,0.936333,5555.228
564,0.9379999999999999,5497.783
565,0.939667,5497.783
566,0.941333,5444.735
567,0.9429999999999999,5391.091
568,0.944667,5336.702
569,0.946333,5336.702
570,0.948,5285.591
571,0.949667,5234.331
572,0.951333,5183.443
573,0.95305,5183.443
574,0.9546829999999999,5137.92
575,0.956333,5090.609
576,0.958,5043.894
577,0.959667,5043.894
578,0.961333,4999.638
579,0.963,4956.052
580,0.9646670000000001,4912.168
581,0.966333,4912.168
582,0.968,4871.041
583,0.9696669999999999,4833.341
584,0.971333,4833.341
585,0.973,4793.182
586,0.97465,4756.749
587,0.976317,4719.272
588,0.977983,4719.272
589,0.97965,4679.709
590,0.981317,4642.904
591,0.9829830000000001,4606.172
592,0.98465,4606.172
593,0.98645,4568.398
594,0.9879829999999999,4532.859
595,0.98965,4495.829
596,0.991317,4495.829
597,0.9929829999999999,4462.972
598,0.99465,4428.849
599,0.996317,4428.849
600,0.997983,4398.152
601,0.99965,4367.53
602,1.001317,4336.014
603,1.002983,4336.014
604,1.00465,4307.627
605,1.006317,4276.41
606,1.007983,4247.874
607,1.00965,4247.874
608,1.011317,4218.444
609,1.012983,4190.355
610,1.01465,4164.726
611,1.016317,4164.726
612,1.017983,4138.127
613,1.01965,4110.411
614,1.021317,4084.483
615,1.022983,4084.483
616,1.02465,4054.531
617,1.026317,4028.38
618,1.028,4028.38
619,1.02965,4004.538
620,1.031317,3977.865
621,1.032967,3955.215
622,1.034633,3955.215
623,1.0363,3930.107
624,1.037967,3908.574
625,1.039633,3890.023
626,1.0413,3890.023
627,1.042967,3868.192
628,1.044633,3844.872
629,1.0463,3823.34
630,1.047967,3823.34
631,1.049633,3797.039
632,1.0513,3774.166
633,1.052967,3774.166
634,1.054633,3756.806
635,1.0563,3735.87
636,1.057967,3716.871
637,1.059633,3716.871
638,1.0613,3699.437
639,1.062967,3677.085
640,1.064633,3657.937
641,1.0663,3657.937
642,1.067967,3634.319
643,1.069633,3613.234
644,1.071367,3594.533
645,1.072967,3594.533
646,1.074633,3574.118
647,1.0763,3556.982
648,1.077967,3537.908
649,1.079633,3537.908
650,1.0813,3518.909
651,1.082967,3499.538
652,1.084633,3499.538
653,1.0863,3485.903
654,1.088033,3467.724
655,1.089633,3449.991
656,1.0913,3449.991
657,1.092983,3430.769
658,1.094617,3410.503
659,1.096283,3393.59
660,1.09795,3393.59
661,1.099617,3379.211
662,1.101283,3365.949
663,1.10295,3354.102
664,1.1047,3354.102
665,1.106283,3340.021
666,1.10795,3324.002
667,1.109617,3324.002
668,1.111283,3306.493
669,1.11295,3290.176
670,1.114617,3274.903
671,1.116283,3274.903
672,1.11795,3260.076
673,1.119617,3247.187
674,1.1214,3233.925
675,1.12295,3233.925
676,1.124633,3219.47
677,1.126283,3203.228
678,1.12795,3188.998
679,1.129617,3188.998
680,1.131283,3173.277
681,1.13295,3160.834
682,1.134633,3151
683,1.136283,3151
684,1.13795,3139.526
685,1.139617,3127.232
686,1.141283,3127.232
687,1.14295,3113.747
688,1.144617,3100.336
689,1.146283,3085.136
690,1.14795,3085.136
691,1.149617,3073.588
692,1.151283,3064.275
693,1.152933,3051.981
694,1.1546,3051.981
695,1.156267,3040.656
696,1.157933,3030.226
697,1.1596,3015.25
698,1.161267,3015.25
699,1.162933,3003.329
700,1.1646,2991.483
701,1.166267,2991.483
702,1.167933,2980.977
703,1.1696,2973.452
704,1.171267,2963.469
705,1.172933,2963.469
706,1.1746,2954.528
707,1.176267,2943.128
708,1.177933,2932.549
709,1.1796,2932.549
710,1.181267,2923.012
711,1.182933,2916.232
712,1.1846,2908.558
713,1.186267,2908.558
714,1.187933,2897.68
715,1.1896,2889.037
716,1.191267,2889.037
717,1.192933,2879.128
718,1.1946,2867.654
719,1.196267,2859.98
720,1.197933,2859.98
721,1.1996,2849.251
722,1.20125,2837.852
723,1.202917,2825.782
724,1.204583,2825.782
725,1.20635,2810.955
726,1.207917,2800.375
727,1.209583,2788.678
728,1.21125,2788.678
729,1.212917,2779.737
730,1.214567,2773.181
731,1.216233,2763.42
732,1.217933,2763.42
733,1.219567,2758.056
734,1.221233,2750.754
735,1.222967,2750.754
736,1.224567,2745.017
737,1.226233,2737.418
738,1.2279,2726.689
739,1.229567,2726.689
740,1.231233,2717.525
741,1.2329,2706.87
742,1.234567,2698.451
743,1.236233,2698.451
744,1.2379,2692.044
745,1.239683,2684.221
746,1.241233,2676.249
747,1.2429,2676.249
748,1.244567,2670.959
749,1.246233,2664.179
750,1.2479,2664.179
751,1.249567,2656.281
752,1.251233,2648.756
753,1.2529,2643.242
754,1.254567,2643.242
755,1.256233,2633.855
756,1.2579,2624.169
757,1.259567,2618.879
758,1.261233,2618.879
759,1.2629,2607.405
760,1.264567,2599.508
761,1.266233,2592.281
762,1.2679,2592.281
763,1.269567,2582.297
764,1.271233,2577.901
765,1.2729,2574.325
766,1.274567,2574.325
767,1.276217,2571.046
768,1.277883,2562.478
769,1.27955,2562.478
770,1.281217,2551.377
771,1.282883,2541.169
772,1.28455,2533.942
773,1.286217,2533.942
774,1.287883,2529.547
775,1.28955,2526.865
776,1.291217,2521.798
777,1.292883,2521.798
778,1.29455,2515.391
779,1.296217,2509.505
780,1.297883,2501.905
781,1.299567,2501.905
782,1.301233,2497.584
783,1.302883,2491.251
784,1.30455,2491.251
785,1.306217,2482.31
786,1.307883,2475.455
787,1.30955,2468.675
788,1.311217,2468.675
789,1.312883,2463.981
790,1.31455,2460.778
791,1.316217,2455.041
792,1.317883,2455.041
793,1.31955,2446.696
794,1.321217,2439.246
795,1.322883,2431.944
796,1.324583,2431.944
797,1.326217,2426.356
798,1.327883,2419.054
799,1.32955,2419.054
800,1.331217,2411.827
801,1.332883,2405.718
802,1.334533,2400.428
803,1.3362,2400.428
804,1.337867,2395.66
805,1.339533,2389.625
806,1.34125,2384.558
807,1.342867,2384.558
808,1.344533,2379.641
809,1.3462,2372.786
810,1.347867,2370.328
811,1.349533,2370.328
812,1.3512,2367.347
813,1.352867,2359.077
814,1.354533,2357.14
815,1.3562,2357.14
816,1.357883,2349.615
817,1.359533,2343.208
818,1.3612,2343.208
819,1.362867,2339.557
820,1.364533,2337.471
821,1.3662,2333.894
822,1.367867,2333.894
823,1.369533,2331.51
824,1.3712,2329.052
825,1.372867,2319.813
826,1.374533,2319.813
827,1.3762,2312.437
828,1.377867,2305.135
829,1.379583,2297.238
830,1.3812,2297.238
831,1.382867,2295.077
832,1.384533,2295.896
833,1.3862,2295.896
834,1.387867,2290.606
835,1.389533,2288.073
836,1.3912,2284.05
837,1.392867,2284.05
838,1.394517,2275.035
839,1.396183,2270.937
840,1.39785,2266.69
841,1.399517,2266.69
842,1.401183,2261.773
843,1.40285,2258.345
844,1.404517,2255.216
845,1.406183,2255.216
846,1.40785,2249.777
847,1.409517,2245.456
848,1.411183,2240.017
849,1.41285,2240.017
850,1.414517,2235.398
851,1.416183,2231.598
852,1.41785,2231.598
853,1.419517,2227.426
854,1.421183,2228.171
855,1.42285,2226.457
856,1.424517,2226.457
857,1.426183,2220.347
858,1.42785,2214.983
859,1.429517,2209.097
860,1.431183,2209.097
861,1.43285,2204.478
862,1.434517,2202.466
863,1.436183,2200.827
864,1.43785,2200.827
865,1.439517,2196.059
866,1.441183,2192.557
867,1.442867,2192.557
868,1.444517,2190.545
869,1.446183,2186.149
870,1.44785,2182.499
871,1.449533,2182.499
872,1.4512,2179.071
873,1.452833,2175.57
874,1.4545,2169.013
875,1.456167,2169.013
876,1.457833,2165.735
877,1.4595,2159.327
878,1.461167,2151.43
879,1.462833,2151.43
880,1.4645,2150.61
881,1.466167,2145.991
882,1.467833,2143.309
883,1.4695,2143.309
884,1.471167,2145.246
885,1.472833,2142.34
886,1.4745,2142.34
887,1.4763,2139.36
888,1.477833,2135.783
889,1.4795,2129.674
890,1.481167,2129.674
891,1.482833,2125.651
892,1.4845,2124.757
893,1.486167,2122.67
894,1.487833,2122.67
895,1.4895,2119.541
896,1.491167,2114.624
897,1.492817,2108.887
898,1.494483,2108.887
899,1.49615,2105.459
900,1.497817,2100.244
901,1.499483,2100.244
902,1.50115,2095.029
903,1.502817,2090.558
904,1.504483,2083.48
905,1.50615,2083.48
906,1.507817,2079.681
907,1.509483,2077.743
908,1.51115,2075.806
