"ID","sea_time","fid_signal"
1,0,140.667
2,0.001667,140.645
3,0.003333,140.682
4,0.005,140.674
5,0.006667,140.674
6,0.008333,140.54
7,0.010083,140.198
8,0.011667,140.198
9,0.01335,139.572
10,0.014983,139.251
11,0.01665,139.296
12,0.018317,139.296
13,0.019983,139.9
14,0.02165,140.57
15,0.023317,140.89
16,0.024983,140.89
17,0.026717,140.995
18,0.028317,140.563
19,0.029983,140.533
20,0.03165,140.533
21,0.033317,140.548
22,0.035,140.332
23,0.03665,140.332
24,0.038317,140.496
25,0.039983,140.488
26,0.04165,140.309
27,0.043317,140.309
28,0.044983,140.771
29,0.04665,140.846
30,0.048317,141.099
31,0.049983,141.099
32,0.05165,141.248
33,0.053317,141.144
34,0.054983,141.218
35,0.05665,141.218
36,0.058317,141.062
37,0.059983,140.995
38,0.06165,141.166
39,0.063317,141.166
40,0.064983,140.98
41,0.06665,140.913
42,0.068317,140.913
43,0.069983,140.958
44,0.07165000000000001,140.592
45,0.07331699999999999,140.518
46,0.07496700000000001,140.518
47,0.07663300000000001,140.518
48,0.07829999999999999,140.503
49,0.079967,140.205
50,0.081633,140.205
51,0.0833,140.354
52,0.084967,140.108
53,0.086633,140.086
54,0.0883,140.086
55,0.08996700000000001,140.481
56,0.09163300000000001,140.25
57,0.09329999999999999,140.25
58,0.094967,140.235
59,0.096633,140.086
60,0.0983,139.758
61,0.099967,139.758
62,0.101633,139.706
63,0.1033,140.168
64,0.104967,140.205
65,0.106633,140.205
66,0.1083,140.421
67,0.109967,140.92
68,0.11165,140.51
69,0.1133,140.51
70,0.114967,140.369
71,0.116633,140.227
72,0.1183,140.071
73,0.119967,140.071
74,0.121633,140.421
75,0.1233,140.466
76,0.124967,140.466
77,0.126633,140.414
78,0.128317,140.481
79,0.129967,140.481
80,0.131633,140.481
81,0.1333,140.734
82,0.134967,141.062
83,0.136617,140.816
84,0.138283,140.816
85,0.13995,140.622
86,0.141617,140.265
87,0.143283,140.056
88,0.145067,140.056
89,0.146617,140.093
90,0.148283,140.302
91,0.14995,140.302
92,0.151617,140.607
93,0.153283,140.719
94,0.15495,140.652
95,0.156617,140.652
96,0.158283,140.429
97,0.15995,140.317
98,0.161617,140.354
99,0.163267,140.354
100,0.164933,140.645
101,0.1666,140.592
102,0.168267,140.458
103,0.169933,140.458
104,0.1716,140.332
105,0.173317,140.22
106,0.17495,140.175
107,0.1766,140.175
108,0.178267,140.227
109,0.179933,140.116
110,0.1816,140.116
111,0.183267,139.885
112,0.184933,140.28
113,0.1866,140.771
114,0.188267,140.771
115,0.189933,140.943
116,0.1916,141.017
117,0.193267,140.831
118,0.194917,140.831
119,0.196583,140.414
120,0.19825,140.354
121,0.199917,140.689
122,0.201583,140.689
123,0.20325,140.801
124,0.204917,141.039
125,0.206583,141.039
126,0.20825,141.196
127,0.209917,140.98
128,0.211583,140.958
129,0.21325,140.958
130,0.214917,140.555
131,0.216583,140.563
132,0.21825,140.54
133,0.219917,140.54
134,0.221583,140.458
135,0.22325,140.794
136,0.224917,140.809
137,0.226583,140.809
138,0.22825,141.002
139,0.229933,140.92
140,0.231583,140.92
141,0.23325,141.107
142,0.234917,141.099
143,0.236583,140.913
144,0.23825,140.913
145,0.239917,140.689
146,0.241583,140.421
147,0.24325,140.354
148,0.244917,140.354
149,0.246683,140.518
150,0.24825,140.756
151,0.249917,140.697
152,0.251583,140.697
153,0.25325,140.682
154,0.2549,140.622
155,0.256567,140.592
156,0.258233,140.592
157,0.2599,140.734
158,0.261567,140.801
159,0.26335,140.831
160,0.2649,140.831
161,0.266567,141.248
162,0.268233,141.241
163,0.2699,141.241
164,0.271567,141.121
165,0.273233,140.771
166,0.2749,140.615
167,0.276567,140.615
168,0.278233,140.727
169,0.2799,141.077
170,0.281567,141.613
171,0.283233,141.613
172,0.2849,141.434
173,0.286567,141.151
174,0.288233,141.151
175,0.2899,140.682
176,0.291567,140.063
177,0.293233,139.974
178,0.2949,139.974
179,0.296567,139.982
180,0.298233,140.026
181,0.2999,140.317
182,0.301567,140.317
183,0.303233,140.332
184,0.3049,140.302
185,0.306567,140.22
186,0.308233,140.22
187,0.3099,140.294
188,0.311567,140.645
189,0.313233,140.816
190,0.314883,140.816
191,0.316583,141.211
192,0.318217,141.054
193,0.319883,141.054
194,0.32155,140.622
195,0.323217,140.51
196,0.324883,140.347
197,0.32655,140.347
198,0.328217,140.51
199,0.329883,140.585
200,0.33155,140.727
201,0.333217,140.727
202,0.334883,140.697
203,0.33655,140.779
204,0.338217,141.054
205,0.339883,141.054
206,0.34155,140.883
207,0.343217,141.256
208,0.344883,141.256
209,0.34655,141.256
210,0.348283,141.196
211,0.349883,141.479
212,0.35155,141.479
213,0.353217,141.427
214,0.354883,141.621
215,0.35655,141.881
216,0.358217,141.881
217,0.359883,142.448
218,0.36155,143.677
219,0.363217,145.011
220,0.364883,145.011
221,0.36655,146.516
222,0.368217,148.416
223,0.369883,150.196
224,0.37155,150.196
225,0.373217,152.461
226,0.374867,155.807
227,0.376533,155.807
228,0.3782,159.502
229,0.379867,163.868
230,0.38165,169.784
231,0.3832,169.784
232,0.384867,176.556
233,0.386533,184.648
234,0.3882,194.348
235,0.389867,194.348
236,0.391533,205.413
237,0.3932,218.891
238,0.394867,234.79
239,0.396533,234.79
240,0.3982,253.715
241,0.399867,275.753
242,0.401533,275.753
243,0.4032,300.951
244,0.404867,329.897
245,0.406533,363
246,0.4082,363
247,0.409867,401.162
248,0.411533,444.502
249,0.4132,493.757
250,0.414867,493.757
251,0.416533,548.75
252,0.418217,609.562
253,0.419867,676.043
254,0.421533,676.043
255,0.423217,748.232
256,0.424867,825.852
257,0.426533,825.852
258,0.4282,908.568
259,0.429867,995.8819999999999
260,0.431533,1086.771
261,0.4332,1086.771
262,0.43485,1180.463
263,0.436517,1275.502
264,0.438183,1371.071
265,0.43985,1371.071
266,0.441517,1466.17
267,0.443183,1559.563
268,0.44485,1650.445
269,0.446517,1650.445
270,0.448183,1737.043
271,0.44985,1818.322
272,0.451517,1893.423
273,0.453183,1893.423
274,0.454833,1961.149
275,0.4565,2021.573
276,0.458167,2021.573
277,0.459833,2074.264
278,0.4615,2118.796
279,0.463167,2154.984
280,0.464833,2154.984
281,0.466567,2182.595
282,0.468167,2201.646
283,0.469833,2212.718
284,0.4715,2212.718
285,0.473167,2215.885
286,0.474833,2212.003
287,0.4765,2201.013
288,0.478167,2201.013
289,0.479833,2183.467
290,0.4815,2160.914
291,0.483167,2160.914
292,0.484833,2132.691
293,0.4865,2100.818
294,0.488167,2064.891
295,0.489833,2064.891
296,0.4915,2025.254
297,0.49315,1983.449
298,0.494817,1938.73
299,0.496483,1938.73
300,0.49815,1892.336
301,0.499867,1844.846
302,0.501483,1796.186
303,0.50315,1796.186
304,0.504817,1747.504
305,0.506483,1698.635
306,0.50815,1649.179
307,0.509817,1649.179
308,0.511483,1600.526
309,0.51315,1551.986
310,0.514817,1551.986
311,0.516483,1504.25
312,0.51815,1457.766
313,0.519817,1412.161
314,0.521483,1412.161
315,0.52315,1367.919
316,0.524817,1324.713
317,0.526483,1283.02
318,0.52815,1283.02
319,0.529817,1242.34
320,0.531483,1202.777
321,0.53315,1164.697
322,0.534817,1164.697
323,0.536483,1127.765
324,0.53815,1092.471
325,0.539817,1092.471
326,0.541483,1058.31
327,0.54315,1025.483
328,0.544817,993.952
329,0.5464830000000001,993.952
330,0.54815,963.524
331,0.549817,934.348
332,0.5514829999999999,906.274
333,0.55315,906.274
334,0.5548,879.675
335,0.556467,853.866
336,0.558133,829.324
337,0.5598,829.324
338,0.561467,805.885
339,0.563133,783.011
340,0.5648,761.703
341,0.5664670000000001,761.703
342,0.568133,741.139
343,0.5698,721.2910000000001
344,0.5714669999999999,721.2910000000001
345,0.573133,702.135
346,0.5748,683.419
347,0.576467,665.881
348,0.578133,665.881
349,0.5798,648.931
350,0.581467,633.404
351,0.583133,618.197
352,0.58485,618.197
353,0.586467,603.542
354,0.588133,589.535
355,0.5898,575.811
356,0.591467,575.811
357,0.593133,562.534
358,0.5948,549.659
359,0.596467,549.659
360,0.59815,537.5
361,0.599817,525.534
362,0.601533,514.433
363,0.603133,514.433
364,0.6048,503.749
365,0.606467,493.422
366,0.608133,483.565
367,0.6098,483.565
368,0.611467,474.185
369,0.613133,465.08
370,0.614783,456.437
371,0.6164500000000001,456.437
372,0.618233,447.914
373,0.619783,439.502
374,0.6214499999999999,439.502
375,0.623117,431.418
376,0.624783,423.796
377,0.62645,416.584
378,0.628117,416.584
379,0.629783,409.938
380,0.63145,403.412
381,0.633117,396.885
382,0.634783,396.885
383,0.63645,390.477
384,0.638117,384.025
385,0.639783,377.849
386,0.64145,377.849
387,0.643117,371.836
388,0.644783,366.33
389,0.64645,361.018
390,0.6481170000000001,361.018
391,0.649783,355.735
392,0.65145,351.042
393,0.6531169999999999,351.042
394,0.654783,346.467
395,0.65645,341.661
396,0.658117,337.28
397,0.659783,337.28
398,0.66145,332.654
399,0.663117,328.131
400,0.664783,324.018
401,0.66645,324.018
402,0.668117,320.069
403,0.669817,316.627
404,0.67145,313.014
405,0.6731,313.014
406,0.674767,309.482
407,0.676433,305.936
408,0.6781,305.936
409,0.679767,301.935
410,0.681433,298.463
411,0.6831,295.058
412,0.684767,295.058
413,0.686433,292.033
414,0.6881,289.261
415,0.689767,286.363
416,0.691433,286.363
417,0.6931,283.606
418,0.694767,280.492
419,0.696433,277.892
420,0.6981000000000001,277.892
421,0.699767,275.269
422,0.701433,272.982
423,0.7030999999999999,270.858
424,0.704767,270.858
425,0.706433,268.489
426,0.7081,266.328
427,0.709767,266.328
428,0.711433,263.922
429,0.7131,261.538
430,0.714767,259.288
431,0.716433,259.288
432,0.7181,256.851
433,0.71985,254.624
434,0.721433,252.672
435,0.7231,252.672
436,0.7247670000000001,250.317
437,0.726433,248.335
438,0.7281,246.495
439,0.7297670000000001,246.495
440,0.731433,244.647
441,0.7331,243.187
442,0.73475,243.187
443,0.736533,241.525
444,0.738083,240.155
445,0.73975,238.478
446,0.741417,238.478
447,0.743083,236.601
448,0.74475,234.88
449,0.746417,233.054
450,0.7481,233.054
451,0.749733,231.341
452,0.7514,230.141
453,0.753067,228.733
454,0.754733,228.733
455,0.7564,227.466
456,0.758067,226.2
457,0.759733,225.037
458,0.7614,225.037
459,0.7630670000000001,223.778
460,0.764733,222.31
461,0.7664,222.31
462,0.7680670000000001,221.156
463,0.769733,219.934
464,0.7714,219.107
465,0.773083,219.107
466,0.774733,217.87
467,0.7764,216.477
468,0.778067,214.972
469,0.779733,214.972
470,0.7814,213.638
471,0.783067,212.692
472,0.784733,211.827
473,0.7864,211.827
474,0.788067,211
475,0.789733,209.779
476,0.7914,209.779
477,0.79305,208.363
478,0.794717,207.223
479,0.796383,206.165
480,0.79805,206.165
481,0.799717,205.122
482,0.801383,204.183
483,0.80305,203.535
484,0.804717,203.535
485,0.806383,202.73
486,0.80805,202.149
487,0.809717,201.844
488,0.811383,201.844
489,0.8130500000000001,200.853
490,0.814717,199.676
491,0.816383,199.676
492,0.8180500000000001,198.834
493,0.819717,197.731
494,0.821383,196.956
495,0.8230499999999999,196.956
496,0.824717,196.457
497,0.826383,195.831
498,0.82805,195.473
499,0.829717,195.473
500,0.831383,195.108
501,0.83305,194.557
502,0.834717,193.633
503,0.836383,193.633
504,0.838117,192.702
505,0.839717,191.987
506,0.841383,191.033
507,0.84305,191.033
508,0.8447170000000001,190.429
509,0.846383,190.005
510,0.84805,190.005
511,0.8497169999999999,189.252
512,0.851383,188.842
513,0.85305,188.582
514,0.8547670000000001,188.582
515,0.856367,187.986
516,0.858033,187.397
517,0.8597,186.756
518,0.861367,186.756
519,0.8630330000000001,185.974
520,0.8647,185.49
521,0.866367,184.812
522,0.8680330000000001,184.812
523,0.8697,184.216
524,0.8715000000000001,183.962
525,0.8730329999999999,183.962
526,0.8747,183.173
527,0.876367,182.956
528,0.878033,182.338
529,0.8797,182.338
530,0.881367,181.437
531,0.883033,181.071
532,0.8847,180.662
533,0.886367,180.662
534,0.8880670000000001,180.438
535,0.8897,180.118
536,0.891367,179.566
537,0.893033,179.566
538,0.8947000000000001,178.948
539,0.896367,178.3
540,0.898033,177.838
541,0.8997000000000001,177.838
542,0.901367,177.674
543,0.903033,177.324
544,0.9046999999999999,177.324
545,0.906367,177.264
546,0.908033,176.78
547,0.9097,176.214
548,0.911367,176.214
549,0.913033,175.26
550,0.914683,174.94
551,0.91635,174.806
552,0.918017,174.806
553,0.919683,174.463
554,0.92135,174.768
555,0.923017,174.195
556,0.924683,174.195
557,0.92635,173.785
558,0.928017,173.286
559,0.929683,173.286
560,0.93135,172.943
561,0.933017,172.645
562,0.934683,172.518
563,0.93635,172.518
564,0.938017,172.496
565,0.939683,171.974
566,0.94135,171.721
567,0.943017,171.721
568,0.9446830000000001,171.155
569,0.94635,170.931
570,0.948017,170.849
571,0.9496830000000001,170.849
572,0.95135,170.797
573,0.953017,170.723
574,0.9546829999999999,169.925
575,0.9564,169.925
576,0.958017,169.232
577,0.959683,168.711
578,0.961367,168.711
579,0.963017,168.361
580,0.964683,168.644
581,0.96635,168.636
582,0.968017,168.636
583,0.969683,168.16
584,0.97135,167.698
585,0.973033,167.198
586,0.974683,167.198
587,0.976333,166.982
588,0.978,166.968
589,0.979667,167.146
590,0.981333,167.146
591,0.983,166.878
592,0.984667,166.573
593,0.986333,166.573
594,0.988,166.319
595,0.989783,165.753
596,0.991333,165.634
597,0.993,165.634
598,0.994667,165.619
599,0.996333,165.619
600,0.998,165.425
601,0.999667,165.425
602,1.00135,165.045
603,1.003,164.531
604,1.004667,164.159
605,1.006333,164.159
606,1.008,164.01
607,1.009667,164.054
608,1.011333,164.054
609,1.013,164.054
610,1.014667,163.816
611,1.016333,163.712
612,1.018,163.712
613,1.019667,163.384
614,1.021333,162.855
615,1.023,162.81
616,1.024667,162.81
617,1.026333,162.691
618,1.028,162.46
619,1.029667,162.378
620,1.031333,162.378
621,1.033,161.76
622,1.03465,161.223
623,1.03635,161.044
624,1.037967,161.044
625,1.039633,160.88
626,1.0413,161
627,1.042967,161
628,1.044633,160.784
629,1.0463,160.843
630,1.047967,160.784
631,1.049633,160.784
632,1.0513,160.94
633,1.052967,160.761
634,1.054633,160.486
635,1.0563,160.486
636,1.057967,160.426
637,1.059633,160.076
638,1.0613,160.12
639,1.062967,160.12
640,1.064633,159.964
641,1.0663,159.778
642,1.067967,159.778
643,1.069633,159.316
644,1.0713,159.211
645,1.072967,158.884
646,1.074633,158.884
647,1.0763,158.519
648,1.077967,158.556
649,1.079633,158.384
650,1.0813,158.384
651,1.082967,158.265
652,1.084633,158.355
653,1.0863,158.295
654,1.087967,158.295
655,1.089633,158.079
656,1.091317,158.139
657,1.092967,157.982
658,1.094617,157.982
659,1.096283,157.61
660,1.09795,157.684
661,1.099617,157.684
662,1.101283,157.304
663,1.10295,157.379
664,1.104617,157.446
665,1.106283,157.446
666,1.10805,157.259
667,1.109633,157.565
668,1.111317,157.177
669,1.11295,157.177
670,1.114617,157.118
671,1.116283,157.11
672,1.11795,156.79
673,1.119617,156.79
674,1.121283,156.678
675,1.12295,156.716
676,1.124617,156.716
677,1.126283,156.671
678,1.12795,156.499
679,1.129617,156.365
680,1.131283,156.365
681,1.13295,156.067
682,1.134617,155.799
683,1.136283,155.851
684,1.13795,155.851
685,1.139617,156.03
686,1.141283,156.045
687,1.14295,156.045
688,1.144617,156.045
689,1.146283,155.941
690,1.14795,155.568
691,1.149617,155.36
692,1.151283,155.36
693,1.15295,155.33
694,1.1546,154.972
695,1.156267,154.972
696,1.157933,155.054
697,1.1596,154.92
698,1.161267,154.89
699,1.162933,154.89
700,1.1646,155.263
701,1.166267,155.322
702,1.167933,155.33
703,1.1696,155.33
704,1.171267,155.032
705,1.172933,154.607
706,1.1746,154.145
707,1.176283,154.145
708,1.177933,153.944
709,1.179633,154.115
710,1.181267,154.115
711,1.182933,154.13
712,1.1846,154.294
713,1.186267,154.242
714,1.187933,154.242
715,1.1896,153.81
716,1.191267,153.482
717,1.192983,152.975
718,1.1946,152.975
719,1.196267,152.953
720,1.197933,153.065
721,1.1996,152.871
722,1.201267,152.871
723,1.202933,152.968
724,1.2046,152.752
725,1.206267,152.752
726,1.207933,152.394
727,1.2096,152.461
728,1.211267,152.744
729,1.212917,152.744
730,1.214583,152.864
731,1.21625,152.759
732,1.217917,152.677
733,1.219583,152.677
734,1.22125,152.379
735,1.222917,152.379
736,1.224583,152.178
737,1.226367,152.178
738,1.227917,152.238
739,1.229583,152.364
740,1.23125,152.074
741,1.232917,152.074
742,1.234583,152.104
743,1.23625,152.178
744,1.237917,152.178
745,1.239583,151.932
746,1.24125,151.798
747,1.242917,151.761
748,1.244583,151.761
749,1.24625,151.53
750,1.247917,151.5
751,1.249583,151.619
752,1.25125,151.619
753,1.252917,151.992
754,1.254583,151.955
755,1.256267,151.947
756,1.257967,151.947
757,1.259583,151.865
758,1.26125,151.716
759,1.262917,151.716
760,1.264583,151.515
761,1.26625,151.612
762,1.267917,151.53
763,1.269583,151.53
764,1.27125,151.344
765,1.272917,151.262
766,1.274567,150.971
767,1.276233,150.971
768,1.2779,150.867
769,1.279567,150.718
770,1.281233,150.859
771,1.2829,150.859
772,1.284567,150.71
773,1.286233,150.815
774,1.2879,150.762
775,1.289567,150.762
776,1.291233,150.643
777,1.2929,150.762
778,1.294567,150.762
779,1.296233,150.524
780,1.2979,150.383
781,1.299567,150.33
782,1.301233,150.33
783,1.3029,150.137
784,1.304567,150.204
785,1.306233,150.107
786,1.3079,150.107
787,1.309567,149.921
788,1.311233,149.69
789,1.3129,149.705
790,1.314567,149.705
791,1.316233,149.868
792,1.3179,149.965
793,1.319567,149.965
794,1.321233,150.025
795,1.3229,149.868
796,1.324567,149.898
797,1.326233,149.898
798,1.3279,149.757
799,1.3296,149.57
800,1.331217,149.496
801,1.332867,149.496
802,1.334533,149.213
803,1.3362,149.414
804,1.337867,149.608
805,1.339533,149.608
806,1.3412,149.377
807,1.342867,149.295
808,1.34465,149.123
809,1.3462,149.123
810,1.347867,148.982
811,1.349533,149.31
812,1.351217,149.31
813,1.352867,149.369
814,1.354533,149.176
815,1.3562,149.123
816,1.357867,149.123
817,1.359533,148.781
818,1.3612,149.101
819,1.362867,149.474
820,1.364533,149.474
821,1.3662,149.511
822,1.367867,149.637
823,1.369533,149.488
824,1.3712,149.488
825,1.372867,149.272
826,1.374533,149.451
827,1.3762,149.451
828,1.377867,149.474
829,1.379533,149.429
830,1.3812,149.131
831,1.382867,149.131
832,1.384533,149.086
833,1.3862,149.108
834,1.387867,148.982
835,1.389533,148.982
836,1.3912,149.414
837,1.39285,149.146
838,1.394517,148.952
839,1.396183,148.952
840,1.39785,148.669
841,1.399517,148.468
842,1.401183,148.468
843,1.402883,148.214
844,1.404517,148.259
845,1.406183,148.527
846,1.40785,148.527
847,1.409517,148.274
848,1.411183,148.758
849,1.41285,148.781
850,1.414517,148.781
851,1.416183,148.259
852,1.41785,148.408
853,1.419517,148.162
854,1.421183,148.162
855,1.42285,147.961
856,1.424517,148.11
857,1.426183,147.834
858,1.42785,147.834
859,1.429567,147.611
860,1.431183,147.35
861,1.43285,147.35
862,1.434517,147.149
863,1.436183,147.067
864,1.43785,147.134
865,1.439517,147.134
866,1.441183,147.507
867,1.44285,147.842
868,1.444517,147.738
869,1.44625,147.738
870,1.44785,147.671
871,1.449517,147.559
872,1.451183,147.715
873,1.452833,147.715
874,1.4545,148.177
875,1.456167,148.244
876,1.457833,148.244
877,1.4595,147.991
878,1.461167,147.507
879,1.46295,147.104
880,1.4645,147.104
881,1.466167,146.851
882,1.467833,146.784
883,1.4695,146.993
884,1.471167,146.993
885,1.472833,147.238
886,1.4745,147.715
887,1.476167,147.872
888,1.477833,147.872
889,1.4795,147.678
890,1.481167,147.395
891,1.482833,147.134
892,1.4845,147.134
893,1.486167,146.896
894,1.487833,147.03
895,1.4895,147.03
896,1.491167,146.829
897,1.492833,146.754
898,1.4945,146.702
899,1.496167,146.702
900,1.497833,146.464
901,1.4995,146.747
902,1.501167,146.814
903,1.502833,146.814
904,1.5045,147.216
905,1.506167,147.618
906,1.507833,147.44
907,1.5095,147.44
908,1.511167,147.223
909,1.512817,146.94
910,1.514483,146.94
911,1.51615,146.717
912,1.517817,146.702
913,1.519483,146.665
914,1.52115,146.665
915,1.522817,146.575
916,1.524483,146.471
917,1.52615,146.389
918,1.527817,146.389
919,1.529483,146.344
920,1.53115,146.203
921,1.532817,146.113
922,1.534483,146.113
923,1.536183,146.158
924,1.537817,146.374
925,1.539483,146.635
926,1.54115,146.635
927,1.542833,146.896
928,1.544483,147.052
929,1.54615,147.052
930,1.547833,146.799
931,1.549483,146.896
932,1.55115,146.881
933,1.552817,146.881
934,1.554483,146.702
935,1.55615,146.896
936,1.557817,146.896
937,1.559483,146.896
938,1.56115,146.635
939,1.562817,146.635
940,1.564583,146.56
941,1.56615,146.56
942,1.567817,146.173
943,1.569483,145.979
944,1.57115,145.979
945,1.5728,146.061
946,1.574467,146.046
947,1.576133,146.285
948,1.5778,146.285
949,1.579483,146.493
950,1.5812,146.538
951,1.5828,146.352
952,1.584467,146.352
953,1.586133,146.337
954,1.5878,146.382
955,1.589467,146.069
956,1.591133,146.069
957,1.5928,145.86
958,1.594467,145.696
959,1.596133,145.763
960,1.597917,145.763
961,1.599467,145.972
