"ID","sea_time","fid_signal"
1,0,1170.561
2,0.001667,1170.561
3,0.003317,1169.741
4,0.004983,1169.22
5,0.006683,1164.153
6,0.008317,1164.153
7,0.009983000000000001,1164.898
8,0.01165,1166.537
9,0.013317,1166.537
10,0.014983,1164.302
11,0.01665,1166.761
12,0.018317,1169.667
13,0.019983,1169.667
14,0.02165,1169.741
15,0.023317,1172.125
16,0.024983,1170.114
17,0.02665,1170.114
18,0.028383,1170.039
19,0.029983,1169.816
20,0.03165,1168.102
21,0.033317,1168.102
22,0.034983,1168.847
23,0.03665,1169.592
24,0.038317,1170.71
25,0.039983,1170.71
26,0.04165,1169.667
27,0.043317,1170.561
28,0.045033,1170.561
29,0.04665,1170.263
30,0.048317,1170.486
31,0.049983,1173.094
32,0.05165,1173.094
33,0.053317,1173.839
34,0.054983,1172.051
35,0.05665,1168.922
36,0.058317,1168.922
37,0.059983,1165.569
38,0.06175,1165.792
39,0.0633,1166.761
40,0.064967,1166.761
41,0.066633,1167.059
42,0.0683,1168.847
43,0.069967,1168.847
44,0.071633,1169.22
45,0.0733,1169.89
46,0.07496700000000001,1169.071
47,0.07663300000000001,1169.071
48,0.07829999999999999,1171.157
49,0.079967,1171.678
50,0.081633,1169.145
51,0.0833,1169.145
52,0.084967,1171.976
53,0.086633,1169.369
54,0.0883,1165.047
55,0.08996700000000001,1165.047
56,0.09163300000000001,1165.867
57,0.09329999999999999,1166.016
58,0.094967,1166.016
59,0.096633,1165.271
60,0.0983,1168.475
61,0.099967,1170.71
62,0.101633,1170.71
63,0.1033,1168.475
64,0.104967,1167.58
65,0.106633,1164.898
66,0.1083,1164.898
67,0.109967,1162.365
68,0.111633,1163.334
69,0.1133,1164.526
70,0.114967,1164.526
71,0.116633,1167.432
72,0.1183,1169.369
73,0.119967,1172.125
74,0.121633,1172.125
75,0.123283,1175.478
76,0.12495,1172.721
77,0.126617,1172.721
78,0.128283,1171.231
79,0.12995,1170.859
80,0.131617,1167.133
81,0.133283,1167.133
82,0.13495,1165.047
83,0.136617,1164.824
84,0.138283,1165.047
85,0.13995,1165.047
86,0.141617,1166.835
87,0.143283,1171.604
88,0.14495,1170.561
89,0.146683,1170.561
90,0.148283,1166.463
91,0.14995,1165.718
92,0.151617,1165.718
93,0.153283,1166.686
94,0.15495,1170.114
95,0.156617,1168.102
96,0.158283,1168.102
97,0.15995,1165.569
98,0.161617,1162.812
99,0.163283,1162.44
100,0.16495,1162.44
101,0.166617,1164.451
102,0.168283,1168.4
103,0.16995,1167.059
104,0.171617,1167.059
105,0.173283,1164.377
106,0.17495,1164.153
107,0.176617,1163.706
108,0.178283,1163.706
109,0.180067,1167.655
110,0.181617,1169.071
111,0.183267,1169.071
112,0.184933,1173.317
113,0.186617,1174.882
114,0.188267,1174.733
115,0.189967,1174.733
116,0.1916,1175.851
117,0.193267,1173.765
118,0.194933,1171.306
119,0.1966,1171.306
120,0.198267,1168.624
121,0.199933,1167.357
122,0.2016,1166.686
123,0.203267,1166.686
124,0.204933,1167.208
125,0.2066,1170.635
126,0.208267,1170.635
127,0.209933,1169.369
128,0.2116,1168.027
129,0.213267,1165.941
130,0.214933,1165.941
131,0.2166,1162.291
132,0.218267,1161.471
133,0.219933,1161.322
134,0.2216,1161.322
135,0.223267,1161.024
136,0.224933,1160.875
137,0.2266,1161.247
138,0.228267,1161.247
139,0.229933,1163.632
140,0.2316,1167.059
141,0.233267,1170.039
142,0.234933,1170.039
143,0.2366,1171.231
144,0.238267,1168.4
145,0.239933,1168.4
146,0.2416,1164.973
147,0.243267,1165.271
148,0.244933,1164.526
149,0.246583,1164.526
150,0.24825,1165.792
151,0.249917,1167.357
152,0.251617,1167.729
153,0.25325,1167.729
154,0.254917,1170.337
155,0.256583,1172.945
156,0.25825,1174.36
157,0.259917,1174.36
158,0.261583,1175.925
159,0.263267,1176.968
160,0.264983,1173.69
161,0.266583,1173.69
162,0.26825,1173.765
163,0.269917,1171.976
164,0.271583,1171.976
165,0.273267,1167.655
166,0.274917,1166.612
167,0.276583,1166.314
168,0.27825,1166.314
169,0.279917,1164.228
170,0.281583,1165.196
171,0.28325,1166.388
172,0.284917,1166.388
173,0.286583,1164.526
174,0.28825,1163.408
175,0.2899,1163.408
176,0.291567,1162.738
177,0.293233,1165.643
178,0.2949,1169.071
179,0.296567,1169.071
180,0.298333,1171.008
181,0.2999,1171.529
182,0.30155,1168.773
183,0.303217,1168.773
184,0.304883,1167.133
185,0.30655,1167.282
186,0.308217,1168.922
187,0.309883,1168.922
188,0.31155,1172.051
189,0.313217,1171.306
190,0.314883,1172.423
191,0.31655,1172.423
192,0.318217,1170.784
193,0.319883,1167.059
194,0.32155,1167.059
195,0.323217,1166.016
196,0.324883,1165.718
197,0.32655,1168.624
198,0.328217,1168.624
199,0.329883,1170.859
200,0.33155,1171.604
201,0.333217,1169.965
202,0.334883,1169.965
203,0.33655,1166.239
204,0.338217,1166.537
205,0.339883,1165.643
206,0.34155,1165.643
207,0.343217,1166.463
208,0.344883,1168.027
209,0.346567,1168.027
210,0.348217,1169.741
211,0.349883,1169.592
212,0.35155,1165.494
213,0.353217,1165.494
214,0.354883,1164.824
215,0.35655,1164.973
216,0.358217,1167.879
217,0.359883,1167.879
218,0.36155,1170.71
219,0.3632,1169.22
220,0.364867,1165.122
221,0.366533,1165.122
222,0.3682,1162.663
223,0.369867,1165.345
224,0.371533,1169.22
225,0.3732,1169.22
226,0.374867,1170.784
227,0.376533,1173.392
228,0.3782,1173.392
229,0.379867,1174.36
230,0.381533,1173.019
231,0.38325,1172.647
232,0.384867,1172.647
233,0.386533,1170.561
234,0.3882,1172.2
235,0.389867,1175.851
236,0.391533,1175.851
237,0.3932,1179.129
238,0.3949,1181.811
239,0.396533,1180.545
240,0.3982,1180.545
241,0.399917,1182.482
242,0.401533,1185.536
243,0.4032,1185.536
244,0.404867,1187.995
245,0.406533,1193.807
246,0.4082,1195.148
247,0.409867,1195.148
248,0.411533,1199.394
249,0.4132,1208.857
250,0.414867,1220.182
251,0.41665,1220.182
252,0.4182,1246.408
253,0.419867,1288.801
254,0.421533,1362.562
255,0.423183,1362.562
256,0.42485,1484.23
257,0.426517,1682.788
258,0.428183,1986.399
259,0.42985,1986.399
260,0.431517,2431.87
261,0.433183,3066.957
262,0.43485,3066.957
263,0.436517,3928.84
264,0.438183,5062.297
265,0.439867,6498.993
266,0.441517,6498.993
267,0.443183,8255.393
268,0.44485,10348.707
269,0.446517,12783.185
270,0.4482,12783.185
271,0.44985,15553.906
272,0.451517,18646.791
273,0.453183,22030.771
274,0.45485,22030.771
275,0.456517,25657.416
276,0.458183,29467.865
277,0.45985,29467.865
278,0.461517,33382.922
279,0.463183,37308.855
280,0.46485,41144.938
281,0.466517,41144.938
282,0.468183,44786.484
283,0.46985,48146.172
284,0.471517,51134.527
285,0.473183,51134.527
286,0.47485,53678.973
287,0.476517,55725.871
288,0.478183,57228.805
289,0.47985,57228.805
290,0.4815,58173.238
291,0.483167,58566.406
292,0.484833,58566.406
293,0.4865,58427.676
294,0.488167,57795.121
295,0.489833,56720.898
296,0.4915,56720.898
297,0.493167,55274.59
298,0.494833,53521.992
299,0.4965,51537.676
300,0.498167,51537.676
301,0.499833,49386.098
302,0.5014999999999999,47127.754
303,0.503167,44818.895
304,0.504833,44818.895
305,0.5065,42507.945
306,0.508167,40234.773
307,0.509833,38027.168
308,0.5115,38027.168
309,0.513167,35910.383
310,0.514833,33896.789
311,0.5165,33896.789
312,0.518283,31995.326
313,0.519833,30213.818
314,0.5215,28548.465
315,0.523167,28548.465
316,0.524833,27001.426
317,0.5265,25566.742
318,0.5281670000000001,24238.006
319,0.529833,24238.006
320,0.5315,23008.361
321,0.5331669999999999,21865.443
322,0.534933,20810.887
323,0.5365,20810.887
324,0.538167,19834.34
325,0.539833,18935.354
326,0.5415,18935.354
327,0.54315,18107.891
328,0.5448499999999999,17336.682
329,0.5464830000000001,16622.096
330,0.54815,16622.096
331,0.549817,15960.038
332,0.5514829999999999,15344.023
333,0.55315,14773.458
334,0.554817,14773.458
335,0.5564829999999999,14241.859
336,0.55815,13744.459
337,0.559817,13279.17
338,0.561483,13279.17
339,0.56315,12847.483
340,0.564817,12445.822
341,0.566483,12063.459
342,0.56815,12063.459
343,0.569817,11705.31
344,0.571483,11369.139
345,0.57315,11369.139
346,0.574817,11051.446
347,0.576483,10752.901
348,0.5781500000000001,10470.822
349,0.579817,10470.822
350,0.581467,10204.837
351,0.583133,9956.732
352,0.5848,9726.733
353,0.586467,9726.733
354,0.588133,9506.643
355,0.5898,9298.771000000001
356,0.591467,9096.638000000001
357,0.593133,9096.638000000001
358,0.5948,8902.624
359,0.596483,8723.811
360,0.598133,8723.811
361,0.5998,8551.031000000001
362,0.60145,8382.723
363,0.603117,8223.353999999999
364,0.604783,8223.353999999999
365,0.60645,8069.798
366,0.608117,7924.885
367,0.609783,7787.719
368,0.611467,7787.719
369,0.613117,7656.887
370,0.614783,7531.345
371,0.6164500000000001,7406.771
372,0.618117,7406.771
373,0.6198,7289.201
374,0.6214499999999999,7179.156
375,0.623133,7069.26
376,0.624783,7069.26
377,0.62645,6967.56
378,0.628117,6869.137
379,0.629783,6869.137
380,0.63145,6769.821
381,0.633117,6675.869
382,0.634783,6585.27
383,0.636517,6585.27
384,0.638117,6499.812
385,0.639783,6415.099
386,0.64145,6334.409
387,0.643117,6334.409
388,0.644783,6253.272
389,0.64645,6174.52
390,0.6481170000000001,6100.61
391,0.649783,6100.61
392,0.65145,6025.583
393,0.653233,5956.218
394,0.654783,5956.218
395,0.65645,5887.225
396,0.658117,5820.617
397,0.659783,5761.236
398,0.66145,5761.236
399,0.6631,5699.396
400,0.664767,5640.388
401,0.6664330000000001,5582.049
402,0.6681,5582.049
403,0.6699000000000001,5523.637
404,0.6714329999999999,5467.236
405,0.6731,5410.09
406,0.674767,5410.09
407,0.676433,5354.881
408,0.6781,5298.927
409,0.679767,5298.927
410,0.681433,5244.762
411,0.683117,5194.545
412,0.6848,5144.924
413,0.686433,5144.924
414,0.6881,5100.071
415,0.689767,5054.846
416,0.691433,5010.292
417,0.6931,5010.292
418,0.694767,4964.769
419,0.696433,4919.097
420,0.6981000000000001,4877.001
421,0.699767,4877.001
422,0.701433,4834.831
423,0.7030999999999999,4794.001
424,0.704767,4755.035
425,0.706433,4755.035
426,0.7081,4716.143
427,0.709767,4677.4
428,0.711433,4677.4
429,0.7131,4642.01
430,0.714767,4603.863
431,0.716433,4566.312
432,0.7181,4566.312
433,0.719767,4530.177
434,0.721417,4490.54
435,0.723083,4454.33
436,0.72475,4454.33
437,0.726417,4420.802
438,0.728083,4382.133
439,0.72975,4348.308
440,0.731417,4348.308
441,0.733083,4312.247
442,0.73475,4276.112
443,0.736417,4276.112
444,0.738083,4247.799
445,0.73975,4215.985
446,0.741417,4186.109
447,0.743083,4186.109
448,0.74475,4153.177
449,0.746417,4121.289
450,0.7480830000000001,4092.008
451,0.74975,4092.008
452,0.751417,4061.535
453,0.7530829999999999,4034.266
454,0.7548,4004.836
455,0.756417,4004.836
456,0.758083,3976.002
457,0.75975,3948.808
458,0.761417,3922.507
459,0.763083,3922.507
460,0.76475,3898.144
461,0.766417,3871.471
462,0.768083,3871.471
463,0.76975,3842.711
464,0.771483,3815.07
465,0.773083,3787.13
466,0.77475,3787.13
467,0.776417,3762.841
468,0.778083,3740.191
469,0.7797500000000001,3716.797
470,0.781417,3716.797
471,0.783067,3690.347
472,0.784733,3664.717
473,0.7864,3639.832
474,0.788183,3639.832
475,0.789733,3616.363
476,0.7914,3594.607
477,0.793067,3594.607
478,0.794733,3571.287
479,0.7964,3548.339
480,0.798067,3523.752
481,0.799733,3523.752
482,0.8014,3501.028
483,0.803067,3479.272
484,0.804733,3456.25
485,0.8064,3456.25
486,0.808067,3433.302
487,0.809733,3407.747
488,0.8114,3383.234
489,0.813067,3383.234
490,0.814733,3360.659
491,0.8164,3338.084
492,0.818067,3319.83
493,0.819733,3319.83
494,0.8214,3301.054
495,0.823067,3281.161
496,0.82475,3281.161
497,0.8264,3261.268
498,0.828067,3243.61
499,0.8297330000000001,3226.474
500,0.8314,3226.474
501,0.833067,3210.083
502,0.8347329999999999,3192.499
503,0.8364,3172.085
504,0.838067,3172.085
505,0.839733,3151.596
506,0.8414,3132.522
507,0.84305,3113.374
508,0.8447170000000001,3113.374
509,0.846383,3092.438
510,0.84805,3074.11
511,0.8497169999999999,3074.11
512,0.8514,3054.738
513,0.85305,3037.08
514,0.8547169999999999,3020.093
515,0.8564000000000001,3020.093
516,0.85805,3001.913
517,0.859717,2983.362
518,0.861383,2963.841
519,0.86305,2963.841
520,0.864717,2946.779
521,0.866383,2929.941
522,0.86805,2913.55
523,0.869717,2913.55
524,0.871367,2900.66
525,0.87305,2882.779
526,0.8747,2882.779
527,0.876367,2865.121
528,0.878033,2850.667
529,0.8797,2833.53
530,0.881367,2833.53
531,0.883033,2819.374
532,0.8847,2806.41
533,0.886367,2790.094
534,0.888033,2790.094
535,0.889767,2772.883
536,0.891367,2757.311
537,0.893033,2741.143
538,0.8947000000000001,2741.143
539,0.896367,2723.113
540,0.898033,2709.702
541,0.8997000000000001,2693.087
542,0.90135,2693.087
543,0.90305,2678.037
544,0.904683,2661.571
545,0.90645,2646.67
546,0.908017,2646.67
547,0.909683,2630.875
548,0.91135,2614.185
549,0.913017,2614.185
550,0.914683,2601.519
551,0.91635,2586.096
552,0.918017,2576.336
553,0.919683,2576.336
554,0.92135,2561.51
555,0.923017,2546.832
556,0.924683,2533.645
557,0.92635,2533.645
558,0.928017,2520.457
559,0.929683,2509.281
560,0.93135,2509.281
561,0.933017,2499.297
562,0.934683,2487.972
563,0.93635,2472.922
564,0.938017,2472.922
565,0.939683,2460.554
566,0.94135,2447.814
567,0.943017,2435.893
568,0.9446830000000001,2435.893
569,0.94635,2424.642
570,0.948017,2411.157
571,0.9496830000000001,2398.118
572,0.95135,2398.118
573,0.953017,2383.441
574,0.9546829999999999,2368.465
575,0.95635,2359.823
576,0.958017,2359.823
577,0.959683,2351.031
578,0.96135,2339.482
579,0.963,2339.482
580,0.9646670000000001,2331.436
581,0.966333,2317.95
582,0.968,2303.794
583,0.9696669999999999,2303.794
584,0.9714,2292.395
585,0.973,2277.94
586,0.974667,2264.678
587,0.976333,2264.678
588,0.978,2254.024
589,0.979667,2244.636
590,0.981333,2235.174
591,0.983,2235.174
592,0.984667,2228.245
593,0.986333,2218.112
594,0.988,2218.112
595,0.989667,2209.321
596,0.991333,2201.125
597,0.993,2188.906
598,0.994667,2188.906
599,0.996333,2178.103
600,0.998,2164.692
601,0.999667,2153.739
602,1.001333,2153.739
603,1.003,2144.426
604,1.004667,2135.635
605,1.006333,2127.96
606,1.008017,2127.96
607,1.009667,2116.337
608,1.011333,2106.354
609,1.013,2093.837
610,1.014667,2093.837
611,1.016333,2080.873
612,1.018,2070.889
613,1.019667,2070.889
614,1.021333,2060.532
615,1.022983,2054.498
616,1.024783,2051.443
617,1.026333,2051.443
618,1.027983,2044.812
619,1.02965,2037.063
620,1.031317,2027.377
621,1.032983,2027.377
622,1.03465,2015.531
623,1.036317,2009.794
624,1.037983,2001.375
625,1.03965,2001.375
626,1.041317,1995.862
627,1.042983,1991.317
628,1.04465,1991.317
629,1.046367,1983.941
630,1.047983,1975.67
631,1.04965,1966.73
632,1.051317,1966.73
633,1.052983,1956.597
634,1.05465,1944.825
635,1.056317,1937.598
636,1.057983,1937.598
637,1.05965,1932.085
638,1.061317,1922.101
639,1.062983,1917.332
640,1.06465,1917.332
641,1.066317,1912.639
642,1.067983,1906.455
643,1.06965,1904.07
644,1.071317,1904.07
645,1.072983,1895.428
646,1.07465,1885.444
647,1.076317,1885.444
648,1.077983,1875.758
649,1.07965,1866.445
650,1.081317,1859.665
651,1.082967,1859.665
652,1.084633,1856.089
653,1.0863,1849.458
654,1.087967,1841.188
655,1.089633,1841.188
656,1.0913,1837.388
657,1.092967,1829.714
658,1.094633,1820.773
659,1.0963,1820.773
660,1.097967,1818.463
661,1.099633,1808.554
662,1.1013,1808.554
663,1.102967,1800.433
664,1.104633,1797.08
665,1.1063,1789.406
666,1.107967,1789.406
667,1.10965,1784.787
668,1.1113,1780.242
669,1.112967,1772.27
670,1.114633,1772.27
671,1.1163,1766.16
672,1.117967,1759.38
673,1.119633,1753.494
674,1.1213,1753.494
675,1.122967,1750.067
676,1.124633,1742.393
677,1.1263,1742.393
678,1.127967,1737.252
679,1.129633,1733.08
680,1.1313,1726.523
681,1.132967,1726.523
682,1.134633,1721.457
683,1.1363,1713.708
684,1.137967,1707.45
685,1.139633,1707.45
686,1.1413,1703.575
687,1.143083,1699.552
688,1.144617,1696.274
689,1.146283,1696.274
690,1.14795,1691.505
691,1.149617,1685.098
692,1.151283,1677.573
693,1.15295,1677.573
694,1.154617,1674.294
695,1.156283,1670.122
696,1.15795,1670.122
697,1.159617,1665.13
698,1.161283,1663.715
699,1.162933,1657.605
700,1.1646,1657.605
701,1.166267,1650.453
702,1.167933,1644.343
703,1.1696,1637.563
704,1.171267,1637.563
705,1.172933,1634.657
706,1.1746,1633.093
707,1.176267,1630.485
708,1.177933,1630.485
709,1.1796,1627.132
710,1.181267,1621.768
711,1.182933,1621.768
712,1.1846,1617.149
713,1.186267,1613.721
714,1.187933,1610.89
715,1.1896,1610.89
716,1.191267,1607.314
717,1.192933,1603.439
718,1.1946,1598.224
719,1.196267,1598.224
720,1.197933,1593.53
721,1.1996,1590.625
722,1.201267,1585.782
723,1.202917,1585.782
724,1.204583,1583.248
725,1.20625,1579.523
726,1.207917,1574.755
727,1.209583,1574.755
728,1.21125,1570.657
729,1.212917,1563.504
730,1.214583,1563.504
731,1.21625,1561.493
732,1.217917,1561.791
733,1.219583,1557.693
734,1.22125,1557.693
735,1.222917,1555.085
736,1.224583,1550.689
737,1.22625,1544.58
738,1.227983,1544.58
739,1.229583,1544.133
740,1.23125,1541.376
741,1.232917,1539.588
742,1.234583,1539.588
743,1.23625,1534.82
744,1.237917,1530.945
745,1.239583,1530.945
746,1.24125,1528.04
747,1.242917,1520.887
748,1.244583,1519.471
749,1.24625,1519.471
750,1.247917,1516.64
751,1.249583,1514.405
752,1.25125,1513.883
753,1.252917,1513.883
754,1.254583,1508.668
755,1.256267,1502.782
756,1.257917,1499.429
757,1.259583,1499.429
758,1.261367,1496.3
759,1.2629,1494.214
760,1.264567,1494.214
761,1.266233,1494.214
762,1.2679,1492.277
763,1.269567,1490.042
764,1.271233,1490.042
765,1.2729,1490.712
766,1.274567,1488.03
767,1.276233,1485.422
768,1.2779,1485.422
769,1.279567,1480.356
770,1.281233,1473.725
771,1.2829,1470.372
772,1.284567,1470.372
773,1.286233,1466.647
774,1.2879,1464.486
775,1.289567,1463.816
776,1.291233,1463.816
777,1.2929,1461.655
778,1.294567,1461.431
779,1.296233,1461.431
780,1.2979,1459.196
781,1.299567,1455.471
782,1.301233,1448.691
783,1.3029,1448.691
784,1.304567,1442.134
785,1.306233,1443.177
786,1.3079,1442.507
787,1.309567,1442.507
788,1.311233,1443.922
789,1.3129,1443.922
790,1.314567,1436.621
791,1.316233,1436.621
792,1.3179,1434.162
793,1.319567,1433.566
794,1.321233,1433.566
795,1.322883,1430.958
796,1.324567,1432.151
797,1.326217,1427.606
798,1.327883,1427.606
799,1.32955,1422.763
800,1.331217,1420.23
801,1.332883,1415.983
802,1.33455,1415.983
803,1.336217,1413.077
804,1.337883,1410.544
805,1.33955,1408.234
806,1.341217,1408.234
807,1.342883,1407.638
808,1.34455,1408.16
809,1.346283,1408.085
810,1.347883,1408.085
811,1.34955,1407.489
812,1.351217,1407.191
813,1.352883,1407.191
814,1.35455,1403.317
815,1.356217,1403.168
816,1.357883,1401.454
817,1.35955,1401.454
818,1.361217,1396.686
819,1.362883,1395.941
820,1.364567,1390.874
821,1.366217,1390.874
822,1.367883,1388.714
823,1.36955,1389.906
824,1.371217,1388.639
825,1.372883,1388.639
826,1.37455,1388.192
827,1.376217,1387.745
828,1.377883,1387.745
829,1.37965,1384.914
830,1.381217,1384.616
831,1.382867,1382.679
832,1.384533,1382.679
833,1.3862,1380.816
834,1.387867,1377.091
835,1.389533,1373.217
836,1.3912,1373.217
837,1.392867,1373.813
838,1.394533,1371.205
839,1.3962,1372.099
840,1.397867,1372.099
841,1.399567,1371.354
842,1.4012,1366.809
843,1.402867,1363.233
844,1.404533,1363.233
845,1.4062,1360.327
846,1.407867,1356.229
847,1.409533,1356.229
848,1.4112,1352.802
849,1.412867,1353.249
850,1.414533,1352.578
851,1.4162,1352.578
852,1.417867,1354.068
853,1.419533,1355.335
854,1.4212,1353.994
855,1.422867,1353.994
856,1.424533,1352.653
857,1.4262,1348.779
858,1.427867,1344.681
859,1.429533,1344.681
860,1.4312,1343.861
861,1.432867,1341.85
862,1.434533,1341.85
863,1.4362,1345.053
864,1.437867,1348.928
865,1.439533,1351.684
866,1.4412,1351.684
867,1.44285,1351.386
868,1.444517,1346.543
869,1.446183,1343.414
870,1.44785,1343.414
871,1.449533,1337.007
872,1.451183,1332.983
873,1.45285,1332.76
874,1.4545,1332.76
875,1.456167,1329.854
876,1.457833,1329.631
877,1.4595,1329.631
878,1.461167,1329.333
879,1.46285,1327.917
880,1.464517,1328.364
881,1.466167,1328.364
882,1.467833,1326.501
883,1.4695,1327.023
884,1.471167,1327.395
885,1.472833,1327.395
886,1.4745,1327.693
887,1.476167,1325.682
888,1.477833,1322.776
889,1.4795,1322.776
890,1.481233,1319.647
891,1.482833,1313.835
892,1.4845,1314.357
893,1.486167,1314.357
894,1.487833,1314.804
895,1.4895,1315.773
896,1.491167,1315.773
897,1.492833,1317.188
898,1.4945,1317.337
899,1.496167,1314.655
900,1.497933,1314.655
901,1.4995,1313.463
902,1.50115,1310.855
903,1.502817,1306.459
904,1.504483,1306.459
905,1.50615,1306.981
906,1.507817,1306.236
907,1.509483,1305.044
908,1.51115,1305.044
909,1.512817,1305.863
910,1.514483,1306.385
911,1.51615,1306.385
912,1.517817,1303.926
913,1.519483,1303.628
914,1.52115,1301.616
