"ID","sea_time","fid_signal"
1,0,154.443
2,0.001667,154.294
3,0.003333,154.294
4,0.004983,154.242
5,0.00665,154.197
6,0.008317,153.281
7,0.009983000000000001,153.281
8,0.01165,151.478
9,0.013317,149.839
10,0.014983,148.945
11,0.01665,148.945
12,0.0183,149.384
13,0.019983,150.494
14,0.021633,151.604
15,0.0233,151.604
16,0.024983,152.208
17,0.026633,152.297
18,0.0283,152.297
19,0.029967,152.387
20,0.031633,152.551
21,0.0333,152.677
22,0.034967,152.677
23,0.036633,152.767
24,0.0383,153.169
25,0.039967,153.452
26,0.041633,153.452
27,0.0433,153.78
28,0.044967,154.093
29,0.04665,154.093
30,0.0483,154.093
31,0.049967,153.989
32,0.051633,153.78
33,0.0533,153.78
34,0.054967,153.698
35,0.056633,153.601
36,0.0583,153.705
37,0.059967,153.705
38,0.061633,153.527
39,0.0633,153.355
40,0.06494999999999999,153.229
41,0.066617,153.229
42,0.068283,152.864
43,0.06995,153.154
44,0.071617,153.087
45,0.073283,153.087
46,0.07495,152.946
47,0.076617,152.893
48,0.07828300000000001,152.58
49,0.080067,152.58
50,0.081617,152.513
51,0.083283,152.633
52,0.08495,152.633
53,0.086617,152.767
54,0.088283,152.692
55,0.08995,152.715
56,0.091617,152.715
57,0.093283,152.67
58,0.09495000000000001,152.558
59,0.09661699999999999,152.498
60,0.098283,152.498
61,0.099967,152.357
62,0.101617,152.357
63,0.103283,152.662
64,0.10495,152.662
65,0.106617,152.819
66,0.108283,152.871
67,0.10995,152.871
68,0.111617,152.707
69,0.113283,152.312
70,0.11495,152.253
71,0.116617,152.253
72,0.118283,152.171
73,0.11995,152.178
74,0.121617,152.141
75,0.123283,152.141
76,0.124933,151.768
77,0.1266,152.014
78,0.128267,151.798
79,0.129933,151.798
80,0.1316,151.537
81,0.133267,151.85
82,0.134933,151.657
83,0.1366,151.657
84,0.138267,151.843
85,0.139933,152.014
86,0.1416,152.014
87,0.143267,151.783
88,0.144933,151.508
89,0.1466,151.448
90,0.148267,151.448
91,0.149933,151.649
92,0.1516,151.724
93,0.153267,151.91
94,0.154933,151.91
95,0.1566,151.932
96,0.158267,151.902
97,0.159933,151.902
98,0.1616,151.902
99,0.163267,151.947
100,0.164933,151.731
101,0.1666,151.731
102,0.168283,151.344
103,0.169933,151.291
104,0.1716,151.016
105,0.1733,151.016
106,0.17495,150.926
107,0.1766,151.135
108,0.178267,150.949
109,0.179933,150.949
110,0.1816,150.83
111,0.183267,151.113
112,0.184933,151.157
113,0.186583,151.157
114,0.18825,151.202
115,0.189917,151.5
116,0.191583,151.5
117,0.19325,151.344
118,0.194917,151.135
119,0.196583,151.247
120,0.19825,151.247
121,0.199917,151.142
122,0.201583,151.128
123,0.20325,151.15
124,0.204917,151.15
125,0.206583,151.083
126,0.20825,150.956
127,0.209917,150.621
128,0.211583,150.621
129,0.21325,150.45
130,0.214917,150.502
131,0.216583,150.599
132,0.21825,150.599
133,0.219917,150.971
134,0.221583,150.926
135,0.22325,150.926
136,0.224917,150.718
137,0.226583,150.576
138,0.22825,150.532
139,0.229917,150.532
140,0.231583,150.599
141,0.23325,150.8
142,0.234917,150.718
143,0.236583,150.718
144,0.23825,150.576
145,0.239917,150.472
146,0.241583,150.315
147,0.24325,150.315
148,0.244917,150.33
149,0.246567,150.39
150,0.248233,150.39
151,0.2499,150.345
152,0.251567,150.122
153,0.253233,149.973
154,0.2549,149.973
155,0.256567,149.772
156,0.258233,150.07
157,0.2599,150.435
158,0.261567,150.435
159,0.263267,150.375
160,0.2649,150.487
161,0.266567,150.479
162,0.268233,150.479
163,0.2699,149.928
164,0.271567,150.025
165,0.273233,150.107
166,0.2749,150.107
167,0.276567,150.144
168,0.278233,150.941
169,0.2799,150.941
170,0.281567,151.299
171,0.283283,151.508
172,0.2849,151.463
173,0.286567,151.463
174,0.288233,151.508
175,0.2899,151.917
176,0.291567,152.804
177,0.29325,152.804
178,0.2949,154.339
179,0.296567,156.119
180,0.298233,158.325
181,0.2999,158.325
182,0.301567,160.933
183,0.303233,164.337
184,0.304883,164.337
185,0.30655,168.413
186,0.308217,173.837
187,0.309867,180.431
188,0.311533,180.431
189,0.3132,188.194
190,0.314867,197.701
191,0.316567,209.078
192,0.3182,209.078
193,0.319867,222.147
194,0.321533,237.606
195,0.3232,255.883
196,0.324867,255.883
197,0.326533,276.64
198,0.3282,300.616
199,0.329867,327.475
200,0.331533,327.475
201,0.3332,357.33
202,0.334867,390.656
203,0.336533,390.656
204,0.3382,428.073
205,0.339867,469.565
206,0.341533,515.1849999999999
207,0.343217,515.1849999999999
208,0.344867,565.574
209,0.346533,620.5069999999999
210,0.3482,680.894
211,0.349883,680.894
212,0.351533,747.196
213,0.3532,819.691
214,0.354867,899.628
215,0.356533,899.628
216,0.3582,987.463
217,0.359867,1084.886
218,0.361533,1084.886
219,0.3632,1193.501
220,0.36485,1315.258
221,0.366517,1453.489
222,0.368183,1453.489
223,0.36985,1611.568
224,0.371517,1794.279
225,0.373183,2007.209
226,0.37485,2007.209
227,0.376517,2257.377
228,0.378183,2552.621
229,0.37985,2900.787
230,0.381517,2900.787
231,0.383183,3310.673
232,0.384867,3790.095
233,0.386517,3790.095
234,0.388183,4346.981
235,0.38985,4988.074
236,0.391517,5718.373
237,0.393183,5718.373
238,0.39485,6542.25
239,0.396517,7461.019
240,0.398183,8475.407999999999
241,0.39985,8475.407999999999
242,0.401583,9584.701999999999
243,0.403183,10785.423
244,0.40485,12072.578
245,0.406517,12072.578
246,0.408183,13438.195
247,0.40985,14869.348
248,0.411517,16349.383
249,0.413183,16349.383
250,0.41485,17855.145
251,0.416517,19358.947
252,0.418183,19358.947
253,0.41985,20829.813
254,0.421517,22232.928
255,0.423183,23534.834
256,0.424833,23534.834
257,0.4265,24702.438
258,0.428167,25705.303
259,0.429833,26517.615
260,0.4315,26517.615
261,0.433167,27120.227
262,0.43495,27501.584
263,0.436517,27658.277
264,0.438167,27658.277
265,0.439833,27594.492
266,0.4415,27320.49
267,0.443167,27320.49
268,0.444833,26850.016
269,0.4465,26202.654
270,0.448167,25401.115
271,0.449833,25401.115
272,0.4515,24470.359
273,0.453167,23437.709
274,0.454833,22328.064
275,0.4565,22328.064
276,0.458167,21166.795
277,0.45985,19975.9
278,0.4615,18775.992
279,0.463167,18775.992
280,0.464833,17585.15
281,0.4665,16416.959
282,0.468167,15282.698
283,0.469833,15282.698
284,0.4715,14189.951
285,0.473167,13144.314
286,0.474833,13144.314
287,0.4765,12149.818
288,0.478167,11208.668
289,0.479833,10321.975
290,0.4815,10321.975
291,0.483167,9489.245999999999
292,0.484817,8709.498
293,0.486483,7981.241
294,0.48815,7981.241
295,0.489817,7302.567
296,0.491483,6672.047
297,0.49315,6087.795
298,0.494817,6087.795
299,0.496483,5547.412
300,0.49815,5049.408
301,0.499817,5049.408
302,0.501483,4592.031
303,0.50315,4172.765
304,0.504817,3790.155
305,0.506483,3790.155
306,0.50815,3441.922
307,0.509817,3125.407
308,0.511483,2838.768
309,0.51315,2838.768
310,0.514817,2579.942
311,0.516483,2346.225
312,0.51815,2135.396
313,0.519833,2135.396
314,0.521483,1945.846
315,0.52315,1775.473
316,0.524817,1622.744
317,0.526483,1622.744
318,0.52815,1486.07
319,0.529817,1364.045
320,0.531483,1364.045
321,0.53315,1254.909
322,0.534817,1157.336
323,0.53655,1070.254
324,0.53815,1070.254
325,0.539817,991.6420000000001
326,0.541483,921.1900000000001
327,0.54315,858.277
328,0.5448,858.277
329,0.546467,801.794
330,0.548133,751.3390000000001
331,0.5498,706.419
332,0.551467,706.419
333,0.5532,665.523
334,0.5548,628.6799999999999
335,0.556467,628.6799999999999
336,0.558133,595.413
337,0.5598,565.253
338,0.561467,538.453
339,0.563133,538.453
340,0.5648,514.232
341,0.5664670000000001,492.424
342,0.568133,472.568
343,0.5699,472.568
344,0.571483,454.314
345,0.573133,437.61
346,0.5748,422.664
347,0.576467,422.664
348,0.578133,408.955
349,0.5798,396.319
350,0.581467,384.718
351,0.583133,384.718
352,0.5848,373.84
353,0.586467,363.886
354,0.588133,363.886
355,0.5898,354.752
356,0.591467,346.601
357,0.593133,338.897
358,0.5948,338.897
359,0.596467,331.305
360,0.598133,324.555
361,0.5998,318.103
362,0.601483,318.103
363,0.603117,312.06
364,0.6047670000000001,306.763
365,0.606433,301.756
366,0.6081,301.756
367,0.6097669999999999,297.122
368,0.611433,293.091
369,0.6131,293.091
370,0.614767,288.986
371,0.616433,285.104
372,0.6181,281.505
373,0.619767,281.505
374,0.621433,277.907
375,0.6231,274.934
376,0.624767,271.82
377,0.626433,271.82
378,0.6281,268.586
379,0.629767,265.65
380,0.631433,262.439
381,0.6331,262.439
382,0.634767,259.675
383,0.636433,256.993
384,0.6381,256.993
385,0.639767,254.326
386,0.641433,251.926
387,0.6431,249.892
388,0.644767,249.892
389,0.646433,247.739
390,0.6481,245.757
391,0.649767,243.947
392,0.651433,243.947
393,0.6531,241.853
394,0.654767,240.259
395,0.656433,238.672
396,0.6581,238.672
397,0.659767,237.025
398,0.661433,235.341
399,0.663083,233.747
400,0.66475,233.747
401,0.666417,231.877
402,0.668083,230.201
403,0.66975,230.201
404,0.6714830000000001,228.643
405,0.673083,227.168
406,0.67475,226.207
407,0.676433,226.207
408,0.678083,225.179
409,0.67975,224.084
410,0.6814170000000001,222.743
411,0.683083,222.743
412,0.68475,221.29
413,0.6864170000000001,219.949
414,0.6881,218.987
415,0.68975,218.987
416,0.6914169999999999,217.9
417,0.693083,217.14
418,0.69475,217.14
419,0.696417,216.305
420,0.698083,215.106
421,0.69975,214.39
422,0.701417,214.39
423,0.703083,213.213
424,0.70475,212.111
425,0.706417,211.217
426,0.708083,211.217
427,0.70975,210.203
428,0.711417,209.071
429,0.713083,207.826
430,0.71475,207.826
431,0.716417,206.776
432,0.718083,206.016
433,0.71975,205.636
434,0.721417,205.636
435,0.723083,205.532
436,0.72475,204.787
437,0.7264,204.787
438,0.728067,204.004
439,0.729733,203.073
440,0.7314000000000001,202.149
441,0.733067,202.149
442,0.734733,201.724
443,0.7364000000000001,201.218
444,0.738067,200.294
445,0.739733,200.294
446,0.7413999999999999,199.459
447,0.7431,198.93
448,0.744733,197.999
449,0.746417,197.999
450,0.748067,197.627
451,0.749733,197.105
452,0.7514,197.105
453,0.753067,196.211
454,0.754733,195.794
455,0.7564,195.414
456,0.758067,195.414
457,0.759733,194.788
458,0.7614,194.401
459,0.7630670000000001,193.782
460,0.764733,193.782
461,0.7664,193.35
462,0.7680670000000001,192.851
463,0.769733,192.188
464,0.7714,192.188
465,0.7730669999999999,191.711
466,0.774733,191.1
467,0.7764,190.653
468,0.778067,190.653
469,0.779733,190.169
470,0.7814,189.796
471,0.783067,189.796
472,0.784717,189.275
473,0.7863830000000001,189.058
474,0.78805,188.783
475,0.789767,188.783
476,0.7913829999999999,188.366
477,0.79305,187.814
478,0.794717,187.062
479,0.796383,187.062
480,0.79805,186.555
481,0.799717,186.265
482,0.801383,186.056
483,0.80305,186.056
484,0.804717,186.19
485,0.8064829999999999,185.616
486,0.80805,185.616
487,0.809717,185.072
488,0.811383,184.819
489,0.8130500000000001,184.365
490,0.814717,184.365
491,0.816383,184.141
492,0.8180500000000001,183.664
493,0.819717,182.986
494,0.821383,182.986
495,0.8230499999999999,182.249
496,0.824717,181.943
497,0.826383,181.943
498,0.82805,181.943
499,0.829717,181.817
500,0.831383,181.824
501,0.83305,181.824
502,0.834717,181.757
503,0.836383,181.414
504,0.83805,181.384
505,0.839717,181.384
506,0.841383,181.004
507,0.84305,180.542
508,0.8447170000000001,180.252
509,0.846367,180.252
510,0.848033,179.745
511,0.8497,179.678
512,0.851367,179.417
513,0.853033,179.417
514,0.8547,179.179
515,0.856367,178.747
516,0.858033,178.061
517,0.8597,178.061
518,0.861367,177.979
519,0.8630330000000001,177.48
520,0.8647,177.48
521,0.866367,177.488
522,0.8680330000000001,177.227
523,0.8697,176.661
524,0.871367,176.661
525,0.8730329999999999,176.258
526,0.8747,175.864
527,0.876367,175.573
528,0.878033,175.573
529,0.8797,175.692
530,0.881367,175.767
531,0.883033,175.767
532,0.8847,175.767
533,0.886367,175.782
534,0.888033,175.543
535,0.8897,175.543
536,0.891367,175.409
537,0.8930169999999999,175.245
538,0.894683,175.178
539,0.89635,175.178
540,0.898017,174.679
541,0.899683,174.098
542,0.90135,173.599
543,0.903,173.599
544,0.904667,173.36
545,0.9063330000000001,173.412
546,0.908033,173.271
547,0.909667,173.271
548,0.9113329999999999,172.913
549,0.913,172.287
550,0.914667,171.84
551,0.916333,171.84
552,0.918,171.758
553,0.919667,171.736
554,0.92135,171.736
555,0.923,171.855
556,0.924783,171.751
557,0.926333,171.46
558,0.928,171.46
559,0.929667,171.058
560,0.931333,170.887
561,0.9330000000000001,170.462
562,0.934667,170.462
563,0.936333,170.439
564,0.9379999999999999,170.484
565,0.939667,170.439
566,0.941333,170.439
567,0.9429999999999999,170.492
568,0.944667,170.343
569,0.946333,170.343
570,0.948,170.253
571,0.949667,169.903
572,0.951333,169.843
573,0.953,169.843
574,0.954667,169.821
575,0.956333,169.382
576,0.958,168.987
577,0.959683,168.987
578,0.961333,168.487
579,0.962983,168.219
580,0.96465,168.465
581,0.966317,168.465
582,0.967983,168.48
583,0.96965,168.368
584,0.971317,168.368
585,0.972983,167.914
586,0.97465,167.727
587,0.976317,167.593
588,0.977983,167.593
589,0.97965,167.593
590,0.981317,167.713
591,0.9829830000000001,167.34
592,0.98465,167.34
593,0.986317,167.072
594,0.9879829999999999,166.766
595,0.98965,166.737
596,0.991317,166.737
597,0.9929829999999999,166.483
598,0.99465,166.394
599,0.996317,166.483
600,0.997983,166.483
601,0.99965,166.133
602,1.001317,166.081
603,1.002983,166.081
604,1.00465,166.073
605,1.006317,165.857
606,1.007983,165.902
607,1.009733,165.902
608,1.011317,166.073
609,1.012983,166.081
610,1.01465,166.163
611,1.016317,166.163
612,1.017983,166.021
613,1.01965,165.649
614,1.021317,165.5
615,1.022983,165.5
