"ID","sea_time","fid_signal"
1,0,140.496
2,0.001667,140.339
3,0.003333,140.764
4,0.005,140.689
5,0.006667,140.689
6,0.008333,140.764
7,0.01,140.771
8,0.011667,140.771
9,0.013333,140.488
10,0.015017,140.451
11,0.016667,140.719
12,0.018333,140.719
13,0.02,140.838
14,0.021667,140.786
15,0.023333,140.958
16,0.025,140.958
17,0.026667,140.846
18,0.028333,140.816
19,0.03,140.697
20,0.031667,140.697
21,0.033333,140.488
22,0.035,140.63
23,0.036667,140.63
24,0.03845,140.868
25,0.04,141.069
26,0.041667,141.509
27,0.043317,141.509
28,0.044983,141.39
29,0.04665,141.174
30,0.048317,141.36
31,0.049983,141.36
32,0.05165,141.069
33,0.053317,141.062
34,0.054983,140.756
35,0.05665,140.756
36,0.058317,140.108
37,0.059983,139.788
38,0.06165,139.81
39,0.063317,139.81
40,0.064983,140.011
41,0.06665,140.183
42,0.068317,140.183
43,0.069983,140.25
44,0.071767,140.317
45,0.07331699999999999,140.265
46,0.07498299999999999,140.265
47,0.07665,140.481
48,0.078317,140.831
49,0.079983,140.801
50,0.08165,140.801
51,0.083317,141.107
52,0.084983,141.256
53,0.08665,141.084
54,0.08831700000000001,141.084
55,0.08998299999999999,141.025
56,0.09165,140.898
57,0.09336700000000001,140.928
58,0.094983,140.928
59,0.09665,140.943
60,0.098317,140.652
61,0.099983,140.652
62,0.10165,140.63
63,0.103317,140.429
64,0.104967,140.399
65,0.106633,140.399
66,0.1083,140.682
67,0.109983,140.622
68,0.111633,140.503
69,0.1133,140.503
70,0.114967,140.682
71,0.116633,140.533
72,0.1183,140.615
73,0.119967,140.615
74,0.121633,140.92
75,0.1233,140.965
76,0.124967,140.965
77,0.126633,141.002
78,0.1283,140.697
79,0.129967,140.28
80,0.131633,140.28
81,0.1333,140.116
82,0.134967,140.324
83,0.136633,140.697
84,0.1383,140.697
85,0.139967,141.218
86,0.141633,141.278
87,0.1433,141.27
88,0.144967,141.27
89,0.146633,140.883
90,0.1483,140.421
91,0.149967,140.421
92,0.151633,140.16
93,0.1533,139.967
94,0.154967,139.989
95,0.156717,139.989
96,0.1583,140.198
97,0.159967,140.332
98,0.161633,140.384
99,0.163283,140.384
100,0.16495,140.674
101,0.166617,140.324
102,0.168283,140.533
103,0.16995,140.533
104,0.171617,140.466
105,0.173283,140.324
106,0.17495,140.384
107,0.176617,140.384
108,0.178283,139.937
109,0.17995,139.788
110,0.181617,139.788
111,0.183283,139.855
112,0.18495,140.265
113,0.186617,140.533
114,0.188283,140.533
115,0.190067,140.451
116,0.191617,140.138
117,0.193283,140.145
118,0.19495,140.145
119,0.196617,140.265
120,0.198283,140.548
121,0.19995,140.674
122,0.201617,140.674
123,0.203283,140.496
124,0.20495,140.294
125,0.206617,140.294
126,0.208283,140.28
127,0.20995,140.54
128,0.211617,140.51
129,0.213283,140.51
130,0.21495,140.809
131,0.216617,140.868
132,0.218283,140.682
133,0.21995,140.682
134,0.221617,140.421
135,0.223267,140.093
136,0.22495,140.272
137,0.226583,140.272
138,0.22825,140.369
139,0.229917,140.756
140,0.231583,140.756
141,0.23325,140.861
142,0.23495,140.667
143,0.236583,140.361
144,0.23825,140.361
145,0.239917,140.16
146,0.241583,140.212
147,0.24325,140.347
148,0.244917,140.347
149,0.246583,140.712
150,0.24825,140.786
151,0.249917,140.66
152,0.251583,140.66
153,0.25325,140.384
154,0.254917,140.317
155,0.256583,140.443
156,0.25825,140.443
157,0.259917,140.339
158,0.261583,140.555
159,0.26325,140.555
160,0.264917,140.481
161,0.266583,140.294
162,0.26825,140.414
163,0.269917,140.414
164,0.271583,140.317
165,0.27325,140.414
166,0.274983,140.324
167,0.276583,140.324
168,0.278283,140.399
169,0.279917,140.235
170,0.281567,140.019
171,0.283233,140.019
172,0.2849,140.212
173,0.286567,139.989
174,0.288233,139.989
175,0.2899,140.078
176,0.291567,140.19
177,0.293233,140.131
178,0.2949,140.131
179,0.296567,140.779
180,0.298233,141.151
181,0.2999,141.293
182,0.301567,141.293
183,0.303233,141.546
184,0.3049,141.278
185,0.306567,141.345
186,0.308333,141.345
187,0.3099,141.494
188,0.311567,141.814
189,0.313233,142.425
190,0.3149,142.425
191,0.316567,143.401
192,0.318233,144.832
193,0.3199,144.832
194,0.321567,146.374
195,0.323233,147.998
196,0.3249,149.876
197,0.326567,149.876
198,0.328233,151.917
199,0.3299,154.816
200,0.331567,158.28
201,0.333233,158.28
202,0.3349,162.356
203,0.336567,167.564
204,0.338233,173.189
205,0.3399,173.189
206,0.341567,179.768
207,0.343217,187.68
208,0.344883,187.68
209,0.34655,196.509
210,0.348217,206.806
211,0.349883,219.017
212,0.35155,219.017
213,0.353217,232.272
214,0.354883,247.486
215,0.35655,264.548
216,0.358217,264.548
217,0.359883,282.936
218,0.36155,303.321
219,0.363217,326.015
220,0.364883,326.015
221,0.36655,350.93
222,0.368217,378.959
223,0.369883,409.387
224,0.37155,409.387
225,0.373217,442.266
226,0.374883,477.985
227,0.376567,477.985
228,0.378217,516.3920000000001
229,0.379883,558.592
230,0.38155,604.227
231,0.383217,604.227
232,0.384883,653.1849999999999
233,0.38655,706.099
234,0.388217,762.664
235,0.389883,762.664
236,0.39155,823.371
237,0.393233,889.115
238,0.394883,959.1130000000001
239,0.39655,959.1130000000001
240,0.398217,1034.506
241,0.399883,1115.434
242,0.40155,1115.434
243,0.4032,1201.555
244,0.404867,1294.114
245,0.406533,1392.737
246,0.4082,1392.737
247,0.409967,1498.006
248,0.411533,1610.763
249,0.4132,1730.39
250,0.414867,1730.39
251,0.416533,1857.281
252,0.4182,1991.235
253,0.419867,2131.797
254,0.421533,2131.797
255,0.4232,2279.334
256,0.424867,2432.875
257,0.426633,2591.856
258,0.4282,2591.856
259,0.429867,2755.821
260,0.431533,2923.608
261,0.4332,2923.608
262,0.434867,3094.286
263,0.436533,3266.029
264,0.4382,3437.05
265,0.439867,3437.05
266,0.441533,3606.386
267,0.4432,3772.564
268,0.444867,3933.84
269,0.446533,3933.84
270,0.4482,4089.4
271,0.449867,4236.981
272,0.45155,4374.832
273,0.453217,4374.832
274,0.454867,4502.877
275,0.456533,4619.002
276,0.4582,4619.002
277,0.459867,4722.722
278,0.461533,4813.977
279,0.463183,4891.5
280,0.46485,4891.5
281,0.466517,4954.934
282,0.468183,5004.294
283,0.46985,5039.528
284,0.471517,5039.528
285,0.473183,5061.083
286,0.47485,5069.457
287,0.476517,5064.875
288,0.478183,5064.875
289,0.47985,5048.141
290,0.481517,5019.292
291,0.483183,5019.292
292,0.48485,4979.528
293,0.486517,4929.789
294,0.488183,4870.914
295,0.48985,4870.914
296,0.491517,4803.903
297,0.493183,4729.301
298,0.49485,4648.082
299,0.496517,4648.082
300,0.498183,4560.478
301,0.49985,4468.068
302,0.501517,4371.748
303,0.503183,4371.748
304,0.50485,4271.746
305,0.506517,4169.211
306,0.5081830000000001,4064.523
307,0.50985,4064.523
308,0.511533,3958.561
309,0.5131829999999999,3851.749
310,0.51485,3851.749
311,0.516517,3744.453
312,0.518167,3637.061
313,0.519833,3529.951
314,0.521483,3529.951
315,0.523167,3423.534
316,0.524817,3317.967
317,0.526517,3213.808
318,0.52825,3213.808
319,0.529817,3111.146
320,0.531483,3010.258
321,0.53315,2911.493
322,0.534817,2911.493
323,0.536483,2815.083
324,0.53815,2720.378
325,0.539817,2720.378
326,0.541483,2628.2
327,0.54315,2538.301
328,0.5449000000000001,2450.802
329,0.5464830000000001,2450.802
330,0.54815,2366.543
331,0.549817,2284.497
332,0.5514829999999999,2205.134
333,0.55315,2205.134
334,0.554817,2128.258
335,0.5564829999999999,2053.618
336,0.55815,1981.892
337,0.559817,1981.892
338,0.5616,1912.631
339,0.56315,1845.293
340,0.564817,1780.622
341,0.566483,1780.622
342,0.56815,1718.223
343,0.569817,1658.164
344,0.571483,1658.164
345,0.57315,1600.541
346,0.574817,1545.154
347,0.576483,1491.912
348,0.5781500000000001,1491.912
349,0.579817,1440.6
350,0.581467,1391.567
351,0.583133,1344.286
352,0.5848,1344.286
353,0.586467,1298.539
354,0.588133,1254.693
355,0.5898,1212.642
356,0.591467,1212.642
357,0.593133,1172.118
358,0.5948,1133.576
359,0.596467,1133.576
360,0.598133,1096.45
361,0.5998,1060.911
362,0.601467,1026.884
363,0.603133,1026.884
364,0.6048,993.855
365,0.606467,962.585
366,0.608133,932.3579999999999
367,0.6098170000000001,932.3579999999999
368,0.611467,903.152
369,0.613133,875.369
370,0.6148,848.405
371,0.616467,848.405
372,0.618133,822.7380000000001
373,0.6198,798.3
374,0.621467,774.4880000000001
375,0.623133,774.4880000000001
376,0.6248,752.002
377,0.626467,730.068
378,0.62815,730.068
379,0.6298,709.0119999999999
380,0.631467,689.112
381,0.6331329999999999,669.6950000000001
382,0.6348,669.6950000000001
383,0.636467,651.538
384,0.638133,634.0069999999999
385,0.6398,617.2430000000001
386,0.64145,617.2430000000001
387,0.643117,600.986
388,0.644783,585.154
389,0.6465,570.014
390,0.6481170000000001,570.014
391,0.649783,555.173
392,0.65145,541.277
393,0.6531169999999999,541.277
394,0.654783,527.821
395,0.65645,514.85
396,0.658117,502.765
397,0.659783,502.765
398,0.66145,490.576
399,0.6632,479.139
400,0.664783,468.031
401,0.66645,468.031
402,0.668117,457.183
403,0.669783,447.243
404,0.67145,437.275
405,0.673117,437.275
406,0.674783,427.775
407,0.67645,418.626
408,0.678117,418.626
409,0.679883,409.745
410,0.68145,401.236
411,0.683117,392.959
412,0.684783,392.959
413,0.68645,384.994
414,0.688117,377.409
415,0.689783,370.272
416,0.69145,370.272
417,0.693117,363.752
418,0.694783,357.322
419,0.69645,350.647
420,0.698133,350.647
421,0.699783,344.157
422,0.70145,337.705
423,0.7030999999999999,331.812
424,0.704767,331.812
425,0.706433,326.075
426,0.7081,320.636
427,0.709767,320.636
428,0.711433,315.569
429,0.7131,310.384
430,0.714767,305.906
431,0.716433,305.906
432,0.7181,301.205
433,0.719767,296.816
434,0.721433,292.607
435,0.7231,292.607
436,0.7247670000000001,288.151
437,0.726433,284.374
438,0.7281,280.552
439,0.7297670000000001,280.552
440,0.731433,276.856
441,0.7331,273.518
442,0.7347669999999999,273.518
443,0.736433,270.091
444,0.7381,266.179
445,0.739767,262.424
446,0.741433,262.424
447,0.7431,259.057
448,0.744767,255.86
449,0.746433,252.88
450,0.7481,252.88
451,0.749767,250.258
452,0.751433,247.322
453,0.7531,244.543
454,0.754767,244.543
455,0.756433,242.002
456,0.7581,239.216
457,0.759767,236.817
458,0.761433,236.817
459,0.7631,234.12
460,0.764783,231.594
461,0.766417,231.594
462,0.768083,229.254
463,0.76975,227.064
464,0.771417,225.201
465,0.773083,225.201
466,0.77475,223.093
467,0.776417,221.23
468,0.7781,219.293
469,0.7797500000000001,219.293
470,0.781417,217.177
471,0.783083,215.56
472,0.7847499999999999,213.809
473,0.786417,213.809
474,0.788083,211.768
475,0.78975,209.957
476,0.791417,209.957
477,0.793083,208.102
478,0.79475,206.359
479,0.796417,204.936
480,0.798183,204.936
481,0.79975,203.513
482,0.801417,202.119
483,0.803083,200.734
484,0.80475,200.734
485,0.8064170000000001,199.705
486,0.808083,198.655
487,0.80975,197.485
488,0.8114,197.485
489,0.813067,196.427
490,0.814733,194.892
491,0.8164,194.892
492,0.818067,193.76
493,0.819733,192.53
494,0.8214,191.413
495,0.8230499999999999,191.413
496,0.824717,190.385
497,0.826383,188.969
498,0.82805,188.082
499,0.829717,188.082
500,0.831383,187.188
501,0.83305,186.309
502,0.834717,185.408
503,0.836383,185.408
504,0.83805,184.581
505,0.839717,183.597
506,0.841383,182.74
507,0.84305,182.74
508,0.8447170000000001,181.951
509,0.846383,181.235
510,0.84805,181.235
511,0.8497169999999999,180.52
512,0.851383,179.663
513,0.85305,178.941
514,0.8547169999999999,178.941
515,0.856383,177.972
516,0.85805,177.011
517,0.859717,176.363
518,0.861383,176.363
519,0.86305,175.439
520,0.864717,174.604
521,0.866383,174.187
522,0.86805,174.187
523,0.869717,173.77
524,0.871383,173.457
525,0.87305,173.457
526,0.874717,173.055
527,0.876383,172.429
528,0.87805,171.438
529,0.879717,171.438
530,0.881383,170.738
531,0.883033,170.127
532,0.8847,169.508
533,0.886367,169.508
534,0.888033,169.173
535,0.8897,168.607
536,0.891367,168.055
537,0.893033,168.055
538,0.8947000000000001,167.37
539,0.896367,166.737
540,0.898033,166.23
541,0.8997000000000001,166.23
542,0.901367,165.656
543,0.903033,165.209
544,0.9046999999999999,165.209
545,0.906367,164.68
546,0.908033,164.397
547,0.9097,164.121
548,0.911367,164.121
549,0.913033,163.838
550,0.9147,163.704
551,0.916467,163.443
552,0.918033,163.443
553,0.9197,163.376
554,0.921367,163.049
555,0.923033,162.825
556,0.9247,162.825
557,0.9263670000000001,162.438
558,0.928033,161.901
559,0.9297,161.901
560,0.9313669999999999,161.588
561,0.933033,161.253
562,0.9347,160.873
563,0.9363669999999999,160.873
564,0.938033,160.299
565,0.9397,159.934
566,0.94135,159.681
567,0.943017,159.681
568,0.944717,159.524
569,0.94635,159.495
570,0.948017,159.338
571,0.9496830000000001,159.338
572,0.95135,158.921
573,0.95305,158.608
574,0.9546829999999999,158.198
575,0.95635,158.198
576,0.958017,157.975
577,0.959683,157.677
578,0.96135,157.677
579,0.963017,157.356
580,0.964683,157.125
581,0.96635,156.686
582,0.968017,156.686
583,0.969683,156.358
584,0.97135,156.395
585,0.973017,156.209
586,0.974683,156.209
587,0.9763500000000001,156.119
588,0.978017,156.224
589,0.979683,155.807
590,0.9813499999999999,155.807
591,0.983017,155.739
592,0.984683,155.456
593,0.9863499999999999,155.456
594,0.988017,154.98
595,0.989683,154.704
596,0.99135,154.354
597,0.993017,154.354
598,0.994683,154.212
599,0.99635,154.011
600,0.998017,154.026
601,0.999683,154.026
602,1.001417,153.705
603,1.003,153.46
604,1.004667,153.579
605,1.006333,153.579
606,1.008,153.4
607,1.009667,153.728
608,1.011333,153.676
609,1.013,153.676
610,1.014667,153.489
611,1.016333,153.303
612,1.018017,153.303
613,1.019733,152.819
614,1.021333,152.64
615,1.023,152.007
616,1.024667,152.007
617,1.026333,151.739
618,1.028,151.567
619,1.029667,151.53
620,1.03135,151.53
621,1.033,151.5
622,1.034767,151.239
623,1.036333,151.061
624,1.038,151.061
625,1.039667,150.8
626,1.041333,150.807
627,1.043,150.807
628,1.044667,150.949
629,1.046333,150.777
630,1.048,150.956
631,1.049667,150.956
632,1.051333,150.889
633,1.053,150.628
634,1.054667,150.681
635,1.056333,150.681
636,1.058,150.375
637,1.059667,150.517
638,1.061333,150.554
639,1.062983,150.554
640,1.06465,150.286
641,1.066317,150.204
642,1.067983,150.204
643,1.06965,149.935
644,1.071317,149.712
645,1.072983,149.675
646,1.07465,149.675
647,1.076317,149.786
648,1.077983,149.533
649,1.07965,149.369
650,1.081317,149.369
651,1.082983,149.429
652,1.08465,149.056
653,1.086317,149.071
654,1.088,149.071
655,1.08965,148.892
656,1.091317,148.669
657,1.092983,148.609
658,1.09465,148.609
659,1.096317,148.669
660,1.097983,149.153
661,1.099667,149.153
662,1.1013,149.019
663,1.102967,148.728
664,1.104633,148.691
665,1.1063,148.691
666,1.107967,148.356
667,1.109633,148.162
668,1.1113,148.05
669,1.112967,148.05
670,1.114633,147.618
671,1.1163,147.38
672,1.117967,147.387
673,1.1197,147.387
674,1.121283,147.484
675,1.12295,147.499
676,1.124617,147.499
677,1.126283,147.499
678,1.12795,147.447
679,1.129617,147.469
680,1.131283,147.469
681,1.13295,147.402
682,1.134617,147.119
683,1.136283,147.291
684,1.13795,147.291
685,1.139617,147.082
686,1.141283,147.134
687,1.14295,147.156
688,1.144617,147.156
689,1.146283,146.911
690,1.14795,146.687
691,1.149617,146.791
692,1.151283,146.791
693,1.153017,146.784
694,1.154617,146.911
695,1.156283,146.911
696,1.15795,146.843
697,1.159617,146.411
698,1.161283,146.277
699,1.16295,146.277
700,1.164617,146.307
701,1.166283,146.605
702,1.16795,146.858
703,1.169617,146.858
704,1.171283,146.918
705,1.17295,146.791
706,1.174617,146.762
707,1.176283,146.762
708,1.17795,146.672
709,1.179617,146.702
710,1.181283,146.702
711,1.182933,146.389
712,1.1846,146.337
713,1.1863,146.203
714,1.187933,146.203
715,1.1896,146.225
716,1.191267,146.419
717,1.192933,146.627
718,1.1946,146.627
719,1.196267,146.478
720,1.197933,146.084
721,1.1996,145.867
722,1.201267,145.867
723,1.202933,145.495
724,1.2046,145.353
725,1.206283,145.577
726,1.207933,145.577
727,1.2096,145.517
728,1.211267,145.495
729,1.212933,145.495
730,1.2146,145.808
731,1.216267,145.83
732,1.217933,145.972
733,1.2196,145.972
734,1.221267,146.084
735,1.222933,145.853
736,1.2246,145.525
737,1.226267,145.525
738,1.227933,145.145
739,1.229617,144.869
740,1.231267,144.862
741,1.232933,144.862
742,1.2346,144.899
743,1.236267,145.234
744,1.237967,145.234
745,1.2396,145.517
746,1.241267,145.197
747,1.242917,145.264
748,1.244583,145.264
749,1.24625,145.316
750,1.247917,145.048
751,1.249583,145.234
752,1.25125,145.234
753,1.252917,145.204
754,1.254633,145.011
755,1.25625,144.899
756,1.257917,144.899
757,1.259583,144.817
758,1.26125,144.78
759,1.262917,144.78
760,1.264583,145.011
761,1.26625,145.115
762,1.267917,145.286
763,1.269583,145.286
764,1.27135,145.137
765,1.272917,144.824
766,1.274583,144.757
767,1.27625,144.757
768,1.277917,144.795
769,1.279583,144.742
770,1.28125,144.37
771,1.282917,144.37
772,1.284583,144.206
773,1.28625,144.213
774,1.288017,144.228
775,1.289583,144.228
776,1.29125,144.452
777,1.292917,144.616
778,1.294583,144.616
779,1.29625,144.623
780,1.297917,144.735
781,1.299583,144.765
782,1.30125,144.765
783,1.3029,144.78
784,1.304567,144.43
785,1.306233,144.467
786,1.307917,144.467
787,1.309567,144.437
788,1.311233,144.541
789,1.3129,144.914
790,1.314567,144.914
791,1.316233,144.526
792,1.3179,144.534
793,1.319567,144.534
794,1.321233,144.094
795,1.3229,143.677
796,1.324567,143.707
797,1.326233,143.707
798,1.3279,143.647
799,1.329567,143.617
800,1.331233,143.833
801,1.3329,143.833
802,1.334567,144.154
803,1.336233,144.243
804,1.3379,144.31
805,1.339567,144.31
806,1.341233,144.072
807,1.3429,143.714
808,1.344567,143.625
809,1.346233,143.625
810,1.347917,143.521
811,1.349567,143.535
812,1.351233,143.535
813,1.3529,143.535
814,1.354567,143.751
815,1.356283,143.841
816,1.3579,143.841
817,1.359567,143.766
818,1.361233,143.796
819,1.362883,143.55
820,1.36455,143.55
821,1.366217,143.543
822,1.367883,143.491
823,1.36955,143.856
824,1.371217,143.856
825,1.373,143.908
826,1.37455,144.109
827,1.376217,144.109
828,1.377883,144.176
829,1.37955,143.982
830,1.381217,143.759
831,1.382883,143.759
832,1.38455,143.416
833,1.386217,143.342
834,1.387883,143.349
835,1.389617,143.349
836,1.3912,143.535
837,1.392867,143.684
838,1.394533,143.684
839,1.3962,143.684
840,1.397867,143.424
841,1.399533,143.282
842,1.4012,143.513
843,1.402867,143.513
844,1.404533,143.58
845,1.406317,143.714
846,1.407867,143.714
847,1.409533,143.617
848,1.4112,143.319
849,1.412867,143.491
850,1.414533,143.491
851,1.4162,143.498
852,1.417867,143.67
853,1.419533,143.878
854,1.4212,143.878
855,1.42285,143.878
856,1.424517,143.766
857,1.426183,143.617
858,1.42785,143.617
859,1.429517,143.491
860,1.431183,143.424
861,1.43285,143.424
862,1.434517,143.431
863,1.436183,143.662
864,1.43785,143.655
865,1.439517,143.655
866,1.441183,143.446
867,1.44285,143.394
868,1.444517,143.2
869,1.446183,143.2
870,1.44785,143.088
871,1.449517,143.074
872,1.451183,143.081
873,1.45285,143.081
874,1.454517,143.059
875,1.456183,143.006
876,1.45785,143.006
877,1.459517,142.872
878,1.461183,142.589
879,1.46285,142.477
880,1.464517,142.477
881,1.466183,142.135
882,1.46785,142.284
883,1.469517,142.567
884,1.471183,142.567
885,1.47285,142.455
886,1.474517,142.701
887,1.476183,142.641
888,1.47785,142.641
889,1.479517,142.559
890,1.481183,142.686
891,1.482833,142.872
892,1.4845,142.872
893,1.486167,142.694
894,1.487833,142.589
895,1.4895,142.589
896,1.491183,142.671
897,1.492833,142.187
898,1.4945,142.001
899,1.496167,142.001
900,1.497833,142.172
901,1.4995,142.15
902,1.501167,142.403
903,1.502833,142.403
904,1.5045,142.768
905,1.506167,142.843
906,1.507933,143.118
907,1.5095,143.118
908,1.511217,143.237
909,1.512833,143.163
910,1.5145,143.163
911,1.516167,142.91
912,1.517833,142.314
913,1.5195,142.321
914,1.521167,142.321
915,1.522833,142.15
916,1.524533,142.239
917,1.526167,142.366
918,1.527833,142.366
919,1.5295,142.515
920,1.531167,142.723
921,1.532833,142.664
922,1.5345,142.664
923,1.536167,142.671
924,1.537833,142.463
925,1.5395,142.567
926,1.541167,142.567
927,1.542833,142.433
928,1.544483,142.567
929,1.54615,142.567
930,1.547817,142.82
931,1.549483,143.036
932,1.55115,143.26
933,1.552817,143.26
934,1.554483,143.282
935,1.55615,142.887
936,1.557817,142.641
937,1.559483,142.641
938,1.56115,142.671
939,1.562817,142.656
940,1.564483,142.813
941,1.56615,142.813
942,1.567817,142.671
943,1.569483,142.865
944,1.57115,142.865
945,1.572817,142.984
946,1.574483,143.252
947,1.57615,143.148
948,1.577817,143.148
949,1.579483,142.82
950,1.581167,142.761
951,1.582817,142.448
