"ID","sea_time","fid_signal"
1,0,1168.624
2,0.001667,1166.984
3,0.003333,1163.706
4,0.005,1163.483
5,0.006667,1163.483
6,0.008333,1163.855
7,0.01,1163.334
8,0.011667,1165.792
9,0.013333,1165.792
10,0.015,1168.4
11,0.016667,1167.133
12,0.018333,1167.133
13,0.020083,1165.643
14,0.021667,1164.302
15,0.023333,1161.769
16,0.025,1161.769
17,0.026667,1164.675
18,0.028333,1165.867
19,0.03,1168.326
20,0.031667,1168.326
21,0.033333,1168.326
22,0.035,1164.898
23,0.036667,1164.6
24,0.038333,1164.6
25,0.040017,1163.185
26,0.041667,1163.036
27,0.043333,1163.036
28,0.045,1164.004
29,0.046667,1164.675
30,0.048333,1164.377
31,0.05,1164.377
32,0.051683,1167.282
33,0.053333,1169.667
34,0.054983,1170.114
35,0.05665,1170.114
36,0.058317,1170.412
37,0.059983,1167.729
38,0.061667,1166.388
39,0.063317,1166.388
40,0.064983,1166.239
41,0.06665,1165.047
42,0.068317,1167.059
43,0.069983,1167.059
44,0.07165000000000001,1165.792
45,0.07331699999999999,1163.483
46,0.07498299999999999,1163.483
47,0.07665,1162.365
48,0.078317,1160.651
49,0.079983,1161.918
50,0.08165,1161.918
51,0.083317,1166.91
52,0.084983,1171.008
53,0.08665,1171.38
54,0.08831700000000001,1171.38
55,0.08998299999999999,1168.922
56,0.09165,1168.996
57,0.093317,1166.761
58,0.094983,1166.761
59,0.09665,1166.686
60,0.098317,1168.847
61,0.099983,1168.847
62,0.10165,1169.369
63,0.103317,1169.294
64,0.10505,1167.506
65,0.10665,1167.506
66,0.108317,1167.059
67,0.109983,1163.334
68,0.11165,1163.036
69,0.113317,1163.036
70,0.114967,1164.973
71,0.116633,1164.451
72,0.1183,1166.686
73,0.119967,1166.686
74,0.121633,1165.42
75,0.1233,1162.812
76,0.124967,1162.812
77,0.126633,1163.855
78,0.1283,1163.781
79,0.129967,1165.569
80,0.131633,1165.569
81,0.1333,1166.016
82,0.134967,1167.208
83,0.136633,1165.345
84,0.13835,1165.345
85,0.139967,1167.432
86,0.141633,1169.816
87,0.1433,1168.326
88,0.144967,1168.326
89,0.146633,1168.102
90,0.1483,1164.004
91,0.149967,1163.259
92,0.151633,1163.259
93,0.1533,1164.228
94,0.154967,1163.334
95,0.156633,1163.334
96,0.1583,1166.984
97,0.159967,1167.282
98,0.161633,1166.165
99,0.1633,1166.165
100,0.164967,1170.188
101,0.166633,1167.506
102,0.1683,1168.773
103,0.169967,1168.773
104,0.171633,1172.349
105,0.173283,1170.561
106,0.17495,1172.721
107,0.176617,1172.721
108,0.178317,1173.317
109,0.17995,1170.784
110,0.181617,1170.784
111,0.183283,1170.114
112,0.18495,1169.518
113,0.1866,1167.059
114,0.188267,1167.059
115,0.189933,1165.569
116,0.1916,1165.42
117,0.193267,1163.334
118,0.194933,1163.334
119,0.1966,1165.792
120,0.198267,1169.816
121,0.199933,1169.443
122,0.2016,1169.443
123,0.203267,1170.337
124,0.204933,1167.804
125,0.2066,1163.408
126,0.208267,1163.408
127,0.209933,1165.867
128,0.2116,1166.91
129,0.213267,1166.91
130,0.214933,1169.816
131,0.216617,1172.572
132,0.218267,1171.529
133,0.219933,1171.529
134,0.2216,1171.157
135,0.223317,1171.753
136,0.224933,1171.306
137,0.2266,1171.306
138,0.228267,1173.466
139,0.229933,1175.925
140,0.2316,1174.807
141,0.233267,1174.807
142,0.234917,1169.89
143,0.2366,1164.6
144,0.23825,1164.6
145,0.239933,1160.055
146,0.241583,1157.597
147,0.24325,1158.938
148,0.244917,1158.938
149,0.246583,1160.428
150,0.24825,1160.204
151,0.24995,1161.173
152,0.251583,1161.173
153,0.25325,1163.334
154,0.254917,1163.781
155,0.256683,1166.165
156,0.25825,1166.165
157,0.259917,1167.432
158,0.261583,1167.059
159,0.26325,1166.537
160,0.264917,1166.537
161,0.266583,1165.941
162,0.26825,1165.196
163,0.269917,1165.196
164,0.271583,1165.122
165,0.27325,1164.153
166,0.274917,1163.706
167,0.276583,1163.706
168,0.27825,1164.898
169,0.279917,1166.388
170,0.281583,1169.741
171,0.28325,1169.741
172,0.284917,1172.125
173,0.286583,1173.541
174,0.28825,1173.839
175,0.289917,1173.839
176,0.291583,1173.615
177,0.29325,1173.019
178,0.2949,1173.019
179,0.296567,1169.22
180,0.298233,1168.251
181,0.2999,1168.251
182,0.301567,1168.251
183,0.303233,1168.177
184,0.3049,1168.177
185,0.306567,1167.953
186,0.308233,1167.953
187,0.3099,1166.239
188,0.311567,1163.781
189,0.313233,1163.781
190,0.3149,1163.781
191,0.316567,1166.09
192,0.318233,1166.314
193,0.3199,1166.314
194,0.321567,1166.984
195,0.323233,1167.953
196,0.3249,1165.345
197,0.326567,1165.345
198,0.328233,1166.165
199,0.3299,1164.377
200,0.331567,1162.365
201,0.333233,1162.365
202,0.3349,1165.122
203,0.336567,1164.973
204,0.338233,1165.718
205,0.3399,1165.718
206,0.341617,1166.239
207,0.343233,1159.757
208,0.3449,1157.373
209,0.346567,1157.373
210,0.348233,1160.204
211,0.3499,1161.918
212,0.351567,1161.918
213,0.353233,1168.177
214,0.354883,1172.721
215,0.35655,1171.231
216,0.358283,1171.231
217,0.359883,1170.71
218,0.36155,1167.879
219,0.363217,1165.941
220,0.364883,1165.941
221,0.36655,1165.643
222,0.368217,1166.984
223,0.369883,1169.145
224,0.37155,1169.145
225,0.373217,1168.027
226,0.374967,1169.741
227,0.37655,1169.741
228,0.378217,1171.306
229,0.379883,1173.019
230,0.38155,1175.106
231,0.383217,1175.106
232,0.384883,1173.466
233,0.38655,1171.529
234,0.388217,1169.592
235,0.389883,1169.592
236,0.391583,1170.188
237,0.393217,1174.807
238,0.394883,1176.67
239,0.39655,1176.67
240,0.398217,1180.768
241,0.399883,1184.866
242,0.40155,1185.536
243,0.403217,1185.536
244,0.404883,1188.815
245,0.40655,1194.477
246,0.408217,1194.477
247,0.409883,1198.724
248,0.41155,1210.123
249,0.413217,1232.848
250,0.414867,1232.848
251,0.416533,1269.132
252,0.4182,1337.305
253,0.419867,1451.746
254,0.421533,1451.746
255,0.4232,1635.402
256,0.424867,1923.814
257,0.426533,2363.324
258,0.4282,2363.324
259,0.429867,2998.784
260,0.431533,3886.446
261,0.4332,3886.446
262,0.434867,5075.335
263,0.436533,6604.493
264,0.4382,8514.673000000001
265,0.439867,8514.673000000001
266,0.441533,10823.831
267,0.4432,13550.669
268,0.444867,16706.139
269,0.446533,16706.139
270,0.4482,20279.734
271,0.449867,24255.961
272,0.451533,28586.908
273,0.4532,28586.908
274,0.454867,33204.332
275,0.456533,38018.078
276,0.4582,42918.621
277,0.459867,42918.621
278,0.461533,47787.129
279,0.4632,52496.566
280,0.464867,52496.566
281,0.466533,56927.352
282,0.468217,60961.469
283,0.469867,64496.102
284,0.471533,64496.102
285,0.4732,67446.602
286,0.47485,69747.57000000001
287,0.476617,71351.82799999999
288,0.478167,71351.82799999999
289,0.479833,72249.54700000001
290,0.4815,72443.711
291,0.483167,71960.461
292,0.484833,71960.461
293,0.4865,70848.469
294,0.488167,69178.266
295,0.489833,69178.266
296,0.4915,67041.516
297,0.493267,64535.961
298,0.494833,61761.887
299,0.4965,61761.887
300,0.498167,58807.434
301,0.499833,55751.352
302,0.5014999999999999,52664.207
303,0.503167,52664.207
304,0.504833,49607.977
305,0.5065,46632.887
306,0.508167,43773.352
307,0.509833,43773.352
308,0.5115,41057.02
309,0.513167,38501.621
310,0.514833,38501.621
311,0.5165,36113.785
312,0.518167,33893.809
313,0.519833,31840.727
314,0.5215,31840.727
315,0.523167,29947.832
316,0.524833,28205.141
317,0.5265,26605.725
318,0.5281670000000001,26605.725
319,0.529833,25135.949
320,0.5315,23784.787
321,0.5331669999999999,22544.936
322,0.534833,22544.936
323,0.536483,21405.592
324,0.53815,20360.275
325,0.539817,19403.1
326,0.541483,19403.1
327,0.54315,18521.697
328,0.544817,17711.297
329,0.5464830000000001,17711.297
330,0.54815,16963.631
331,0.549817,16268.343
332,0.5514829999999999,15623.495
333,0.55315,15623.495
334,0.554817,15023.425
335,0.5564829999999999,14463.365
336,0.55815,13945.997
337,0.559817,13945.997
338,0.561483,13467.223
339,0.56315,13021.082
340,0.564817,12606.829
341,0.566483,12606.829
342,0.56815,12217.76
343,0.569817,11850.744
344,0.571483,11850.744
345,0.57315,11506.751
346,0.574817,11179.969
347,0.576483,10872.186
348,0.5781500000000001,10872.186
349,0.579817,10582.581
350,0.581483,10310.933
351,0.5831499999999999,10056.794
352,0.584817,10056.794
353,0.586483,9819.343999999999
354,0.58815,9592.324000000001
355,0.589817,9374.395
356,0.591483,9374.395
357,0.59315,9171.665000000001
358,0.59485,8978.322
359,0.596467,8794.441000000001
360,0.598133,8794.441000000001
361,0.5998329999999999,8619.799999999999
362,0.601467,8451.269
363,0.603133,8451.269
364,0.6048,8288.324000000001
365,0.606467,8133.799
366,0.608133,7986.426
367,0.6098,7986.426
368,0.61155,7845.908
369,0.613133,7714.107
370,0.6148,7587.746
371,0.616467,7587.746
372,0.618133,7465.556
373,0.6198,7347.39
374,0.621467,7233.173
375,0.623133,7233.173
376,0.6248,7120.371
377,0.626467,7015.392
378,0.628233,6912.425
379,0.6298,6912.425
380,0.631467,6811.768
381,0.6331329999999999,6718.114
382,0.6348,6718.114
383,0.636467,6626.397
384,0.638133,6535.873
385,0.6398,6453.618
386,0.641467,6453.618
387,0.643133,6372.258
388,0.6448,6295.145
389,0.646467,6223.768
390,0.648133,6223.768
391,0.6498,6146.58
392,0.651467,6073.341
393,0.653133,5999.729
394,0.654783,5999.729
395,0.65645,5927.98
396,0.658117,5860.254
397,0.659783,5860.254
398,0.66145,5794.689
399,0.663117,5729.869
400,0.664783,5668.029
401,0.66645,5668.029
402,0.668117,5607.456
403,0.669783,5549.043
404,0.67145,5492.568
405,0.67315,5492.568
406,0.674783,5435.571
407,0.67645,5380.586
408,0.678117,5328.506
409,0.679783,5328.506
410,0.68145,5279.109
411,0.683117,5230.159
412,0.684783,5230.159
413,0.68645,5184.859
414,0.688117,5135.909
415,0.689783,5088.821
416,0.69145,5088.821
417,0.693133,5045.235
418,0.694783,4998.147
419,0.69645,4954.859
420,0.698117,4954.859
421,0.699783,4909.188
422,0.70145,4862.845
423,0.703117,4820.898
424,0.704783,4820.898
425,0.70645,4779.175
426,0.708117,4739.687
427,0.7097830000000001,4739.687
428,0.71145,4699.081
429,0.713117,4657.134
430,0.714767,4616.678
431,0.716433,4616.678
432,0.7181,4575.923
433,0.719767,4538.148
434,0.721433,4502.982
435,0.7231,4502.982
436,0.7247670000000001,4468.709
437,0.72645,4435.182
438,0.7281,4402.101
439,0.729783,4402.101
440,0.731433,4369.244
441,0.7331,4336.238
442,0.7347669999999999,4306.883
443,0.736433,4306.883
444,0.7381,4276.559
445,0.739767,4244.745
446,0.741433,4244.745
447,0.7431,4211.739
448,0.744767,4175.007
449,0.746533,4142.15
450,0.7481,4142.15
451,0.749767,4111.007
452,0.751433,4081.652
453,0.7531,4055.798
454,0.754767,4055.798
455,0.756433,4026.666
456,0.7581,3998.801
457,0.759767,3970.489
458,0.761433,3970.489
459,0.7631,3940.389
460,0.764767,3913.417
461,0.766433,3913.417
462,0.768083,3886.744
463,0.76975,3858.06
464,0.771417,3832.504
465,0.773083,3832.504
466,0.774733,3808.141
467,0.7764,3780.872
468,0.778067,3755.987
469,0.779733,3755.987
470,0.7814,3729.314
471,0.783067,3702.044
472,0.784733,3680.214
473,0.7864,3680.214
474,0.788067,3657.564
475,0.789733,3633.648
476,0.7914,3609.583
477,0.793067,3609.583
478,0.794733,3585.443
479,0.7964,3561.899
480,0.798067,3561.899
481,0.799733,3543.496
482,0.8014,3521.144
483,0.803067,3495.813
484,0.804733,3495.813
485,0.8064,3473.014
486,0.808067,3447.98
487,0.809733,3427.565
488,0.8114,3427.565
489,0.813067,3408.194
490,0.814733,3388.449
491,0.8164,3368.556
492,0.818067,3368.556
493,0.819733,3346.13
494,0.8214,3322.363
495,0.823067,3322.363
496,0.824733,3299.713
497,0.8264,3278.777
498,0.828067,3258.958
499,0.8297330000000001,3258.958
500,0.8314,3240.854
501,0.833067,3221.482
502,0.834717,3199.354
503,0.836383,3199.354
504,0.83805,3178.79
505,0.839717,3157.556
506,0.841383,3139.079
507,0.84305,3139.079
508,0.8447170000000001,3122.24
509,0.846383,3102.869
510,0.84805,3086.329
511,0.8497169999999999,3086.329
512,0.851383,3067.479
513,0.85305,3051.162
514,0.8547169999999999,3051.162
515,0.856383,3033.504
516,0.85805,3015.324
517,0.859717,2997.518
518,0.861383,2997.518
519,0.86305,2977.401
520,0.864833,2959.445
521,0.866383,2940.893
522,0.868067,2940.893
523,0.869717,2922.937
524,0.871383,2908.483
525,0.87305,2894.774
526,0.874717,2894.774
527,0.876383,2879.128
528,0.87805,2863.482
529,0.879717,2863.482
530,0.881383,2844.185
531,0.88305,2827.048
532,0.884717,2813.563
533,0.886383,2813.563
534,0.88805,2798.289
535,0.889717,2784.133
536,0.891383,2764.836
537,0.8930670000000001,2764.836
538,0.8947000000000001,2748.147
539,0.896367,2734.512
540,0.898033,2718.27
541,0.8997000000000001,2718.27
542,0.901367,2707.168
543,0.903033,2690.554
544,0.9046999999999999,2690.554
545,0.906367,2674.237
546,0.908033,2662.093
547,0.9097,2650.172
548,0.911367,2650.172
549,0.913033,2638.25
550,0.9147,2623.722
551,0.916367,2607.927
552,0.918033,2607.927
553,0.9197,2592.281
554,0.921367,2576.932
555,0.923033,2566.353
556,0.9247,2566.353
557,0.9263670000000001,2555.102
558,0.928033,2539.978
559,0.9297,2526.417
560,0.9313669999999999,2526.417
561,0.933033,2510.473
562,0.9347,2492.964
563,0.9363669999999999,2492.964
564,0.938033,2479.404
565,0.9397,2467.334
566,0.941367,2456.009
567,0.943033,2456.009
568,0.9447,2447.069
569,0.946367,2434.924
570,0.948033,2423.45
571,0.9497,2423.45
572,0.951367,2409.816
573,0.953017,2396.777
574,0.9546829999999999,2386.495
575,0.95635,2386.495
576,0.958017,2374.202
577,0.9597329999999999,2363.399
578,0.96135,2363.399
579,0.963017,2351.254
580,0.9647,2338.663
581,0.96635,2324.507
582,0.968017,2324.507
583,0.969683,2311.17
584,0.97135,2298.802
585,0.973017,2289.191
586,0.974683,2289.191
587,0.9763500000000001,2278.537
588,0.978017,2269.372
589,0.979683,2259.836
590,0.9813499999999999,2259.836
591,0.9831,2250.597
592,0.984683,2242.029
593,0.9863499999999999,2229.959
594,0.988017,2229.959
595,0.989683,2217.814
596,0.99135,2205.595
597,0.993017,2205.595
598,0.994683,2196.357
599,0.99635,2187.789
600,0.998017,2178.997
601,0.999683,2178.997
602,1.00135,2168.566
603,1.003017,2156.422
604,1.004683,2147.406
605,1.00635,2147.406
606,1.008017,2135.783
607,1.009683,2123.266
608,1.01135,2115.369
609,1.013017,2115.369
610,1.014667,2102.703
611,1.016333,2093.092
612,1.018,2093.092
613,1.019667,2083.331
614,1.021333,2070.74
615,1.023,2063.066
616,1.024667,2063.066
617,1.026333,2056.584
618,1.028,2052.858
619,1.029667,2047.792
620,1.031367,2047.792
621,1.033,2039.224
622,1.034667,2031.773
623,1.036333,2022.609
624,1.038,2022.609
625,1.039667,2014.935
626,1.041333,2008.08
627,1.043,1998.32
628,1.044683,1998.32
629,1.046333,1988.336
630,1.048,1979.843
631,1.049667,1979.843
632,1.051333,1972.541
633,1.053,1965.612
634,1.054667,1960.024
635,1.056333,1960.024
636,1.058,1950.636
637,1.05965,1939.684
638,1.061317,1930.743
639,1.062983,1930.743
640,1.06465,1924.411
641,1.066317,1918.152
642,1.067983,1914.427
643,1.06965,1914.427
644,1.0713,1908.615
645,1.072983,1899.675
646,1.074633,1899.675
647,1.0763,1893.789
648,1.077967,1886.338
649,1.079633,1881.197
650,1.0813,1881.197
651,1.082967,1877.174
652,1.084633,1870.17
653,1.0863,1862.347
654,1.087967,1862.347
655,1.089633,1852.065
656,1.0913,1841.262
657,1.092967,1835.376
658,1.094633,1835.376
659,1.0963,1830.533
660,1.097967,1826.286
661,1.099633,1826.286
662,1.101333,1820.847
663,1.102967,1813.62
664,1.104633,1804.903
665,1.1063,1804.903
666,1.107967,1796.558
667,1.109633,1788.139
668,1.1113,1779.869
669,1.112967,1779.869
670,1.114633,1774.058
671,1.1163,1770.109
672,1.117967,1767.725
673,1.119633,1767.725
674,1.1213,1762.733
675,1.122967,1755.431
676,1.124633,1752.675
677,1.1263,1752.675
678,1.127967,1747.534
679,1.129633,1742.393
680,1.1313,1742.393
681,1.132983,1739.711
682,1.134617,1731.366
683,1.136283,1722.798
684,1.13795,1722.798
685,1.139617,1718.551
686,1.141283,1714.528
687,1.14295,1712.143
688,1.144617,1712.143
689,1.146283,1708.195
690,1.14795,1703.426
691,1.149617,1695.827
692,1.151283,1695.827
693,1.15295,1687.854
694,1.154617,1682.639
695,1.156283,1682.639
696,1.15795,1675.114
697,1.159617,1670.048
698,1.161283,1665.503
699,1.16295,1665.503
700,1.164617,1661.256
701,1.166283,1659.84
702,1.16795,1658.648
703,1.169617,1658.648
704,1.171283,1652.986
705,1.17295,1650.751
706,1.174617,1645.237
707,1.176283,1645.237
708,1.17795,1640.32
709,1.179617,1640.096
710,1.181283,1632.72
711,1.18295,1632.72
712,1.184617,1627.654
713,1.18635,1622.066
714,1.18795,1622.066
715,1.189617,1614.913
716,1.191283,1610.89
717,1.192933,1607.761
718,1.1946,1607.761
719,1.196267,1603.439
720,1.197933,1601.353
721,1.1996,1601.8
722,1.201267,1601.8
723,1.202933,1599.118
724,1.2046,1596.361
725,1.206267,1589.879
726,1.207933,1589.879
727,1.2096,1582.801
728,1.211267,1579.076
729,1.212933,1579.076
730,1.2146,1576.021
731,1.216267,1572.296
732,1.217933,1567.379
733,1.219617,1567.379
734,1.221267,1562.238
735,1.222933,1557.171
736,1.2246,1556.799
737,1.226267,1556.799
738,1.227933,1554.713
739,1.2296,1550.242
740,1.231267,1546.666
741,1.232933,1546.666
742,1.2346,1540.109
743,1.236267,1534.745
744,1.237933,1531.243
745,1.2396,1531.243
746,1.241267,1527.443
747,1.242933,1524.91
748,1.2446,1524.91
749,1.246267,1524.538
750,1.247933,1523.644
751,1.2496,1518.95
752,1.251267,1518.95
753,1.252933,1517.162
754,1.254583,1511.946
755,1.25625,1507.923
756,1.257917,1507.923
757,1.259583,1507.699
758,1.26125,1502.261
759,1.262917,1502.335
760,1.264583,1502.335
761,1.26625,1500.025
762,1.267917,1496.822
763,1.269583,1496.822
764,1.271267,1495.555
765,1.272917,1491.01
766,1.274583,1484.826
767,1.27625,1484.826
768,1.277917,1479.76
769,1.279583,1474.768
770,1.28125,1473.352
771,1.282917,1473.352
772,1.284583,1476.556
773,1.28625,1476.929
774,1.287917,1478.419
775,1.289583,1478.419
776,1.29125,1472.682
777,1.292917,1467.839
778,1.294583,1461.953
779,1.29625,1461.953
780,1.297917,1459.867
781,1.299583,1462.698
782,1.30125,1462.698
783,1.302917,1462.027
784,1.304633,1460.314
785,1.30625,1453.981
786,1.307917,1453.981
787,1.309583,1447.35
788,1.31125,1442.805
789,1.312917,1444.146
790,1.314567,1444.146
791,1.316233,1445.934
792,1.317933,1443.177
793,1.319567,1442.358
794,1.321367,1442.358
795,1.3229,1436.472
796,1.324567,1430.511
797,1.326233,1430.511
798,1.3279,1426.414
799,1.329567,1423.21
800,1.331233,1424.7
801,1.3329,1424.7
802,1.334567,1425.445
803,1.336233,1428.649
804,1.338,1427.904
805,1.339567,1427.904
806,1.341233,1424.625
807,1.3429,1421.198
808,1.344567,1416.802
809,1.346233,1416.802
810,1.3479,1412.407
811,1.349567,1407.713
812,1.351217,1407.713
813,1.352883,1405.254
814,1.35465,1404.434
815,1.356217,1401.38
816,1.357883,1401.38
817,1.35955,1400.709
818,1.361217,1397.431
819,1.362883,1396.909
820,1.36455,1396.909
821,1.366217,1395.717
822,1.367883,1394.376
823,1.36955,1393.408
824,1.371217,1393.408
825,1.372883,1389.608
826,1.374533,1387.447
827,1.3762,1385.734
828,1.377867,1385.734
829,1.379533,1387.224
830,1.3812,1385.51
831,1.382867,1385.51
832,1.384533,1386.553
833,1.386217,1387.149
834,1.387917,1384.914
835,1.389533,1384.914
836,1.391217,1384.69
837,1.392867,1382.604
838,1.394533,1380.965
839,1.3962,1380.965
840,1.397867,1378.506
841,1.399533,1378.879
842,1.4012,1376.271
843,1.402867,1376.271
844,1.404533,1372.993
845,1.4062,1369.044
846,1.407867,1369.044
847,1.409533,1363.605
848,1.4112,1362.041
849,1.412867,1360.327
850,1.414533,1360.327
851,1.4162,1358.762
852,1.417867,1358.762
853,1.419533,1356.378
854,1.4212,1356.378
855,1.422867,1356.229
856,1.424533,1359.433
857,1.4262,1356.825
858,1.427867,1356.825
859,1.429533,1359.209
860,1.4312,1356.676
861,1.432867,1352.206
862,1.434517,1352.206
863,1.436183,1350.79
864,1.43785,1347.438
865,1.439583,1347.438
866,1.441183,1347.438
867,1.44285,1344.457
868,1.444517,1344.457
869,1.4462,1344.457
870,1.44785,1344.755
871,1.449517,1342.967
872,1.451183,1342.893
873,1.45285,1342.893
874,1.454517,1340.061
875,1.4562,1335.591
876,1.45785,1333.654
877,1.459517,1333.654
878,1.461183,1333.132
879,1.46285,1331.866
880,1.464517,1331.866
881,1.4662,1328.141
882,1.46785,1325.011
883,1.469517,1325.533
884,1.471183,1325.533
885,1.472967,1324.788
886,1.474517,1328.737
887,1.476183,1331.791
888,1.47785,1331.791
889,1.479517,1327.395
890,1.481183,1325.384
891,1.48285,1321.658
892,1.484517,1321.658
893,1.486183,1316.22
894,1.48785,1312.867
895,1.489517,1312.867
896,1.491183,1312.271
897,1.492833,1313.761
898,1.4945,1315.474
899,1.496167,1315.474
900,1.497833,1319.274
901,1.4995,1318.231
902,1.501167,1315.4
903,1.502833,1315.4
904,1.5045,1315.251
905,1.506167,1311.526
906,1.507833,1313.686
907,1.5095,1313.686
908,1.511167,1313.686
909,1.512833,1310.93
910,1.5145,1312.271
911,1.516167,1312.271
912,1.517833,1307.055
913,1.5195,1304.82
