"ID","sea_time","fid_signal"
1,0,140.876
2,0.001667,140.913
3,0.003333,141.107
4,0.005,141.107
5,0.006667,140.704
6,0.008333,140.592
7,0.01,140.592
8,0.011667,140.518
9,0.013333,140.503
10,0.015083,140.831
11,0.016667,140.831
12,0.018333,140.913
13,0.02,140.943
14,0.021667,140.54
15,0.023317,140.54
16,0.024983,140.51
17,0.02665,140.682
18,0.028317,140.637
19,0.029983,140.637
20,0.031783,140.846
21,0.033317,140.853
22,0.034983,140.876
23,0.03665,140.876
24,0.038317,141.039
25,0.039983,141.107
26,0.04165,141.107
27,0.043317,141.293
28,0.044983,140.95
29,0.04665,140.727
30,0.048317,140.727
31,0.049983,141.017
32,0.05165,140.943
33,0.053317,141.226
34,0.054983,141.226
35,0.05665,141.241
36,0.058317,141.256
37,0.059983,141.069
38,0.06165,141.069
39,0.063317,140.667
40,0.065,140.868
41,0.06665,140.868
42,0.068317,140.704
43,0.069983,140.786
44,0.07165000000000001,140.823
45,0.073333,140.823
46,0.075,140.578
47,0.07665,140.57
48,0.078317,140.496
49,0.079983,140.496
50,0.08165,140.704
51,0.083317,140.898
52,0.084967,140.727
53,0.086633,140.727
54,0.0883,141.077
55,0.08996700000000001,141.248
56,0.09163300000000001,141.248
57,0.09329999999999999,141.248
58,0.094967,141.263
59,0.096633,141.129
60,0.0983,141.129
61,0.099967,140.987
62,0.101633,140.965
63,0.1033,140.861
64,0.104967,140.861
65,0.106633,140.496
66,0.1083,140.682
67,0.109967,140.913
68,0.111633,140.913
69,0.1133,141.218
70,0.114967,141.591
71,0.116667,141.308
72,0.1183,141.308
73,0.119967,141.107
74,0.121633,141.084
75,0.1233,141.084
76,0.124967,140.98
77,0.126633,140.898
78,0.1283,140.846
79,0.129967,140.846
80,0.131633,140.63
81,0.1334,140.488
82,0.134967,140.592
83,0.13665,140.592
84,0.138317,140.488
85,0.139967,140.779
86,0.141617,140.883
87,0.143283,140.883
88,0.14495,140.749
89,0.146617,140.831
90,0.148283,140.831
91,0.150017,140.563
92,0.151617,140.443
93,0.153283,140.54
94,0.15495,140.54
95,0.156617,140.458
96,0.158283,140.54
97,0.15995,140.846
98,0.161617,140.846
99,0.163283,140.987
100,0.16495,141.144
101,0.166733,141.3
102,0.168283,141.3
103,0.16995,140.876
104,0.171617,140.801
105,0.173283,140.905
106,0.17495,140.905
107,0.176617,141.054
108,0.178283,141.136
109,0.17995,141.136
110,0.181617,140.883
111,0.183283,140.704
112,0.18495,140.585
113,0.186617,140.585
114,0.188283,140.771
115,0.18995,141.099
116,0.191617,140.831
117,0.193283,140.831
118,0.19495,140.704
119,0.196617,140.995
120,0.198283,141.032
121,0.19995,141.032
122,0.201617,141.3
123,0.203283,141.025
124,0.204933,141.025
125,0.2066,140.853
126,0.208267,140.779
127,0.209933,140.689
128,0.211633,140.689
129,0.213267,141.107
130,0.214933,141.576
131,0.2166,142.09
132,0.218267,142.09
133,0.219933,142.969
134,0.2216,144.236
135,0.223267,145.905
136,0.224933,145.905
137,0.2266,147.998
138,0.228267,151.061
139,0.229933,154.629
140,0.231583,154.629
141,0.23325,158.921
142,0.234917,164.397
143,0.236583,164.397
144,0.23825,170.32
145,0.239917,177.264
146,0.241583,184.685
147,0.24325,184.685
148,0.244917,192.985
149,0.246583,202.648
150,0.24825,212.729
151,0.249933,212.729
152,0.25165,223.733
153,0.25325,235.483
154,0.254917,247.754
155,0.256583,247.754
156,0.25825,260.949
157,0.259917,275.083
158,0.261583,275.083
159,0.263233,290.446
160,0.2649,306.427
161,0.266567,323.437
162,0.268317,323.437
163,0.2699,341.05
164,0.271567,359.341
165,0.273233,378.586
166,0.2749,378.586
167,0.276567,398.993
168,0.278233,420.347
169,0.2799,442.848
170,0.281567,442.848
171,0.283233,466.54
172,0.2849,491.44
173,0.286567,491.44
174,0.288233,517.562
175,0.2899,545.01
176,0.291567,574.037
177,0.293233,574.037
178,0.2949,604.197
179,0.296567,636.064
180,0.298233,669.45
181,0.2999,669.45
182,0.301567,704.713
183,0.303233,742.272
184,0.3049,782.266
185,0.306567,782.266
186,0.308233,824.586
187,0.3099,870.004
188,0.311567,919.215
189,0.313233,919.215
190,0.3149,974.804
191,0.316567,1040.339
192,0.318233,1040.339
193,0.3199,1120.984
194,0.321567,1225.054
195,0.323217,1361.974
196,0.324883,1361.974
197,0.32655,1542.598
198,0.328217,1776.867
199,0.329883,2071.917
200,0.33155,2071.917
201,0.333217,2429.992
202,0.334883,2847.09
203,0.33655,3312.148
204,0.338217,3312.148
205,0.339883,3807.686
206,0.34155,4312.441
207,0.343217,4312.441
208,0.344883,4804.082
209,0.34655,5261.392
210,0.348217,5666.107
211,0.349883,5666.107
212,0.35155,6003.961
213,0.353217,6265.409
214,0.354883,6445.199
215,0.35655,6445.199
216,0.358217,6543.361
217,0.359883,6564.208
218,0.361567,6515.197
219,0.363217,6515.197
220,0.364883,6406.449
221,0.36655,6249.1
222,0.368217,6054.148
223,0.369933,6054.148
224,0.37155,5831.667
225,0.373217,5590.737
226,0.374883,5590.737
227,0.37655,5338.877
228,0.378217,5082.391
229,0.379883,4826.248
230,0.38155,4826.248
231,0.3832,4574.708
232,0.384867,4330.911
233,0.3866,4096.933
234,0.3882,4096.933
235,0.389867,3874.615
236,0.391533,3664.196
237,0.3932,3465.489
238,0.394867,3465.489
239,0.396533,3278.673
240,0.3982,3102.772
241,0.399867,3102.772
242,0.401533,2938.017
243,0.4033,2784.468
244,0.404867,2641.343
245,0.406533,2641.343
246,0.4082,2508.029
247,0.409867,2383.858
248,0.411533,2267.718
249,0.4132,2267.718
250,0.414867,2158.903
251,0.416533,2057.739
252,0.4182,1962.975
253,0.419867,1962.975
254,0.421533,1874.752
255,0.4232,1792.23
256,0.424867,1714.572
257,0.426533,1714.572
258,0.42825,1641.966
259,0.429867,1573.563
260,0.431533,1573.563
261,0.4332,1509.704
262,0.434867,1449.89
263,0.436533,1393.765
264,0.4382,1393.765
265,0.439867,1340.963
266,0.441533,1290.88
267,0.443183,1243.517
268,0.444867,1243.517
269,0.446517,1198.821
270,0.448217,1156.762
271,0.44985,1117.147
272,0.451517,1117.147
273,0.453183,1079.813
274,0.45485,1044.46
275,0.456517,1044.46
276,0.458183,1010.537
277,0.45985,978.6559999999999
278,0.461517,947.997
279,0.463183,947.997
280,0.46485,918.947
281,0.466517,891.596
282,0.468183,865.303
283,0.46985,865.303
284,0.471517,840.597
285,0.473183,816.472
286,0.47485,793.539
287,0.476517,793.539
288,0.4782,771.806
289,0.47985,751.011
290,0.481517,731.468
291,0.483183,731.468
292,0.48485,712.372
293,0.486517,693.9690000000001
294,0.488183,693.9690000000001
295,0.48985,676.148
296,0.491517,659.093
297,0.493183,642.814
298,0.49485,642.814
299,0.496517,627.3390000000001
300,0.4982,612.482
301,0.49985,598.1180000000001
302,0.501517,598.1180000000001
303,0.503167,584.394
304,0.504833,571.236
305,0.5065,558.741
306,0.508167,558.741
307,0.509833,546.448
308,0.5115,534.534
309,0.513167,534.534
310,0.514833,522.785
311,0.5165,511.609
312,0.518167,500.716
313,0.519833,500.716
314,0.5215,490.248
315,0.52315,480.369
316,0.524817,470.676
317,0.526483,470.676
318,0.52815,461.586
319,0.529817,452.898
320,0.531483,444.084
321,0.53315,444.084
322,0.534817,435.613
323,0.536483,427.499
324,0.538167,427.499
325,0.539817,419.654
326,0.541483,412.114
327,0.54315,404.611
328,0.544817,404.611
329,0.5464830000000001,397.22
330,0.54815,390.157
331,0.549817,383.519
332,0.5514829999999999,383.519
333,0.55315,377.014
334,0.554817,370.853
335,0.5564829999999999,364.81
336,0.55815,364.81
337,0.559817,358.88
338,0.561483,353.21
339,0.56315,347.689
340,0.5648,347.689
341,0.5664670000000001,341.967
342,0.568167,336.677
343,0.5698,336.677
344,0.5714669999999999,331.528
345,0.573133,326.484
346,0.5748,321.999
347,0.576467,321.999
348,0.578133,317.372
349,0.5798,312.723
350,0.581467,308.327
351,0.583133,308.327
352,0.5848,303.805
353,0.586467,299.618
354,0.588133,295.699
355,0.5898,295.699
356,0.591467,291.795
357,0.593133,288.069
358,0.5948,288.069
359,0.596467,284.232
360,0.598133,280.507
361,0.5998,276.737
362,0.601467,276.737
363,0.603133,273.503
364,0.6048,270.583
365,0.606467,267.617
366,0.608133,267.617
367,0.6098,265.107
368,0.611467,262.082
369,0.613133,259.094
370,0.6148,259.094
371,0.616467,256.114
372,0.618133,253.282
373,0.6198,250.839
374,0.621467,250.839
375,0.623117,248.253
376,0.624783,245.765
377,0.62645,245.765
378,0.628117,243.06
379,0.629783,240.46
380,0.63145,237.897
381,0.633117,237.897
382,0.634783,236.019
383,0.63645,233.747
384,0.638117,231.437
385,0.639917,231.437
386,0.641467,229.135
387,0.643117,226.751
388,0.644783,224.762
389,0.64645,224.762
390,0.6481170000000001,223.011
391,0.649783,221.469
392,0.65145,221.469
393,0.653133,219.442
394,0.654783,217.631
395,0.65645,215.679
396,0.658117,215.679
397,0.659783,213.63
398,0.66145,211.745
399,0.663117,209.913
400,0.664783,209.913
401,0.66645,208.385
402,0.668117,206.925
403,0.669783,205.629
404,0.67145,205.629
405,0.673117,204.347
406,0.674783,202.678
407,0.67645,202.678
408,0.678117,201.218
409,0.679783,200.16
410,0.68145,198.968
411,0.6831,198.968
412,0.684767,197.724
413,0.686433,196.643
414,0.6881,195.123
415,0.689767,195.123
416,0.691433,193.663
417,0.6931,192.605
418,0.694767,191.435
419,0.696433,191.435
420,0.6981000000000001,190.191
421,0.699767,189.133
422,0.701433,188.12
423,0.703133,188.12
424,0.704767,187.226
425,0.706433,186.548
426,0.7081,186.548
427,0.709767,185.363
428,0.711433,183.977
429,0.7131,182.904
430,0.714767,182.904
431,0.716433,182.077
432,0.7181,181.258
433,0.719767,180.542
434,0.721433,180.542
435,0.7231,179.596
436,0.7248329999999999,178.665
437,0.726433,177.979
438,0.7281,177.979
439,0.7297670000000001,177.376
440,0.731433,176.46
441,0.7331,176.46
442,0.7347669999999999,175.655
443,0.736433,174.895
444,0.7381,174.038
445,0.739767,174.038
446,0.741433,173.554
447,0.7431,172.757
448,0.74475,172.339
449,0.746417,172.339
450,0.7480830000000001,171.907
451,0.74975,171.386
452,0.751417,170.827
453,0.7530829999999999,170.827
454,0.75475,170.313
455,0.756417,169.978
456,0.7582,169.255
457,0.75975,169.255
458,0.761417,168.748
459,0.763083,167.891
460,0.76475,167.891
461,0.766417,166.96
462,0.768083,166.111
463,0.76975,165.358
464,0.771417,165.358
465,0.773083,164.934
466,0.77475,164.479
467,0.776417,164.345
468,0.778083,164.345
469,0.779767,163.741
470,0.781417,162.944
471,0.783083,162.378
472,0.7847499999999999,162.378
473,0.786417,161.879
474,0.788083,161.722
475,0.78975,161.722
476,0.791417,161.894
477,0.793083,161.633
478,0.79475,161.164
479,0.796417,161.164
480,0.798083,160.865
481,0.79975,160.284
482,0.801417,159.889
483,0.803083,159.889
484,0.804733,159.703
485,0.8064,159.137
486,0.808067,158.638
487,0.809733,158.638
488,0.8114,158.34
489,0.813067,158.019
490,0.814717,157.803
491,0.816383,157.803
492,0.8180500000000001,157.341
493,0.819717,156.991
494,0.821383,156.991
495,0.8230499999999999,156.663
496,0.824717,156.328
497,0.826383,156.417
498,0.828067,156.417
499,0.829717,156.134
500,0.831383,155.717
501,0.83305,155.434
502,0.834717,155.434
503,0.836383,155.166
504,0.83805,155.017
505,0.839717,154.883
506,0.841383,154.883
507,0.8431,154.711
508,0.844733,154.339
509,0.846383,154.339
510,0.848067,154.145
511,0.8497169999999999,154.309
512,0.851383,154.383
513,0.85305,154.383
514,0.8547169999999999,154.369
515,0.856383,154.294
516,0.85805,153.631
517,0.859717,153.631
518,0.861383,153.065
519,0.86305,152.647
520,0.8647,152.029
521,0.866367,152.029
522,0.8680330000000001,151.634
523,0.8697,151.679
524,0.871367,151.679
525,0.8730329999999999,151.336
526,0.8747,151.202
527,0.876367,151.232
528,0.878033,151.232
529,0.8797,150.837
530,0.881367,150.949
531,0.883033,150.815
532,0.8847,150.815
533,0.886367,150.733
534,0.888033,150.606
535,0.8897,150.383
536,0.891367,150.383
537,0.893033,150.435
538,0.8947000000000001,150.375
539,0.896367,150.368
540,0.898033,150.368
541,0.8997000000000001,150.442
542,0.901367,150.263
543,0.903033,150.263
544,0.9046999999999999,150.241
545,0.906367,150.107
546,0.908033,149.734
547,0.9097,149.734
548,0.911367,149.742
549,0.913033,149.295
550,0.9147,149.265
551,0.916367,149.265
552,0.918033,149.108
553,0.9197,148.751
554,0.921383,148.751
555,0.923033,148.751
556,0.924683,148.535
557,0.92635,148.512
558,0.928017,148.512
559,0.929683,148.55
560,0.93135,148.512
561,0.933017,148.371
562,0.934683,148.371
563,0.93635,148.341
564,0.938017,148.244
565,0.939683,148.14
566,0.94135,148.14
567,0.943017,148.393
568,0.9446830000000001,148.416
569,0.94635,148.535
570,0.948017,148.535
571,0.9496830000000001,148.43
572,0.95135,147.872
573,0.953017,147.551
574,0.9546829999999999,147.551
575,0.95635,147.216
576,0.958017,146.896
577,0.959683,146.896
578,0.961367,146.873
579,0.963017,146.747
580,0.964683,146.575
581,0.96635,146.575
582,0.968017,146.911
583,0.969683,146.836
584,0.97135,147.03
585,0.973017,147.03
586,0.974683,147.082
587,0.9763500000000001,146.732
588,0.978017,146.709
589,0.979683,146.709
590,0.9813499999999999,146.501
591,0.983,146.396
592,0.984667,146.396
593,0.986333,146.493
594,0.988,146.717
595,0.989667,146.478
596,0.991333,146.478
597,0.993,146.478
598,0.994717,146.374
599,0.9964,146.024
600,0.998,146.024
601,0.999667,146.188
602,1.001333,145.972
603,1.003,145.689
604,1.004667,145.689
605,1.006333,145.555
606,1.008,145.264
607,1.009667,145.219
608,1.011367,145.219
609,1.013,145.346
610,1.014667,145.547
611,1.016333,145.547
612,1.018,145.704
613,1.019667,145.741
614,1.021333,145.994
615,1.023,145.994
616,1.024667,145.808
617,1.026333,145.994
618,1.028,146.031
619,1.029667,146.031
620,1.031333,145.495
621,1.033,145.547
622,1.034667,145.331
623,1.036333,145.331
624,1.038,145.122
625,1.039667,145.532
626,1.041333,145.532
627,1.043,145.413
628,1.04465,145.279
629,1.046317,145.413
630,1.047983,145.413
631,1.04965,145.175
632,1.051317,145.085
633,1.052983,145.063
634,1.05465,145.063
635,1.056333,144.891
636,1.057983,144.787
637,1.05965,144.795
638,1.061317,144.795
639,1.063,144.675
640,1.064717,144.795
641,1.066317,144.787
642,1.067983,144.787
643,1.06965,144.891
644,1.071317,145.108
645,1.072983,145.108
646,1.07465,144.944
647,1.076317,144.787
648,1.077983,144.355
649,1.07965,144.355
650,1.081317,143.878
651,1.082983,143.871
652,1.08465,143.625
653,1.086317,143.625
654,1.087983,143.677
655,1.08965,143.714
656,1.091317,143.565
657,1.092983,143.565
658,1.09465,143.908
659,1.096367,144.109
660,1.097983,144.109
661,1.09965,144.295
662,1.101317,144.385
663,1.102983,144.042
664,1.104617,144.042
665,1.106283,144.042
666,1.10795,144.079
667,1.109617,144.064
668,1.111283,144.064
669,1.113017,144.042
670,1.114617,143.945
671,1.116283,143.67
672,1.11795,143.67
673,1.119617,143.766
674,1.121283,144.139
675,1.12295,144.139
676,1.124617,144.206
677,1.126283,144.4
678,1.12795,144.4
679,1.129717,144.4
680,1.131283,144.228
681,1.13295,143.915
682,1.134617,143.751
683,1.136283,143.751
684,1.13795,143.789
685,1.13965,143.96
686,1.141283,144.228
687,1.14295,144.228
688,1.144617,144.362
689,1.146283,144.392
690,1.14795,144.288
691,1.149617,144.288
692,1.151283,144.057
693,1.15295,144.02
694,1.154617,144.02
695,1.156283,143.766
696,1.15795,143.573
697,1.159617,143.468
698,1.161283,143.468
699,1.162933,143.29
700,1.1646,143.103
701,1.166267,143.215
702,1.167933,143.215
703,1.1696,143.372
704,1.171267,143.357
705,1.172933,143.297
706,1.1746,143.297
707,1.176267,143.342
708,1.177933,143.349
709,1.1796,143.349
710,1.181267,143.55
711,1.182933,143.99
712,1.1846,144.109
713,1.186267,144.109
714,1.187933,143.953
715,1.1896,143.915
716,1.191267,143.565
717,1.192933,143.565
718,1.1946,143.416
719,1.196267,143.722
720,1.197933,143.617
721,1.1996,143.617
722,1.201267,143.565
723,1.202933,143.394
724,1.2046,143.23
725,1.206283,143.23
726,1.207933,143.133
727,1.2096,143.103
728,1.211267,143.103
729,1.212933,143.044
730,1.214683,142.865
731,1.216267,142.79
732,1.217933,142.79
733,1.2196,142.969
734,1.221267,143.029
735,1.222917,143.155
736,1.224583,143.155
737,1.22625,143.103
738,1.227917,142.984
739,1.229583,142.731
740,1.231333,142.731
741,1.232917,142.932
742,1.234583,143.364
743,1.23625,143.364
744,1.237917,143.506
745,1.239583,143.737
746,1.24125,143.334
747,1.242917,143.334
748,1.244583,143.148
749,1.24625,143.386
750,1.248033,143.439
751,1.249583,143.439
752,1.25125,143.394
753,1.252917,143.439
754,1.254583,142.954
755,1.25625,142.954
756,1.257917,142.887
757,1.259583,142.872
758,1.26125,142.5
759,1.262917,142.5
760,1.264583,142.694
761,1.26625,142.589
762,1.267917,142.589
763,1.269583,142.82
764,1.27125,143.215
765,1.272917,143.185
766,1.274583,143.185
767,1.27625,143.178
768,1.277917,143.103
769,1.279583,142.612
770,1.28125,142.612
771,1.282933,142.701
772,1.284633,143.051
773,1.286233,143.304
774,1.2879,143.304
775,1.289567,143.61
776,1.291233,143.662
777,1.2929,143.662
778,1.294567,143.476
779,1.296233,143.081
780,1.2979,143.17
781,1.299567,143.17
782,1.301233,142.902
783,1.3029,142.954
784,1.304567,143.178
785,1.306233,143.178
786,1.3079,143.096
787,1.309567,143.275
788,1.311233,143.178
789,1.3129,143.178
790,1.314567,143.208
791,1.316233,143.021
792,1.3179,143.021
793,1.319567,142.761
794,1.321233,142.79
795,1.3229,142.641
796,1.324567,142.641
797,1.326233,142.708
798,1.3279,142.857
799,1.329567,142.775
800,1.331233,142.775
801,1.332917,142.895
802,1.334567,142.865
803,1.336233,142.574
804,1.3379,142.574
805,1.339567,142.53
806,1.341233,142.559
807,1.3429,142.641
808,1.34455,142.641
809,1.346217,142.671
810,1.347883,142.485
811,1.349633,142.485
812,1.351217,142.507
813,1.352883,142.746
814,1.35455,142.872
815,1.356217,142.872
816,1.357883,142.828
817,1.35955,142.589
818,1.361233,142.254
819,1.362883,142.254
820,1.36455,142.545
821,1.366233,142.694
822,1.367883,143.014
823,1.36955,143.014
824,1.371217,143.312
825,1.372883,143.364
826,1.37455,143.364
827,1.376217,143.372
828,1.377883,143.334
829,1.37955,143.059
830,1.381217,143.059
831,1.382883,142.604
832,1.38455,142.507
833,1.386217,142.09
834,1.387883,142.09
835,1.38955,142.045
836,1.391217,142.068
837,1.392883,142.276
838,1.39455,142.276
839,1.3962,142.165
840,1.397867,142.142
841,1.399533,142.239
842,1.401183,142.239
843,1.402867,142.284
844,1.404517,142.612
845,1.4062,142.612
846,1.40785,142.798
847,1.409517,142.671
848,1.411183,142.388
849,1.41285,142.388
850,1.414517,142.328
851,1.416183,142.343
852,1.41785,142.455
853,1.419517,142.455
854,1.421183,142.448
855,1.42285,142.366
856,1.424517,142.41
857,1.426183,142.41
858,1.427883,142.5
859,1.429517,142.679
860,1.431183,142.679
861,1.432867,142.88
862,1.434517,142.79
863,1.436183,142.738
864,1.43785,142.738
865,1.439517,142.694
866,1.441183,142.314
867,1.44285,142.15
868,1.444517,142.15
869,1.446183,142.038
870,1.44785,141.889
871,1.449517,142.06
872,1.451233,142.06
873,1.45285,142.023
874,1.454517,142.083
875,1.456183,142.083
876,1.45785,142.03
877,1.459517,142.127
878,1.461183,142.53
879,1.462833,142.53
880,1.4645,142.485
881,1.466167,142.768
882,1.467833,142.746
883,1.4695,142.746
884,1.471167,142.381
885,1.472833,142.455
886,1.4745,142.574
887,1.476167,142.574
888,1.477833,142.44
889,1.4795,142.395
890,1.481167,142.373
891,1.482833,142.373
892,1.484633,142.254
893,1.486167,142.448
894,1.487833,142.448
895,1.4895,142.455
896,1.491167,142.589
897,1.492833,142.358
898,1.4945,142.358
899,1.496167,142.209
900,1.497833,142.433
901,1.4995,142.306
902,1.501167,142.306
903,1.502833,142.321
904,1.5045,142.492
905,1.506183,142.381
906,1.507833,142.381
907,1.5095,142.47
908,1.511167,142.5
909,1.512833,142.5
910,1.5145,142.291
911,1.516167,142.41
912,1.517833,142.425
913,1.5195,142.425
914,1.521183,142.656
915,1.522817,142.843
916,1.524483,142.515
917,1.52615,142.515
918,1.527817,142.232
919,1.529483,141.919
920,1.53115,141.636
921,1.532817,141.636
922,1.534483,141.822
923,1.53615,141.993
924,1.537817,142.068
925,1.539483,142.068
926,1.54115,142.276
927,1.542817,142.358
928,1.544483,142.358
929,1.54615,142.41
930,1.547817,142.44
931,1.549483,142.187
932,1.55115,142.187
933,1.552817,141.896
934,1.554483,141.695
935,1.55615,141.583
936,1.557817,141.583
937,1.559483,141.785
938,1.56115,141.583
939,1.562817,141.405
940,1.564483,141.405
941,1.56615,141.352
942,1.567817,141.397
943,1.569533,141.695
944,1.571167,141.695
945,1.572817,141.986
946,1.574483,142.187
947,1.57615,142.187
948,1.577817,141.904
949,1.579483,141.747
950,1.58115,141.554
951,1.582817,141.554
952,1.584467,141.144
953,1.586133,141.151
954,1.5878,141.136
955,1.589467,141.136
956,1.591133,141.054
957,1.5928,141.397
958,1.594467,141.725
959,1.596133,141.725
960,1.5978,141.948
961,1.599467,142.217
