"ID","sea_time","fid_signal"
1,0,1178.086
2,0.001783,1178.309
3,0.003333,1178.309
4,0.005,1181.141
5,0.006667,1182.556
6,0.008333,1182.854
7,0.01,1182.854
8,0.011667,1184.717
9,0.013333,1183.525
10,0.015,1180.992
11,0.016667,1180.992
12,0.018333,1180.917
13,0.02,1177.266
14,0.021667,1177.266
15,0.023333,1174.584
16,0.025,1172.945
17,0.026667,1172.498
18,0.028333,1172.498
19,0.03,1173.168
20,0.031667,1172.87
21,0.033317,1175.404
22,0.035,1175.404
23,0.03665,1176.894
24,0.038317,1176.372
25,0.039983,1176.968
26,0.04165,1176.968
27,0.043317,1175.478
28,0.044983,1172.349
29,0.04665,1172.349
30,0.048317,1173.988
31,0.049983,1173.913
32,0.05165,1174.733
33,0.053317,1174.733
34,0.054983,1175.478
35,0.05665,1171.604
36,0.058317,1170.635
37,0.059983,1170.635
38,0.06165,1169.816
39,0.063317,1171.008
40,0.064983,1173.615
41,0.06665,1173.615
42,0.068317,1175.627
43,0.069983,1176.596
44,0.07165000000000001,1178.533
45,0.07331699999999999,1178.533
46,0.07498299999999999,1181.811
47,0.07665,1180.321
48,0.078317,1180.321
49,0.079983,1181.215
50,0.08165,1180.097
51,0.083317,1176.447
52,0.084983,1176.447
53,0.0867,1178.458
54,0.08831700000000001,1177.117
55,0.08998299999999999,1179.948
56,0.09165,1179.948
57,0.09329999999999999,1180.321
58,0.094967,1177.266
59,0.096633,1180.097
60,0.0983,1180.097
61,0.099967,1175.031
62,0.101633,1172.051
63,0.1033,1172.051
64,0.104967,1172.87
65,0.106633,1171.678
66,0.1083,1172.498
67,0.109967,1172.498
68,0.111633,1176.149
69,0.1133,1180.768
70,0.114967,1181.215
71,0.116633,1181.215
72,0.1183,1183.599
73,0.12,1183.897
74,0.121633,1179.278
75,0.1233,1179.278
76,0.124983,1174.584
77,0.126633,1171.604
78,0.1283,1168.847
79,0.129967,1168.847
80,0.131633,1172.349
81,0.1333,1175.18
82,0.134967,1175.18
83,0.136633,1177.117
84,0.1383,1179.65
85,0.139967,1175.702
86,0.141633,1175.702
87,0.1433,1174.36
88,0.144967,1171.827
89,0.146633,1168.4
90,0.1483,1168.4
91,0.149967,1169.22
92,0.151633,1171.529
93,0.153283,1176.596
94,0.15495,1176.596
95,0.156617,1180.172
96,0.158283,1181.066
97,0.15995,1181.066
98,0.161617,1178.607
99,0.163283,1175.627
100,0.16495,1173.392
101,0.166617,1173.392
102,0.168283,1173.615
103,0.16995,1175.329
104,0.171617,1175.478
105,0.173283,1175.478
106,0.17495,1175.776
107,0.176617,1176.67
108,0.178283,1175.404
109,0.17995,1175.404
110,0.181617,1176.447
111,0.183283,1177.192
112,0.18495,1177.192
113,0.186633,1176.149
114,0.188283,1177.341
115,0.18995,1176.372
116,0.191617,1176.372
117,0.193283,1176.968
118,0.19495,1174.807
119,0.196617,1175.776
120,0.198283,1175.776
121,0.19995,1175.925
122,0.201617,1175.478
123,0.203283,1178.682
124,0.205017,1178.682
125,0.206617,1181.439
126,0.208283,1181.29
127,0.20995,1181.141
128,0.211617,1181.141
129,0.213283,1178.011
130,0.214933,1176.447
131,0.2166,1176.447
132,0.218267,1177.564
133,0.219933,1179.203
134,0.2216,1183.003
135,0.223267,1183.003
136,0.224933,1177.415
137,0.2266,1175.776
138,0.228267,1173.913
139,0.229933,1173.913
140,0.2316,1172.87
141,0.233267,1176.596
142,0.234933,1177.639
143,0.2366,1177.639
144,0.23835,1178.458
145,0.239933,1178.16
146,0.2416,1178.16
147,0.243267,1179.501
148,0.244933,1179.65
149,0.2466,1178.235
150,0.248267,1178.235
151,0.249933,1174.584
152,0.2516,1173.466
153,0.253267,1172.2
154,0.254933,1172.2
155,0.2566,1173.094
156,0.258267,1176.894
157,0.259933,1176.819
158,0.2616,1176.819
159,0.263267,1178.905
160,0.26495,1175.702
161,0.2666,1176.894
162,0.268267,1176.894
163,0.269933,1177.266
164,0.2716,1176.968
165,0.27325,1176.968
166,0.2749,1181.141
167,0.276567,1178.086
168,0.278233,1176.223
169,0.2799,1176.223
170,0.281567,1173.466
171,0.283233,1172.572
172,0.2849,1174.063
173,0.286567,1174.063
174,0.28825,1174.659
175,0.2899,1177.564
176,0.291567,1176.745
177,0.293233,1176.745
178,0.2949,1177.639
179,0.296567,1178.756
180,0.298233,1178.756
181,0.299917,1176.074
182,0.301567,1176.447
183,0.303233,1175.627
184,0.3049,1175.627
185,0.306567,1174.286
186,0.308233,1175.776
187,0.3099,1176.745
188,0.311567,1176.745
189,0.313233,1177.713
190,0.3149,1178.086
191,0.316567,1178.011
192,0.318233,1178.011
193,0.3199,1178.756
194,0.321567,1177.862
195,0.323283,1175.851
196,0.3249,1175.851
197,0.326567,1175.776
198,0.328233,1174.137
199,0.3299,1174.137
200,0.331567,1174.584
201,0.333217,1177.117
202,0.334883,1175.18
203,0.33655,1175.18
204,0.33825,1175.031
205,0.339883,1174.435
206,0.34155,1174.882
207,0.343217,1174.882
208,0.344883,1178.309
209,0.34655,1178.682
210,0.348217,1178.086
211,0.349883,1178.086
212,0.35155,1175.031
213,0.353217,1173.839
214,0.354883,1173.839
215,0.356667,1171.902
216,0.358217,1172.647
217,0.359883,1175.18
218,0.36155,1175.18
219,0.363217,1175.627
220,0.364883,1178.086
221,0.36655,1179.129
222,0.368217,1179.129
223,0.369883,1181.662
224,0.37155,1181.513
225,0.373217,1182.482
226,0.374883,1182.482
227,0.37655,1185.387
228,0.378217,1185.238
229,0.379883,1185.238
230,0.38155,1187.474
231,0.383217,1191.869
232,0.384883,1193.583
233,0.38655,1193.583
234,0.388217,1198.575
235,0.389883,1202.971
236,0.39155,1209.676
237,0.393217,1209.676
238,0.394867,1215.115
239,0.396533,1220.033
240,0.3982,1228.005
241,0.399867,1228.005
242,0.401533,1230.91
243,0.4032,1236.796
244,0.404867,1242.682
245,0.406533,1242.682
246,0.4082,1247.6
247,0.4099,1255.944
248,0.411533,1255.944
249,0.4132,1265.556
250,0.414867,1274.124
251,0.416533,1280.531
252,0.4182,1280.531
253,0.419867,1286.939
254,0.421533,1291.856
255,0.4232,1298.86
256,0.424867,1298.86
257,0.426533,1308.844
258,0.4282,1315.847
259,0.429867,1323.223
260,0.431533,1323.223
261,0.4332,1327.097
262,0.434867,1331.121
263,0.436533,1331.121
264,0.4382,1334.921
265,0.439867,1339.614
266,0.441533,1346.543
267,0.4432,1346.543
268,0.444867,1351.982
269,0.446533,1355.633
270,0.4482,1358.837
271,0.449867,1358.837
272,0.451533,1362.115
273,0.453183,1365.021
274,0.45485,1367.405
275,0.456517,1367.405
276,0.45825,1365.393
277,0.45985,1361.594
278,0.461517,1360.178
279,0.463183,1360.178
280,0.46485,1358.166
281,0.466517,1361.072
282,0.468183,1361.072
283,0.46985,1362.339
284,0.471517,1359.582
285,0.473183,1357.496
286,0.47495,1357.496
287,0.476517,1354.814
288,0.478183,1351.461
289,0.47985,1349.002
290,0.481517,1349.002
291,0.483183,1347.661
292,0.484867,1340.807
293,0.486517,1336.56
294,0.488183,1336.56
295,0.48985,1332.536
296,0.491617,1328.513
297,0.493183,1328.513
298,0.49485,1323.67
299,0.496517,1317.188
300,0.498183,1310.334
301,0.49985,1310.334
302,0.501517,1302.51
303,0.503183,1299.977
304,0.50485,1297.668
305,0.506517,1297.668
306,0.5081830000000001,1294.836
307,0.50985,1290.217
308,0.511517,1284.927
309,0.513167,1284.927
310,0.514833,1281.202
311,0.5165,1276.433
312,0.518167,1273.677
313,0.519833,1273.677
314,0.5215,1272.112
315,0.523167,1266.524
316,0.524833,1266.524
317,0.5265,1263.246
318,0.528183,1259.148
319,0.529833,1252.964
320,0.5315,1252.964
321,0.5331669999999999,1248.866
322,0.534833,1245.961
323,0.536517,1243.129
324,0.538167,1243.129
325,0.539833,1239.106
326,0.5415,1237.989
327,0.543167,1232.103
328,0.544833,1232.103
329,0.5465,1227.558
330,0.548167,1225.546
331,0.549833,1225.546
332,0.5515,1221.895
333,0.553167,1221.895
334,0.554833,1222.864
335,0.5565,1222.864
336,0.558167,1221.821
337,0.559833,1221.895
338,0.5615,1216.978
339,0.563167,1216.978
340,0.564833,1211.464
341,0.566483,1206.547
342,0.56815,1201.853
343,0.569817,1201.853
344,0.571483,1203.567
345,0.57315,1205.653
346,0.5748,1205.653
347,0.576533,1207.665
348,0.578133,1210.049
349,0.5798,1206.696
350,0.581467,1206.696
351,0.583133,1202.524
352,0.5848,1201.332
353,0.586467,1200.661
354,0.588133,1200.661
355,0.5898,1200.959
356,0.591467,1201.63
357,0.593183,1201.406
358,0.5948,1201.406
359,0.596467,1199.842
360,0.598133,1198.053
361,0.5998,1198.873
362,0.601467,1198.873
363,0.603133,1198.128
364,0.6048,1194.104
365,0.606467,1194.104
366,0.608133,1192.242
367,0.609917,1192.838
368,0.611467,1193.136
369,0.613133,1193.136
370,0.6148,1191.422
371,0.616467,1193.21
372,0.618133,1192.167
373,0.6198,1192.167
374,0.621467,1192.018
375,0.623133,1197.01
376,0.6248,1199.916
377,0.626467,1199.916
378,0.6281330000000001,1197.979
379,0.629817,1195.371
380,0.631467,1195.371
381,0.633117,1194.775
382,0.634783,1192.167
383,0.63645,1194.179
384,0.638117,1194.179
385,0.639783,1193.136
386,0.64145,1193.359
387,0.643117,1194.03
388,0.644783,1194.03
389,0.64645,1194.626
390,0.6481170000000001,1197.085
391,0.649783,1196.116
392,0.65145,1196.116
393,0.6531169999999999,1197.904
394,0.654783,1197.904
395,0.65645,1196.191
396,0.658117,1196.191
397,0.659783,1199.32
398,0.66145,1199.469
399,0.663117,1199.469
400,0.664783,1198.053
401,0.66645,1200.661
402,0.668117,1199.693
403,0.669783,1199.693
404,0.67145,1201.704
405,0.673117,1206.026
406,0.674783,1209.751
407,0.67645,1209.751
408,0.678117,1211.39
409,0.679783,1210.719
410,0.68145,1210.943
411,0.683117,1210.943
412,0.684783,1212.135
413,0.68645,1215.413
414,0.688117,1215.413
415,0.689783,1219.586
416,0.69145,1224.279
417,0.6931,1229.346
418,0.694867,1229.346
419,0.696433,1230.687
420,0.6981000000000001,1234.487
421,0.699767,1239.106
422,0.701433,1239.106
423,0.703117,1242.384
424,0.704767,1252.517
425,0.706433,1259.595
426,0.7081,1259.595
427,0.709767,1264.513
428,0.71145,1272.187
429,0.7131,1277.849
430,0.714767,1277.849
431,0.716433,1284.555
432,0.7181,1292.825
433,0.719767,1292.825
434,0.721433,1299.307
435,0.7231,1306.757
436,0.7247670000000001,1319.87
437,0.726433,1319.87
438,0.728217,1330.525
439,0.7297670000000001,1343.489
440,0.731433,1357.794
441,0.7331,1357.794
442,0.7347669999999999,1366.064
443,0.736433,1375.973
444,0.7381,1388.937
445,0.739767,1388.937
446,0.741433,1400.262
447,0.7431,1414.791
448,0.744767,1414.791
449,0.746433,1433.566
450,0.7481,1450.852
451,0.749767,1472.905
452,0.751433,1472.905
453,0.7530829999999999,1492.575
454,0.75475,1514.256
455,0.756417,1538.545
456,0.758083,1538.545
457,0.75975,1558.885
458,0.761417,1584.142
459,0.763083,1610.816
460,0.76475,1610.816
461,0.766417,1635.7
462,0.768083,1664.981
463,0.769817,1695.007
464,0.771417,1695.007
465,0.773083,1723.543
466,0.77475,1752.078
467,0.776417,1752.078
468,0.778083,1783.297
469,0.7797500000000001,1818.463
470,0.781417,1853.63
471,0.783083,1853.63
472,0.7847499999999999,1892.149
473,0.786417,1929.924
474,0.788083,1968.071
475,0.78975,1968.071
476,0.791417,2009.794
477,0.793083,2054.423
478,0.79475,2100.17
479,0.796417,2100.17
480,0.798083,2146.512
481,0.79975,2196.878
482,0.801417,2196.878
483,0.803083,2245.158
484,0.80475,2293.661
485,0.8064170000000001,2341.718
486,0.808083,2341.718
487,0.80975,2387.017
488,0.8114170000000001,2437.308
489,0.813133,2493.188
490,0.814733,2493.188
491,0.8164,2555.028
492,0.818067,2618.656
493,0.819733,2681.389
494,0.8214,2681.389
495,0.823067,2745.017
496,0.824733,2807.453
497,0.8264,2807.453
498,0.828067,2871.379
499,0.8297330000000001,2939.254
500,0.8314,3005.192
501,0.833067,3005.192
502,0.8347329999999999,3071.651
503,0.8364,3142.282
504,0.838067,3212.243
505,0.839733,3212.243
506,0.8414,3284.216
507,0.843067,3356.263
508,0.84475,3428.459
509,0.8465,3428.459
510,0.848067,3505.051
511,0.849733,3580.6
512,0.8514,3661.439
513,0.853067,3661.439
514,0.854733,3741.682
515,0.8564000000000001,3820.658
516,0.85805,3820.658
517,0.859717,3902.167
518,0.861383,3979.802
519,0.86305,4060.79
520,0.864717,4060.79
521,0.866383,4140.809
522,0.86805,4221.872
523,0.869717,4302.934
524,0.871383,4302.934
525,0.8730329999999999,4383.251
526,0.8747,4462.525
527,0.876367,4542.768
528,0.87805,4542.768
529,0.8797,4628.002
530,0.881367,4711.598
531,0.883033,4711.598
532,0.8847,4799.515
533,0.886367,4886.836
534,0.888033,4969.984
535,0.8897,4969.984
536,0.891367,5052.388
537,0.893033,5133.524
538,0.8947000000000001,5215.183
539,0.896367,5215.183
540,0.898033,5298.555
541,0.8997000000000001,5381.331
542,0.901367,5468.875
543,0.903033,5468.875
544,0.9046999999999999,5549.64
545,0.906367,5631.67
546,0.908033,5714.968
547,0.909733,5714.968
548,0.911367,5790.368
549,0.913033,5870.685
550,0.9147,5870.685
551,0.916367,5947.947
552,0.918033,6024.465
553,0.9197,6104.335
554,0.921383,6104.335
555,0.923033,6182.566
556,0.9247,6259.307
557,0.9263670000000001,6334.782
558,0.928033,6334.782
559,0.9297,6406.903
560,0.9314170000000001,6479.994
561,0.933017,6550.849
562,0.934683,6550.849
563,0.93635,6621.182
564,0.938017,6693.602
565,0.939683,6693.602
566,0.94135,6763.265
567,0.943017,6834.492
568,0.9446830000000001,6903.038
569,0.94635,6903.038
570,0.948017,6966.889
571,0.9496830000000001,7026.717
572,0.95135,7090.047
573,0.953017,7090.047
574,0.9546829999999999,7150.396
575,0.95635,7211.193
576,0.958017,7274.375
577,0.959683,7274.375
578,0.96135,7330.477
579,0.963017,7387.623
580,0.9648,7444.844
581,0.96635,7444.844
582,0.968017,7499.68
583,0.969683,7555.112
584,0.97135,7555.112
585,0.973017,7609.278
586,0.974683,7659.569
587,0.9763500000000001,7708.743
588,0.978017,7708.743
589,0.979683,7754.117
590,0.9813499999999999,7800.46
591,0.983017,7844.046
592,0.984683,7844.046
593,0.9863499999999999,7885.471
594,0.988017,7927.492
595,0.989683,7966.459
596,0.99135,7966.459
597,0.993,8004.01
598,0.994667,8040.815
599,0.996333,8040.815
600,0.998,8076.951
601,0.999667,8110.33
602,1.001333,8143.261
603,1.003,8143.261
604,1.004667,8177.31
605,1.006333,8206.888999999999
606,1.008,8237.66
607,1.009667,8237.66
608,1.011333,8264.333000000001
609,1.013,8286.236999999999
610,1.014667,8312.24
611,1.016333,8312.24
612,1.018,8333.995999999999
613,1.019667,8355.379000000001
614,1.021333,8355.379000000001
615,1.023,8381.009
616,1.024667,8401.273999999999
617,1.026333,8420.646000000001
618,1.028,8420.646000000001
619,1.029667,8439.942999999999
620,1.031333,8456.111000000001
621,1.033,8468.106
622,1.034667,8468.106
623,1.036333,8481.145
624,1.038,8494.332
625,1.039667,8503.571
626,1.041333,8503.571
627,1.043,8513.555
628,1.044667,8524.433000000001
629,1.046333,8533.672
630,1.048,8533.672
631,1.049717,8541.42
632,1.05135,8548.35
633,1.052983,8548.35
634,1.05465,8551.851000000001
635,1.056317,8553.788
636,1.057983,8557.290000000001
637,1.05965,8557.290000000001
638,1.061317,8560.493
639,1.062983,8560.567999999999
640,1.06465,8558.259
641,1.066317,8558.259
642,1.067983,8554.16
643,1.06965,8549.616
644,1.071317,8547.008
645,1.072983,8547.008
646,1.07465,8544.4
647,1.076317,8540.227999999999
648,1.077983,8540.227999999999
649,1.07965,8534.938
650,1.081317,8525.699000000001
651,1.083083,8517.353999999999
652,1.08465,8517.353999999999
653,1.086317,8507.743
654,1.087983,8497.76
655,1.08965,8489.861999999999
656,1.091317,8489.861999999999
657,1.092983,8480.027
658,1.09465,8469.075000000001
659,1.096317,8458.941999999999
660,1.097983,8458.941999999999
661,1.09965,8444.413
662,1.101317,8430.406000000001
663,1.103,8417.441999999999
664,1.10465,8417.441999999999
665,1.106317,8401.498
666,1.107983,8390.843999999999
667,1.10965,8390.843999999999
668,1.111317,8377.806
669,1.112967,8360.073
670,1.114633,8342.564
671,1.1163,8342.564
672,1.117967,8320.883
673,1.119633,8301.138999999999
674,1.1213,8283.556
675,1.122967,8283.556
676,1.124633,8266.643
677,1.1263,8248.984
678,1.127967,8228.57
679,1.129633,8228.57
680,1.1313,8212.103999999999
681,1.132967,8191.914
682,1.134633,8191.914
683,1.1363,8171.499
684,1.137967,8149.296
685,1.139633,8124.486
686,1.1413,8124.486
687,1.142967,8099.75
688,1.144633,8075.833
689,1.1463,8052.066
690,1.14795,8052.066
691,1.149617,8028.969
692,1.151283,8007.586
693,1.15295,7984.638
694,1.154617,7984.638
695,1.156283,7961.765
696,1.15795,7938.892
697,1.159617,7938.892
698,1.161283,7913.708
699,1.16295,7889.271
700,1.164617,7866.397
701,1.166283,7866.397
702,1.168,7840.32
703,1.169617,7817.075
704,1.171283,7793.605
705,1.172933,7793.605
706,1.1746,7768.72
707,1.176267,7745.475
708,1.177933,7722.452
709,1.1796,7722.452
710,1.181267,7698.685
711,1.182933,7673.875
712,1.184617,7647.648
713,1.186267,7647.648
714,1.187933,7619.113
715,1.1896,7588.863
716,1.191267,7588.863
717,1.192933,7565.916
718,1.1946,7542.148
719,1.196267,7518.53
720,1.197933,7518.53
721,1.1996,7493.57
722,1.201367,7465.109
723,1.202933,7435.754
724,1.2046,7435.754
725,1.206267,7407.144
726,1.207933,7383.078
727,1.2096,7357.225
728,1.211267,7357.225
729,1.212933,7333.01
730,1.2146,7306.04
731,1.216267,7306.04
732,1.217933,7276.908
733,1.2196,7247.329
734,1.221267,7218.42
735,1.222933,7218.42
736,1.2246,7190.779
737,1.226267,7165
738,1.227933,7139.444
739,1.2296,7139.444
740,1.23125,7114.708
741,1.232917,7089.153
742,1.234583,7063.225
743,1.23625,7063.225
744,1.237917,7036.03
745,1.239583,7007.047
746,1.24125,6980.3
747,1.242917,6980.3
748,1.244583,6952.584
749,1.24625,6923.303
750,1.247917,6923.303
751,1.249583,6896.257
752,1.25125,6868.169
753,1.252917,6840.899
754,1.254583,6840.899
755,1.25625,6815.94
756,1.257917,6791.13
757,1.259583,6767.958
758,1.26125,6767.958
759,1.262917,6743.446
760,1.264583,6719.455
761,1.26625,6691.962
762,1.267933,6691.962
763,1.269583,6662.458
764,1.27125,6635.115
765,1.272917,6635.115
766,1.274583,6606.281
767,1.27625,6578.714
768,1.277917,6551.519
769,1.279583,6551.519
770,1.28125,6525.591
771,1.282917,6503.165
772,1.284583,6480.515
773,1.286317,6480.515
774,1.287917,6457.865
775,1.289583,6431.043
776,1.29125,6404.966
777,1.2929,6404.966
778,1.294567,6376.281
779,1.296233,6352.514
780,1.2979,6326.958
781,1.299567,6326.958
782,1.301233,6299.392
783,1.302983,6277.412
784,1.304567,6277.412
785,1.306233,6250.665
786,1.3079,6226.227
787,1.309567,6201.342
788,1.311233,6201.342
789,1.3129,6175.488
790,1.314567,6148.741
791,1.316233,6124.899
792,1.3179,6124.899
793,1.319683,6100.685
794,1.321233,6076.917
795,1.3229,6051.436
796,1.324567,6051.436
797,1.326233,6028.265
798,1.3279,6004.87
799,1.329567,6004.87
800,1.331233,5983.189
801,1.3329,5964.19
802,1.334583,5941.465
803,1.336317,5941.465
804,1.3379,5918.071
805,1.339567,5889.46
806,1.341233,5864.277
807,1.3429,5864.277
808,1.344567,5840.51
809,1.34625,5816.817
810,1.347917,5797.744
811,1.349567,5797.744
812,1.351233,5775.914
813,1.352883,5752.668
814,1.35455,5752.668
815,1.356217,5728.23
816,1.357883,5704.984
817,1.35955,5680.546
818,1.361217,5680.546
819,1.362883,5656.779
820,1.36455,5637.706
821,1.366217,5614.311
822,1.367883,5614.311
823,1.36955,5595.237
824,1.371217,5575.866
825,1.372883,5556.196
826,1.37455,5556.196
827,1.376217,5537.346
828,1.377883,5513.504
829,1.37955,5490.556
830,1.381217,5490.556
831,1.382883,5470.365
832,1.38455,5447.715
833,1.386217,5447.715
834,1.387883,5428.195
835,1.38955,5408.749
836,1.391217,5388.26
837,1.392883,5388.26
838,1.39455,5368.144
839,1.396217,5346.239
840,1.397883,5324.93
841,1.39955,5324.93
842,1.401217,5301.684
843,1.402883,5280.152
844,1.4046,5258.098
845,1.406217,5258.098
846,1.407883,5240.589
847,1.40955,5220.771
848,1.4112,5220.771
849,1.4129,5199.76
850,1.4146,5182.028
851,1.4162,5160.123
852,1.417867,5160.123
853,1.419533,5140.826
854,1.42125,5123.988
855,1.422867,5106.181
856,1.424533,5106.181
857,1.4262,5087.331
858,1.427867,5067.289
859,1.429533,5046.204
860,1.4312,5046.204
861,1.432867,5028.77
862,1.434533,5011.633
863,1.4362,4993.379
864,1.4379,4993.379
865,1.439517,4972.741
866,1.441183,4951.209
867,1.44285,4951.209
868,1.444517,4933.029
869,1.446183,4913.509
870,1.44785,4897.714
871,1.449517,4897.714
872,1.451183,4879.534
873,1.45285,4860.684
874,1.454633,4843.399
875,1.456183,4843.399
876,1.45785,4829.243
877,1.459517,4812.703
878,1.461183,4790.649
879,1.46285,4790.649
880,1.464517,4771.724
881,1.466183,4751.012
882,1.46785,4751.012
883,1.469517,4731.715
884,1.471183,4717.41
885,1.472833,4700.72
886,1.4745,4700.72
887,1.476167,4685.223
888,1.477833,4669.502
889,1.4795,4651.77
890,1.481167,4651.77
891,1.482833,4633.814
892,1.4845,4613.474
893,1.486183,4596.71
894,1.487833,4596.71
895,1.4895,4579.052
896,1.491167,4564.375
897,1.492833,4550.74
898,1.4945,4550.74
899,1.496167,4535.839
900,1.497833,4519.075
901,1.4995,4519.075
902,1.501167,4503.578
903,1.502833,4488.9
904,1.5045,4471.913
905,1.506167,4471.913
906,1.507833,4457.235
907,1.509517,4440.918
908,1.511167,4424.304
909,1.512833,4424.304
910,1.5145,4411.414
