"ID","sea_time","fid_signal"
1,0,142.641
2,0.001667,142.664
3,0.003333,143.006
4,0.005,143.006
5,0.006683,143.573
6,0.008333,143.409
7,0.01,143.215
8,0.011667,143.215
9,0.013333,142.686
10,0.015,142.276
11,0.016683,142.276
12,0.018333,142.269
13,0.02,142.433
14,0.0217,142.649
15,0.023317,142.649
16,0.024983,142.597
17,0.02665,142.656
18,0.028317,142.537
19,0.029983,142.537
20,0.03165,142.604
21,0.033317,142.962
22,0.034983,143.103
23,0.03665,143.103
24,0.038317,143.26
25,0.039983,143.126
26,0.04165,143.126
27,0.043317,142.82
28,0.044983,142.679
29,0.04665,142.679
30,0.048317,142.679
31,0.049983,142.917
32,0.05165,143.17
33,0.053317,143.304
34,0.054983,143.304
35,0.05665,143.424
36,0.058367,143.155
37,0.059983,143.059
38,0.06165,143.059
39,0.063317,142.857
40,0.064983,142.418
41,0.06665,142.418
42,0.068317,142.5
43,0.069983,142.805
44,0.07165000000000001,142.917
45,0.07331699999999999,142.917
46,0.07496700000000001,143.103
47,0.07665,143.029
48,0.07829999999999999,142.44
49,0.079967,142.44
50,0.081633,142.269
51,0.0833,142.336
52,0.084967,142.388
53,0.086633,142.388
54,0.0883,142.664
55,0.08996700000000001,142.723
56,0.091733,142.798
57,0.09329999999999999,142.798
58,0.094967,142.857
59,0.096633,143.111
60,0.0983,143.111
61,0.099967,143.372
62,0.101633,143.342
63,0.1033,143.446
64,0.104967,143.446
65,0.106633,143.319
66,0.1083,143.2
67,0.109967,143.148
68,0.111633,143.148
69,0.113317,143.036
70,0.114967,142.857
71,0.116633,143.051
72,0.1183,143.051
73,0.119967,142.992
74,0.121633,143.223
75,0.1233,143.223
76,0.124967,143.595
77,0.126633,143.409
78,0.1283,143.208
79,0.129967,143.208
80,0.131633,143.029
81,0.1333,142.775
82,0.134967,142.455
83,0.136633,142.455
84,0.138283,142.947
85,0.13995,142.783
86,0.141617,142.969
87,0.143283,142.969
88,0.14495,143.364
89,0.146617,143.23
90,0.148283,143.535
91,0.14995,143.535
92,0.151617,143.066
93,0.153283,142.924
94,0.15495,142.924
95,0.156617,142.902
96,0.1583,142.723
97,0.15995,142.992
98,0.161617,142.992
99,0.163283,142.984
100,0.16495,142.828
101,0.166617,142.917
102,0.168283,142.917
103,0.16995,142.783
104,0.171617,142.865
105,0.173283,143.014
106,0.17495,143.014
107,0.17665,142.924
108,0.178283,143.118
109,0.17995,143.118
110,0.181617,143.014
111,0.183283,143.029
112,0.18495,142.768
113,0.186617,142.768
114,0.188283,142.641
115,0.18995,142.731
116,0.191617,142.47
117,0.193383,142.47
118,0.19495,142.902
119,0.196617,143.237
120,0.198283,143.26
121,0.199933,143.26
122,0.2016,143.409
123,0.203267,143.319
124,0.204933,143.163
125,0.2066,143.163
126,0.208267,143.364
127,0.21005,143.349
128,0.2116,143.349
129,0.213267,143.245
130,0.214933,143.193
131,0.2166,143.006
132,0.218267,143.006
133,0.219933,142.977
134,0.2216,142.708
135,0.223267,142.537
136,0.224933,142.537
137,0.2266,142.418
138,0.228267,142.746
139,0.229933,143.208
140,0.2316,143.208
141,0.233267,143.342
142,0.234967,143.461
143,0.2366,143.461
144,0.238267,143.446
145,0.239933,143.64
146,0.2416,143.662
147,0.243267,143.662
148,0.244933,143.588
149,0.2466,143.275
150,0.248267,143.066
151,0.249933,143.066
152,0.2516,142.939
153,0.253267,143.074
154,0.254933,143.096
155,0.2566,143.096
156,0.258267,142.902
157,0.259917,143.014
158,0.261583,143.014
159,0.26325,142.694
160,0.264917,142.887
161,0.266583,143.245
162,0.26825,143.245
163,0.269917,143.297
164,0.271583,143.506
165,0.27325,143.446
166,0.274917,143.446
167,0.276583,143.088
168,0.278267,142.783
169,0.279917,142.924
170,0.281583,142.924
171,0.28325,143.111
172,0.284917,143.237
173,0.286583,143.558
174,0.28825,143.558
175,0.2899,143.461
176,0.291567,143.252
177,0.293233,143.252
178,0.294967,143.141
179,0.296567,143.021
180,0.298233,142.716
181,0.2999,142.716
182,0.301567,142.731
183,0.303233,142.664
184,0.3049,142.857
185,0.306583,142.857
186,0.308233,143.044
187,0.3099,142.798
188,0.311683,143.178
189,0.313233,143.178
190,0.3149,143.118
191,0.316567,143.416
192,0.318233,143.416
193,0.319883,143.647
194,0.32155,143.252
195,0.323217,143.081
196,0.324883,143.081
197,0.32655,143.006
198,0.328283,142.924
199,0.329883,142.828
200,0.33155,142.828
201,0.333217,142.79
202,0.334883,142.425
203,0.33655,142.455
204,0.338217,142.455
205,0.339883,142.999
206,0.34155,143.245
207,0.343217,143.617
208,0.344983,143.617
209,0.34655,143.848
210,0.348217,143.833
211,0.349883,143.833
212,0.35155,143.729
213,0.353217,143.647
214,0.354883,143.513
215,0.35655,143.513
216,0.358217,143.111
217,0.359883,143.103
218,0.36155,142.977
219,0.363217,142.977
220,0.3649,142.917
221,0.36655,143.088
222,0.368217,143.193
223,0.369883,143.193
224,0.37155,143.327
225,0.373217,143.58
226,0.374883,143.58
227,0.37655,144.02
228,0.378217,144.124
229,0.379917,144.213
230,0.381533,144.213
231,0.3832,144.534
232,0.384867,144.549
233,0.386533,144.958
234,0.3882,144.958
235,0.389867,145.465
236,0.391533,145.905
237,0.3932,146.613
238,0.394867,146.613
239,0.396533,147.209
240,0.3982,147.879
241,0.399867,148.527
242,0.401533,148.527
243,0.4032,149.362
244,0.404867,150.606
245,0.406533,150.606
246,0.4082,151.627
247,0.409883,152.372
248,0.411533,153.661
249,0.4132,153.661
250,0.414867,154.518
251,0.416533,155.769
252,0.4182,157.401
253,0.419867,157.401
254,0.421533,158.519
255,0.4232,159.718
256,0.424867,160.851
257,0.426533,160.851
258,0.4282,161.842
259,0.42995,162.773
260,0.431533,162.773
261,0.4332,163.89
262,0.434867,164.956
263,0.436533,166.021
264,0.438183,166.021
265,0.43985,166.714
266,0.441517,167.102
267,0.443183,167.578
268,0.44485,167.578
269,0.446583,167.839
270,0.448183,168.085
271,0.44985,168.622
272,0.451517,168.622
273,0.453183,168.83
274,0.45485,169.441
275,0.456517,169.441
276,0.458183,169.806
277,0.45985,169.724
278,0.461517,169.963
279,0.463217,169.963
280,0.46485,169.672
281,0.466517,169.359
282,0.468183,168.994
283,0.46985,168.994
284,0.471517,168.197
285,0.473183,167.459
286,0.47485,166.886
287,0.476517,166.886
288,0.478183,166.446
289,0.47985,166.126
290,0.481517,165.835
291,0.483183,165.835
292,0.48485,165.299
293,0.486517,165.008
294,0.488183,165.008
295,0.48985,164.598
296,0.491517,163.734
297,0.493183,163.555
298,0.49485,163.555
299,0.496517,163.041
300,0.498183,162.639
301,0.499833,162.46
302,0.5014999999999999,162.46
303,0.503167,162.11
304,0.504833,162.289
305,0.5065,162.75
306,0.508167,162.75
307,0.509833,163.823
308,0.5115,164.934
309,0.513167,164.934
310,0.514833,165.716
311,0.516517,167.482
312,0.518167,169.396
313,0.519833,169.396
314,0.5215,172.123
315,0.523167,176.251
316,0.524833,180.669
317,0.5265,180.669
318,0.528183,186.317
319,0.529833,193.462
320,0.5315,202.291
321,0.5331669999999999,202.291
322,0.534833,212.729
323,0.5365,225.216
324,0.538167,239.64
325,0.539833,239.64
326,0.5415,256.382
327,0.543167,275.709
328,0.544833,275.709
329,0.5465,298.351
330,0.548167,324.547
331,0.549833,354.707
332,0.5515,354.707
333,0.553167,389.174
334,0.554833,427.976
335,0.5565,471.525
336,0.558167,471.525
337,0.559817,520.028
338,0.561483,574.715
339,0.56315,635.7430000000001
340,0.564867,635.7430000000001
341,0.566483,703.245
342,0.56815,777.975
343,0.569817,777.975
344,0.571483,859.678
345,0.57315,948.8390000000001
346,0.574817,1046.345
347,0.576483,1046.345
348,0.5781500000000001,1151.815
349,0.579817,1266.032
350,0.5815669999999999,1389.243
351,0.583133,1389.243
352,0.584817,1521.029
353,0.586467,1661.859
354,0.588133,1811.743
355,0.5898,1811.743
356,0.591467,1970.708
357,0.593167,2139.024
358,0.5948,2316.229
359,0.596467,2316.229
360,0.598133,2501.897
361,0.5998,2696.112
362,0.601467,2696.112
363,0.603133,2898.358
364,0.6048,3108.576
365,0.606467,3326.245
366,0.608133,3326.245
367,0.6098,3550.306
368,0.611467,3780.76
369,0.613133,4017.025
370,0.6148,4017.025
371,0.616467,4258.618
372,0.618117,4504.576
373,0.619783,4754.186
374,0.6214499999999999,4754.186
375,0.623117,5006.798
376,0.624783,5261.854
377,0.62645,5261.854
378,0.628117,5518.496
379,0.629783,5776.048
380,0.63145,6033.42
381,0.633117,6033.42
382,0.634783,6289.81
383,0.63645,6545.291
384,0.638117,6798.67
385,0.639783,6798.67
386,0.64145,7049.568
387,0.643117,7297.24
388,0.644783,7540.718
389,0.64645,7540.718
390,0.6481170000000001,7779.151
391,0.649783,8011.781
392,0.65145,8011.781
393,0.6531169999999999,8238.397000000001
394,0.654783,8458.421
395,0.65645,8671.463
396,0.658117,8671.463
397,0.6598000000000001,8877.285
398,0.66145,9075.471
399,0.663117,9265.468000000001
400,0.664783,9265.468000000001
401,0.666467,9447.262000000001
402,0.668117,9620.249
403,0.669783,9784.362999999999
404,0.67145,9784.362999999999
405,0.673117,9939.715
406,0.674783,10086.351
407,0.676433,10224.089
408,0.6781,10224.089
409,0.679767,10352.313
410,0.681433,10471.218
411,0.683117,10471.218
412,0.684767,10580.793
413,0.686433,10681.189
414,0.6881,10772.72
415,0.689767,10772.72
416,0.691433,10855.176
417,0.6931,10928.742
418,0.694767,10993.876
419,0.696433,10993.876
420,0.6981000000000001,11050.463
421,0.699833,11099.13
422,0.701433,11139.489
423,0.7030999999999999,11139.489
424,0.704767,11171.862
425,0.70645,11197.016
426,0.7081,11197.016
427,0.709767,11214.845
428,0.711433,11226.073
429,0.7131,11231.064
430,0.714767,11231.064
431,0.716433,11229.813
432,0.7181,11222.653
433,0.719767,11209.727
434,0.721433,11209.727
435,0.7231,11190.779
436,0.7247670000000001,11166.446
437,0.726433,11136.815
438,0.7281,11136.815
439,0.7297670000000001,11102.229
440,0.731433,11063.568
441,0.7331,11020.69
442,0.734783,11020.69
443,0.736433,10973.968
444,0.738083,10923.684
445,0.73975,10923.684
446,0.741417,10869.637
447,0.743083,10812.536
448,0.74475,10752.372
449,0.746417,10752.372
450,0.7480830000000001,10689.489
451,0.74975,10624.051
452,0.751417,10556.243
453,0.7530829999999999,10556.243
454,0.75475,10485.91
455,0.756417,10413.416
456,0.758083,10339.015
457,0.75975,10339.015
458,0.761417,10262.37
459,0.763083,10184.526
460,0.76475,10184.526
461,0.766417,10105.535
462,0.768083,10025.345
463,0.76975,9944.147999999999
464,0.771417,9944.147999999999
465,0.773083,9861.901
466,0.77475,9778.529
467,0.776417,9694.375
468,0.778083,9694.375
469,0.7797500000000001,9609.893
470,0.781417,9524.799999999999
471,0.7831,9439.163
472,0.784817,9439.163
473,0.786417,9353.227999999999
474,0.788083,9266.794
475,0.78975,9180.218000000001
476,0.791417,9180.218000000001
477,0.793083,9093.322
478,0.79475,9006.545
479,0.796417,9006.545
480,0.798067,8919.343999999999
481,0.799733,8832.172
482,0.80145,8745.536
483,0.803067,8745.536
484,0.804733,8659.058000000001
485,0.8064,8573.040000000001
486,0.808067,8487.18
487,0.809733,8487.18
488,0.8114,8401.252
489,0.813083,8315.504000000001
490,0.814733,8230.231
491,0.8164,8230.231
492,0.818183,8145.399
493,0.819733,8061.059
494,0.8214,8061.059
495,0.823067,7977.27
496,0.824733,7894.24
497,0.8264,7811.725
498,0.828067,7811.725
499,0.8297330000000001,7729.679
500,0.8314,7648.014
501,0.833067,7566.601
502,0.8347329999999999,7566.601
503,0.8364,7485.971
504,0.838067,7406.287
505,0.839733,7327.326
506,0.8414,7327.326
507,0.843067,7248.96
508,0.844733,7170.759
509,0.8464,7093.199
510,0.848067,7093.199
511,0.849733,7016.375
512,0.8514,6940.335
513,0.853067,6940.335
514,0.854733,6865.173
515,0.8564000000000001,6790.765
516,0.85805,6717.011
517,0.859717,6717.011
518,0.861383,6643.832
519,0.86305,6571.539
520,0.864717,6499.588
521,0.866383,6499.588
522,0.86805,6428.189
523,0.869717,6357.647
524,0.871383,6287.813
525,0.8730329999999999,6287.813
526,0.874717,6218.933
527,0.876367,6150.417
528,0.878033,6150.417
529,0.8797,6082.587
530,0.881367,6015.584
531,0.883033,5949.132
532,0.8847,5949.132
533,0.886367,5883.694
534,0.888033,5818.74
535,0.8897,5754.299
536,0.891367,5754.299
537,0.893033,5690.835
538,0.8947000000000001,5628.035
539,0.896367,5566.165
540,0.898033,5566.165
541,0.8997000000000001,5505.01
542,0.901367,5444.385
543,0.9031,5384.393
544,0.9046999999999999,5384.393
545,0.906367,5325.094
546,0.908033,5266.205
547,0.9097,5266.205
548,0.911367,5208.157
549,0.913033,5150.721
550,0.9147,5093.82
551,0.916367,5093.82
552,0.918017,5037.837
553,0.919683,4982.337
554,0.92135,4927.739
555,0.923017,4927.739
556,0.924683,4873.5
557,0.92635,4819.855
558,0.928017,4766.71
559,0.929683,4766.71
560,0.93135,4713.804
561,0.933017,4661.955
562,0.934683,4661.955
563,0.936383,4610.516
564,0.938017,4559.934
565,0.939683,4510.187
566,0.94135,4510.187
567,0.943017,4460.759
568,0.9446830000000001,4411.951
569,0.94635,4363.447
570,0.948033,4363.447
571,0.9496830000000001,4315.466
572,0.95135,4268.266
573,0.953017,4221.708
574,0.9546829999999999,4221.708
575,0.95635,4175.551
576,0.958017,4129.775
577,0.959683,4129.775
578,0.96135,4084.081
579,0.963017,4038.841
580,0.964683,3994.696
581,0.96635,3994.696
582,0.968017,3951.296
583,0.969683,3908.59
584,0.97135,3866.546
585,0.973017,3866.546
586,0.974683,3824.48
587,0.9763500000000001,3782.682
588,0.978,3741.54
589,0.979667,3741.54
590,0.981333,3700.472
591,0.983,3659.896
592,0.984667,3619.813
593,0.986333,3619.813
594,0.988017,3580.242
595,0.989667,3541.283
596,0.991333,3541.283
597,0.993,3503.121
598,0.994667,3465.697
599,0.996333,3428.318
600,0.998,3428.318
601,0.999667,3391.743
602,1.001333,3355.153
603,1.003,3318.764
604,1.004667,3318.764
605,1.006333,3283.18
606,1.008,3247.865
607,1.009667,3212.705
608,1.011333,3212.705
609,1.013,3178.083
610,1.014667,3143.556
611,1.016333,3143.556
612,1.018017,3109.254
613,1.019667,3076.069
614,1.021383,3043.331
615,1.023,3043.331
616,1.024667,3010.899
617,1.026333,2979.07
618,1.028,2947.241
619,1.029667,2947.241
620,1.031333,2915.636
621,1.033,2884.41
622,1.034667,2853.438
623,1.036333,2853.438
624,1.037983,2822.719
625,1.03965,2792.418
626,1.041317,2792.418
627,1.042983,2762.683
628,1.04465,2733.111
629,1.046317,2704.151
630,1.047983,2704.151
631,1.04965,2675.332
632,1.051317,2646.96
633,1.052983,2619.103
634,1.054767,2619.103
635,1.056317,2591.23
636,1.057983,2563.909
637,1.05965,2536.744
638,1.061317,2536.744
639,1.062983,2510.078
640,1.06465,2483.882
641,1.066317,2457.634
642,1.067983,2457.634
643,1.06965,2431.78
644,1.071317,2405.919
645,1.072983,2405.919
646,1.07465,2380.416
647,1.076317,2355.628
648,1.077983,2330.832
649,1.07965,2330.832
650,1.081317,2306.409
651,1.082983,2282.582
652,1.08465,2258.479
653,1.086317,2258.479
654,1.087983,2235.092
655,1.08965,2211.928
656,1.091317,2188.75
657,1.093,2188.75
658,1.09465,2165.988
659,1.096317,2143.465
660,1.097983,2143.465
661,1.099633,2121.001
662,1.1013,2098.642
663,1.102967,2076.767
664,1.104633,2076.767
665,1.1063,2054.959
666,1.107967,2033.606
667,1.109633,2012.819
668,1.1113,2012.819
669,1.112967,1991.995
670,1.114633,1971.23
671,1.1163,1950.875
672,1.117967,1950.875
673,1.119633,1930.438
674,1.1213,1910.485
675,1.122967,1891.039
676,1.124633,1891.039
677,1.1263,1871.37
678,1.127967,1852.028
679,1.129633,1852.028
680,1.1313,1833.044
681,1.132967,1814.194
682,1.134633,1795.746
683,1.1363,1795.746
684,1.137967,1777.366
685,1.1397,1758.896
686,1.1413,1740.947
687,1.142967,1740.947
688,1.144633,1723.327
689,1.1463,1706.243
690,1.147967,1689.278
691,1.149633,1689.278
692,1.1513,1671.821
693,1.152967,1654.714
694,1.154633,1654.714
695,1.15635,1637.816
696,1.157967,1621.068
697,1.159617,1605.034
698,1.161317,1605.034
699,1.16295,1588.807
700,1.1646,1572.587
701,1.166267,1556.948
702,1.167933,1556.948
703,1.1696,1540.937
704,1.171267,1525.328
705,1.173017,1510.106
706,1.1746,1510.106
707,1.176267,1494.907
708,1.177933,1480.013
709,1.1796,1465.097
710,1.181267,1465.097
711,1.182933,1450.263
712,1.1846,1435.444
713,1.186267,1435.444
714,1.187933,1421.176
715,1.1896,1407.087
716,1.191267,1392.856
717,1.192933,1392.856
718,1.1946,1379.17
719,1.196267,1365.319
720,1.197933,1351.655
721,1.1996,1351.655
722,1.201267,1338.244
723,1.202933,1324.892
724,1.2046,1311.809
725,1.206267,1311.809
726,1.207933,1298.942
727,1.2096,1286.387
728,1.211267,1286.387
729,1.212933,1273.841
730,1.2146,1261.421
731,1.216267,1248.881
732,1.217933,1248.881
733,1.219583,1236.327
734,1.22125,1223.914
735,1.222917,1211.777
736,1.224583,1211.777
737,1.22625,1200.251
738,1.227917,1188.658
739,1.229583,1177.102
740,1.23125,1177.102
741,1.232917,1165.472
742,1.234583,1153.76
743,1.23625,1153.76
744,1.237917,1142.383
745,1.239583,1131.341
746,1.24125,1120.448
747,1.242917,1120.448
748,1.244583,1109.682
749,1.24625,1099.102
750,1.247917,1088.306
751,1.249583,1088.306
752,1.25125,1077.659
753,1.252917,1067.415
754,1.254583,1056.999
755,1.25625,1056.999
756,1.257917,1047.097
757,1.259583,1036.957
758,1.26125,1026.75
759,1.262917,1026.75
760,1.264583,1016.848
761,1.26625,1007.259
762,1.267917,1007.259
763,1.269583,997.8339999999999
764,1.27125,988.327
765,1.272917,979.133
766,1.27465,979.133
767,1.27625,969.596
768,1.2779,960.581
769,1.279567,951.521
770,1.281233,951.521
771,1.2829,942.335
772,1.284567,933.513
773,1.286233,924.557
774,1.2879,924.557
775,1.289567,915.773
776,1.2913,907.347
777,1.2929,907.347
778,1.294567,898.764
779,1.296233,890.3819999999999
780,1.2979,882.067
781,1.299567,882.067
782,1.301233,873.633
783,1.3029,865.4
784,1.304567,857.472
785,1.306233,857.472
786,1.308017,849.761
787,1.309567,842.199
788,1.311233,834.323
789,1.3129,834.323
790,1.314567,826.284
791,1.316233,818.379
792,1.3179,810.713
793,1.319567,810.713
794,1.321233,803.523
795,1.3229,796.4
796,1.324567,796.4
797,1.326233,789.27
798,1.3279,782.222
799,1.329567,775.278
800,1.331233,775.278
801,1.332917,768.1849999999999
802,1.334567,761.3819999999999
803,1.336233,754.602
804,1.337883,754.602
805,1.33955,747.8819999999999
806,1.341217,741.154
807,1.342883,734.434
808,1.34455,734.434
809,1.346217,727.78
810,1.347883,721.268
811,1.34955,721.268
812,1.351217,715.151
813,1.352883,709.057
814,1.35455,702.918
815,1.356217,702.918
816,1.357883,696.391
817,1.35955,690.199
818,1.361217,684.03
819,1.362883,684.03
820,1.36455,677.913
821,1.366217,671.998
822,1.3679,666.268
823,1.36955,666.268
824,1.371217,660.36
825,1.372883,654.653
826,1.37455,649.266
827,1.376217,649.266
828,1.377883,643.544
829,1.37955,638.2089999999999
830,1.381217,638.2089999999999
831,1.382883,632.845
832,1.38455,627.242
833,1.386217,621.758
834,1.387883,621.758
835,1.38955,616.58
836,1.391217,611.149
837,1.392933,606
838,1.39455,606
839,1.396217,601.165
840,1.397867,596.173
841,1.399533,591.0839999999999
842,1.4012,591.0839999999999
843,1.402867,586.212
844,1.404533,581.071
845,1.4062,581.071
846,1.407867,575.706
847,1.409567,570.931
848,1.4112,565.901
849,1.412867,565.901
850,1.414533,561.252
851,1.4162,556.961
852,1.417867,552.557
853,1.419533,552.557
854,1.4212,548.333
855,1.422867,543.967
856,1.424533,539.698
857,1.426317,539.698
858,1.427867,535.384
859,1.429533,531.0549999999999
860,1.4312,526.86
861,1.432867,526.86
862,1.434533,522.621
863,1.4362,518.829
864,1.437867,518.829
865,1.439533,514.924
866,1.4412,510.521
867,1.442867,506.192
868,1.44455,506.192
869,1.4462,501.677
870,1.447867,497.773
871,1.449533,494.041
872,1.4512,494.041
873,1.452867,490.181
874,1.454517,486.657
875,1.456183,482.477
876,1.457833,482.477
877,1.4595,478.61
878,1.461167,475.354
879,1.462833,475.354
880,1.4645,471.786
881,1.466167,468.731
882,1.467833,465.512
883,1.4695,465.512
884,1.471167,461.683
885,1.472833,457.793
886,1.4745,453.919
887,1.476167,453.919
888,1.477833,450.38
889,1.4795,447.094
890,1.481167,443.876
891,1.482833,443.876
892,1.4845,440.732
893,1.486167,437.528
894,1.487833,437.528
895,1.4895,434.443
896,1.491167,431.292
897,1.492833,428.2
898,1.4945,428.2
899,1.496167,425.16
900,1.497833,421.941
901,1.4995,419.289
902,1.501183,419.289
903,1.502833,416.324
904,1.5045,413.589
905,1.506167,410.84
906,1.507833,410.84
907,1.5095,407.74
908,1.511217,404.753
909,1.512833,401.728
910,1.5145,401.728
911,1.516183,398.889
912,1.517817,396.103
913,1.519483,396.103
914,1.52115,393.353
915,1.522817,390.433
916,1.524483,387.602
917,1.52615,387.602
918,1.527867,384.949
919,1.529483,382.602
920,1.53115,380.248
921,1.532817,380.248
922,1.534483,378.057
923,1.53615,375.785
924,1.537817,373.222
925,1.539483,373.222
926,1.54115,370.949
927,1.542817,368.685
928,1.544583,366.084
929,1.54615,366.084
930,1.547817,364.013
931,1.549483,361.703
932,1.55115,361.703
