"ID","sea_time","fid_signal"
1,0,1262.724
2,0.001667,1262.724
3,0.003333,1260.191
4,0.005,1258.254
5,0.006667,1258.254
6,0.008333,1258.478
7,0.009983000000000001,1254.678
8,0.01165,1247.674
9,0.013317,1247.674
10,0.014983,1241.863
11,0.01665,1236.945
12,0.018317,1235.679
13,0.019983,1235.679
14,0.02165,1237.839
15,0.023317,1241.118
16,0.024983,1245.29
17,0.0267,1245.29
18,0.028317,1248.643
19,0.029983,1250.207
20,0.03165,1250.207
21,0.033317,1250.207
22,0.034983,1247.972
23,0.03665,1246.184
24,0.038317,1246.184
25,0.039983,1243.651
26,0.04165,1241.937
27,0.0434,1242.831
28,0.044983,1242.831
29,0.04665,1241.788
30,0.048317,1242.086
31,0.049983,1241.937
32,0.05165,1241.937
33,0.053317,1239.553
34,0.054983,1242.608
35,0.05665,1242.831
36,0.058317,1242.831
37,0.0601,1242.459
38,0.06165,1247.898
39,0.063317,1247.898
40,0.064983,1245.439
41,0.06665,1245.365
42,0.068317,1246.929
43,0.069983,1246.929
44,0.071633,1242.31
45,0.0733,1242.459
46,0.07496700000000001,1242.384
47,0.07663300000000001,1242.384
48,0.07829999999999999,1239.926
49,0.079967,1239.404
50,0.081633,1240.447
51,0.0833,1240.447
52,0.084967,1243.353
53,0.086633,1244.098
54,0.0883,1244.098
55,0.08996700000000001,1248.047
56,0.09163300000000001,1248.047
57,0.09329999999999999,1245.29
58,0.094967,1245.29
59,0.096633,1244.47
60,0.0983,1242.98
61,0.099967,1242.012
62,0.101633,1242.012
63,0.1033,1243.427
64,0.104967,1243.8
65,0.106633,1241.043
66,0.1083,1241.043
67,0.109967,1240.373
68,0.111633,1237.392
69,0.1133,1236.871
70,0.114967,1236.871
71,0.116633,1237.392
72,0.118283,1234.636
73,0.11995,1234.636
74,0.121617,1236.051
75,0.123283,1236.573
76,0.12495,1235.679
77,0.126617,1235.679
78,0.128283,1239.106
79,0.12995,1238.957
80,0.1316,1236.126
81,0.133267,1236.126
82,0.134933,1235.604
83,0.1366,1231.953
84,0.138267,1233.518
85,0.139933,1233.518
86,0.1416,1237.989
87,0.143267,1241.863
88,0.144983,1241.863
89,0.1466,1245.216
90,0.148267,1243.949
91,0.149933,1242.31
92,0.1516,1242.31
93,0.153267,1239.106
94,0.154933,1238.212
95,0.1566,1234.338
96,0.158267,1234.338
97,0.159933,1233.295
98,0.161717,1235.604
99,0.163267,1238.957
100,0.164933,1238.957
101,0.166633,1242.31
102,0.168267,1243.055
103,0.169933,1243.055
104,0.1716,1241.043
105,0.173267,1238.212
106,0.174933,1237.989
107,0.1766,1237.989
108,0.178367,1239.181
109,0.179933,1236.2
110,0.1816,1235.753
111,0.183267,1235.753
112,0.184933,1235.455
113,0.1866,1233.518
114,0.188267,1236.424
115,0.189933,1236.424
116,0.191583,1235.306
117,0.19325,1235.753
118,0.195033,1236.051
119,0.196583,1236.051
120,0.19825,1236.722
121,0.199917,1238.361
122,0.201583,1238.361
123,0.20325,1235.679
124,0.204917,1235.232
125,0.206617,1232.773
126,0.20825,1232.773
127,0.209917,1233.146
128,0.211583,1237.169
129,0.21325,1237.392
130,0.214917,1237.392
131,0.216583,1239.255
132,0.21825,1237.318
133,0.219917,1233.295
134,0.221583,1233.295
135,0.22325,1233.891
136,0.224917,1233.965
137,0.226583,1233.965
138,0.22825,1233.071
139,0.229917,1235.604
140,0.231583,1232.251
141,0.23325,1232.251
142,0.234917,1231.283
143,0.236583,1232.401
144,0.23825,1232.326
145,0.239917,1232.326
146,0.241583,1235.306
147,0.24325,1236.424
148,0.244917,1236.424
149,0.246583,1236.424
150,0.248267,1236.796
151,0.2499,1236.871
152,0.251567,1237.765
153,0.253233,1237.765
154,0.2549,1237.616
155,0.256567,1234.934
156,0.258233,1234.934
157,0.2599,1234.785
158,0.261567,1230.389
159,0.26325,1231.283
160,0.2649,1231.283
161,0.266567,1233.146
162,0.26825,1230.687
163,0.2699,1233.295
164,0.271567,1233.295
165,0.273233,1229.793
166,0.2749,1227.707
167,0.276567,1226.962
168,0.278233,1226.962
169,0.279967,1226.962
170,0.281567,1230.314
171,0.283233,1230.314
172,0.2849,1232.699
173,0.286567,1233.965
174,0.288233,1230.612
175,0.2899,1230.612
176,0.291567,1226.664
177,0.293233,1223.013
178,0.2949,1223.162
179,0.296633,1223.162
180,0.29825,1223.907
181,0.2999,1223.907
182,0.301567,1225.993
183,0.303233,1225.993
184,0.3049,1227.111
185,0.306567,1229.718
186,0.308233,1229.718
187,0.3099,1231.432
188,0.31155,1230.165
189,0.313333,1230.016
190,0.314883,1230.016
191,0.31655,1227.483
192,0.318217,1227.185
193,0.319883,1227.334
194,0.32155,1227.334
195,0.323217,1225.62
196,0.324883,1225.62
197,0.32655,1225.844
198,0.328217,1225.844
199,0.329883,1227.185
200,0.33155,1231.357
201,0.333217,1231.208
202,0.334883,1231.208
203,0.33655,1232.848
204,0.338217,1230.165
205,0.3399,1230.165
206,0.34155,1225.173
207,0.343217,1226.887
208,0.3449,1224.205
209,0.34655,1224.205
210,0.348217,1224.801
211,0.349883,1224.726
212,0.35155,1222.566
213,0.353217,1222.566
214,0.354883,1222.119
215,0.35655,1221.225
216,0.358217,1220.852
217,0.359883,1220.852
218,0.36155,1220.554
219,0.363217,1219.734
220,0.364883,1219.734
221,0.36655,1220.256
222,0.368217,1220.48
223,0.369883,1222.491
224,0.371533,1222.491
225,0.3732,1223.683
226,0.374867,1224.279
227,0.376533,1223.236
228,0.3782,1223.236
229,0.379867,1222.789
230,0.381533,1221.672
231,0.3832,1220.405
232,0.384867,1220.405
233,0.386533,1220.182
234,0.3882,1219.362
235,0.389867,1220.927
236,0.391533,1220.927
237,0.3932,1224.205
238,0.394867,1227.558
239,0.396533,1227.558
240,0.398267,1232.103
241,0.399867,1232.251
242,0.401533,1233.295
243,0.4032,1233.295
244,0.404867,1236.498
245,0.406533,1243.427
246,0.4082,1265.63
247,0.40985,1265.63
248,0.411517,1301.765
249,0.413183,1366.064
250,0.41495,1470.521
251,0.416517,1470.521
252,0.418183,1637.638
253,0.41985,1894.236
254,0.421517,1894.236
255,0.423183,2271.906
256,0.42485,2803.281
257,0.426517,3524.795
258,0.428183,3524.795
259,0.42985,4473.775
260,0.431533,5676.97
261,0.433167,7169.321
262,0.434833,7169.321
263,0.4365,8970.127
264,0.438167,11095.33
265,0.439833,13560.578
266,0.4415,13560.578
267,0.443167,16360.432
268,0.444833,19491.688
269,0.4465,22938.996
270,0.448167,22938.996
271,0.449833,26673.451
272,0.4515,30662.045
273,0.453167,30662.045
274,0.454833,34847.109
275,0.4565,39164.871
276,0.458167,43531.133
277,0.459833,43531.133
278,0.4615,47849.566
279,0.463167,52030.234
280,0.464833,55968.238
281,0.4665,55968.238
282,0.468167,59585.945
283,0.469833,62812.492
284,0.4715,65583.664
285,0.473183,65583.664
286,0.474833,67869.05499999999
287,0.4765,69634.242
288,0.478167,69634.242
289,0.479833,70871.484
290,0.4815,71586.219
291,0.483183,71793.867
292,0.484833,71793.867
293,0.4865,71526.68799999999
294,0.488167,70828.867
295,0.489833,69745.17999999999
296,0.491483,69745.17999999999
297,0.49315,68324.95299999999
298,0.494817,66626.594
299,0.496483,64694.734
300,0.49815,64694.734
301,0.499817,62584.059
302,0.501483,60340.016
303,0.50315,60340.016
304,0.504817,58005.527
305,0.506483,55620.223
306,0.50815,53215.848
307,0.509817,53215.848
308,0.511483,50824.063
309,0.51315,48465.355
310,0.514817,46159.328
311,0.516483,46159.328
312,0.51815,43921.695
313,0.519817,41763.484
314,0.521483,39694.758
315,0.52315,39694.758
316,0.524817,37721.695
317,0.526483,35845.488
318,0.52815,34067.629
319,0.529817,34067.629
320,0.531483,32387.674
321,0.53315,30801.297
322,0.534817,30801.297
323,0.536483,29303.654
324,0.53815,27897.283
325,0.539817,26572.57
326,0.541483,26572.57
327,0.54315,25328.547
328,0.544817,24164.469
329,0.5464830000000001,23067.891
330,0.54815,23067.891
331,0.549917,22038.742
332,0.551467,21071.285
333,0.553133,20160.303
334,0.5548,20160.303
335,0.556467,19302.891
336,0.558133,18495.693
337,0.559817,18495.693
338,0.561517,17737.076
339,0.563133,17022.193
340,0.5648,16351.938
341,0.5664670000000001,16351.938
342,0.568133,15718.49
343,0.5698,15119.538
344,0.5714669999999999,14555.604
345,0.573133,14555.604
346,0.5748,14021.173
347,0.576467,13515.13
348,0.578133,13035.76
349,0.5798,13035.76
350,0.581467,12581.497
351,0.583133,12152.717
352,0.5848,11745.17
353,0.586467,11745.17
354,0.588133,11360.124
355,0.5898,10991.842
356,0.591467,10991.842
357,0.593133,10636.896
358,0.5948,10300.577
359,0.596467,9974.986000000001
360,0.598133,9974.986000000001
361,0.5998,9670.332
362,0.601467,9382.367
363,0.603133,9106.323
364,0.6048,9106.323
365,0.606467,8845.478999999999
366,0.608133,8594.245000000001
367,0.6098,8352.175999999999
368,0.61145,8352.175999999999
369,0.613117,8119.047
370,0.614783,7894.859
371,0.6164500000000001,7894.859
372,0.618117,7677.6
373,0.619783,7470.399
374,0.6214499999999999,7275.343
375,0.623117,7275.343
376,0.624783,7087.961
377,0.62645,6910.116
378,0.628117,6735.921
379,0.629833,6735.921
380,0.63145,6569.773
381,0.633117,6409.139
382,0.634833,6251.261
383,0.63645,6251.261
384,0.638117,6103.218
385,0.639783,5956.813
386,0.64145,5816.296
387,0.643117,5816.296
388,0.644783,5684.346
389,0.64645,5558.431
390,0.6481170000000001,5558.431
391,0.649783,5436.167
392,0.65145,5315.617
393,0.6531169999999999,5199.686
394,0.654783,5199.686
395,0.65645,5083.904
396,0.658117,4975.349
397,0.659783,4874.319
398,0.66145,4874.319
399,0.663117,4774.034
400,0.664783,4678.965
401,0.66645,4584.864
402,0.6682169999999999,4584.864
403,0.669783,4493.296
404,0.67145,4407.764
405,0.6731,4407.764
406,0.674767,4324.987
407,0.676433,4247.65
408,0.6781,4172.325
409,0.679767,4172.325
410,0.681433,4093.349
411,0.6831,4019.29
412,0.684767,3944.263
413,0.686433,3944.263
414,0.6881,3874.525
415,0.689767,3808.29
416,0.691433,3739.521
417,0.6931,3739.521
418,0.694767,3675.744
419,0.696433,3611.52
420,0.6981000000000001,3553.033
421,0.699767,3553.033
422,0.70145,3499.687
423,0.7030999999999999,3443.137
424,0.70475,3443.137
425,0.706417,3388.077
426,0.708083,3334.507
427,0.70975,3283.247
428,0.711417,3283.247
429,0.713083,3237.65
430,0.71475,3192.797
431,0.716417,3145.561
432,0.718083,3145.561
433,0.71975,3100.783
434,0.721417,3052.428
435,0.723083,3009.215
436,0.72475,3009.215
437,0.726417,2969.354
438,0.728083,2925.843
439,0.72975,2925.843
440,0.7314000000000001,2889.112
441,0.733067,2851.039
442,0.734733,2816.021
443,0.7364000000000001,2816.021
444,0.738067,2781.972
445,0.739733,2749.264
446,0.7413999999999999,2716.184
447,0.743067,2716.184
448,0.744733,2682.656
449,0.7464,2652.779
450,0.748067,2621.114
451,0.749733,2621.114
452,0.7514,2591.982
453,0.753067,2560.69
454,0.754733,2560.69
455,0.7564,2529.547
456,0.758067,2500.266
457,0.759733,2472.177
458,0.7614,2472.177
459,0.7630670000000001,2447.888
460,0.764733,2423.376
461,0.7664,2400.95
462,0.7680670000000001,2400.95
463,0.76975,2377.331
464,0.7714,2353.415
465,0.7730669999999999,2331.51
466,0.774783,2331.51
467,0.7764,2307.221
468,0.778067,2286.136
469,0.779733,2266.243
470,0.7814,2266.243
471,0.783067,2246.648
472,0.784733,2229.81
473,0.7865,2212.599
474,0.788067,2212.599
475,0.789733,2194.569
476,0.7913829999999999,2175.271
477,0.79305,2175.271
478,0.794717,2154.782
479,0.796383,2134.74
480,0.79805,2115.667
481,0.799717,2115.667
482,0.801383,2099.574
483,0.80305,2085.343
484,0.804717,2070.963
485,0.806383,2070.963
486,0.80805,2055.541
487,0.809717,2041.012
488,0.811383,2041.012
489,0.8130500000000001,2025.813
490,0.814717,2008.602
491,0.816383,1993.626
492,0.8180500000000001,1993.626
493,0.819717,1980.439
494,0.821383,1965.314
495,0.8230499999999999,1951.531
496,0.824717,1951.531
497,0.826383,1939.237
498,0.82805,1922.324
499,0.829717,1911.595
500,0.831383,1911.595
501,0.83305,1901.388
502,0.834717,1889.318
503,0.836383,1882.464
504,0.83805,1882.464
505,0.839717,1874.715
506,0.841383,1864.955
507,0.84305,1864.955
508,0.8447170000000001,1855.791
509,0.8464,1844.615
510,0.84805,1832.396
511,0.8497169999999999,1832.396
512,0.851367,1818.985
513,0.853033,1808.33
514,0.8547,1795.143
515,0.856367,1795.143
516,0.858033,1783.222
517,0.8597,1776.74
518,0.861367,1768.768
519,0.8630330000000001,1768.768
520,0.8647,1761.392
521,0.866367,1752.973
522,0.8680330000000001,1752.973
523,0.8697,1745.15
524,0.871417,1737.252
525,0.8730329999999999,1731.515
526,0.8747,1731.515
527,0.876383,1725.927
528,0.878033,1718.104
529,0.8797,1709.983
530,0.881367,1709.983
531,0.883033,1699.924
532,0.8847,1692.325
533,0.886367,1684.204
534,0.888033,1684.204
535,0.8897,1679.063
536,0.891367,1672.208
537,0.893033,1666.173
538,0.8947000000000001,1666.173
539,0.896367,1661.554
540,0.898033,1652.39
541,0.8997000000000001,1652.39
542,0.901367,1646.28
543,0.903033,1636.744
544,0.9048,1630.56
545,0.906367,1630.56
546,0.908033,1625.642
547,0.9097,1623.63
548,0.91135,1621.842
549,0.913017,1621.842
550,0.914683,1615.733
551,0.91635,1612.678
552,0.918017,1608.059
553,0.919683,1608.059
554,0.92135,1602.396
555,0.923017,1599.267
556,0.9247,1599.267
557,0.9263670000000001,1595.095
558,0.928017,1590.177
559,0.929683,1586.527
560,0.93135,1586.527
561,0.933017,1579.97
562,0.934683,1574.233
563,0.93635,1567.304
564,0.938017,1567.304
565,0.939683,1559.928
566,0.94135,1555.756
567,0.943017,1549.572
568,0.9446830000000001,1549.572
569,0.94635,1545.25
570,0.948017,1543.462
571,0.9496830000000001,1543.462
572,0.95135,1539.662
573,0.953017,1537.576
574,0.9546829999999999,1533.628
575,0.95635,1533.628
576,0.958017,1528.114
577,0.959683,1525.73
578,0.96135,1521.26
579,0.963017,1521.26
580,0.964683,1518.428
581,0.96635,1514.107
582,0.968017,1510.903
583,0.969683,1510.903
584,0.971333,1504.645
585,0.973,1497.12
586,0.974667,1491.159
587,0.976333,1491.159
588,0.978,1484.901
589,0.979667,1482.74
590,0.981333,1482.74
591,0.983,1481.175
592,0.984667,1479.015
593,0.986333,1475.513
594,0.988,1475.513
595,0.989733,1473.65
596,0.99135,1476.109
597,0.9929829999999999,1474.097
598,0.99465,1474.097
599,0.996317,1472.905
600,0.997983,1468.509
601,0.99965,1460.165
602,1.001317,1460.165
603,1.002983,1457.93
604,1.00465,1455.992
605,1.0064,1456.216
606,1.007983,1456.216
607,1.00965,1455.173
608,1.011317,1451.671
609,1.012983,1451.671
610,1.01465,1445.487
611,1.016317,1442.73
612,1.017983,1439.08
613,1.01965,1439.08
614,1.021317,1437.664
615,1.0231,1439.676
