"ID","sea_time","fid_signal"
1,0,38.875
2,0.001667,38.876
3,0.003333,38.886
4,0.005,38.905
5,0.006667,38.905
6,0.008333,38.896
7,0.01,38.778
8,0.011667,38.559
9,0.01335,38.559
10,0.015,38.418
11,0.016667,38.356
12,0.018333,38.356
13,0.02,38.452
14,0.021667,38.633
15,0.023333,38.749
16,0.025,38.749
17,0.026667,38.791
18,0.028333,38.78
19,0.03,38.792
20,0.031733,38.792
21,0.033317,38.785
22,0.034983,38.812
23,0.03665,38.834
24,0.038317,38.834
25,0.039983,38.823
26,0.04165,38.829
27,0.043317,38.829
28,0.044983,38.805
29,0.04665,38.8
30,0.048317,38.812
31,0.049983,38.812
32,0.05165,38.826
33,0.053317,38.832
34,0.054983,38.831
35,0.05665,38.831
36,0.058317,38.826
37,0.059983,38.804
38,0.06165,38.832
39,0.063317,38.832
40,0.065067,38.853
41,0.06665,38.855
42,0.068317,38.856
43,0.069983,38.856
44,0.07165000000000001,38.847
45,0.07331699999999999,38.845
46,0.07498299999999999,38.845
47,0.07665,38.838
48,0.078317,38.872
49,0.079983,38.88
50,0.08165,38.88
51,0.083317,38.874
52,0.084983,38.882
53,0.08665,38.885
54,0.08831700000000001,38.885
55,0.08998299999999999,38.857
56,0.09163300000000001,38.854
57,0.09329999999999999,38.855
58,0.094967,38.855
59,0.096633,38.824
60,0.0983,38.853
61,0.099967,38.853
62,0.101633,38.846
63,0.1033,38.864
64,0.104967,38.87
65,0.106633,38.87
66,0.1083,38.865
67,0.109967,38.899
68,0.111633,38.87
69,0.1133,38.87
70,0.114967,38.853
71,0.116617,38.848
72,0.118283,38.812
73,0.11995,38.812
74,0.121617,38.856
75,0.123283,38.871
76,0.12495,38.836
77,0.126617,38.836
78,0.128283,38.841
79,0.12995,38.811
80,0.131633,38.811
81,0.133283,38.815
82,0.13495,38.855
83,0.136617,38.841
84,0.138283,38.841
85,0.13995,38.814
86,0.141617,38.806
87,0.143283,38.804
88,0.14495,38.804
89,0.146617,38.827
90,0.148283,38.855
91,0.149967,38.866
92,0.151617,38.866
93,0.153267,38.85
94,0.154933,38.844
95,0.1566,38.844
96,0.158267,38.832
97,0.159933,38.825
98,0.1616,38.842
99,0.163267,38.842
100,0.164933,38.865
101,0.166683,38.896
102,0.168267,38.929
103,0.169933,38.929
104,0.171617,38.904
105,0.173267,38.861
106,0.174933,38.829
107,0.1766,38.829
108,0.178267,38.786
109,0.179933,38.78
110,0.1816,38.788
111,0.183333,38.788
112,0.184933,38.804
113,0.1866,38.841
114,0.188267,38.841
115,0.189933,38.86
116,0.1916,38.895
117,0.193267,38.882
118,0.194933,38.882
119,0.1966,38.86
120,0.198267,38.878
121,0.199933,38.879
122,0.2016,38.879
123,0.203267,38.92
124,0.204933,38.926
125,0.2066,38.94
126,0.208267,38.94
127,0.20995,38.905
128,0.211583,38.864
129,0.21325,38.864
130,0.214917,38.864
131,0.216583,38.826
132,0.21825,38.844
133,0.219917,38.844
134,0.221583,38.844
135,0.22325,38.837
136,0.224917,38.822
137,0.226583,38.822
138,0.22825,38.813
139,0.229917,38.847
140,0.231583,38.864
141,0.23325,38.864
142,0.234917,38.878
143,0.236583,38.908
144,0.23825,38.908
145,0.239917,38.883
146,0.241583,38.872
147,0.24325,38.906
148,0.244917,38.906
149,0.246583,38.87
150,0.24825,38.87
151,0.249917,38.856
152,0.251583,38.856
153,0.25325,38.818
154,0.254917,38.852
155,0.256583,38.875
156,0.25825,38.875
157,0.259917,38.888
158,0.261583,38.924
159,0.26325,38.901
160,0.264917,38.901
161,0.2666,38.904
162,0.2683,38.923
163,0.269917,38.923
164,0.271567,38.905
165,0.273233,38.926
166,0.2749,38.901
167,0.276567,38.901
168,0.278233,38.879
169,0.279917,38.882
170,0.281617,38.881
171,0.283233,38.881
172,0.28495,38.902
173,0.286567,38.895
174,0.288233,38.872
175,0.2899,38.872
176,0.291567,38.872
177,0.293233,38.85
178,0.2949,38.85
179,0.296567,38.872
180,0.298233,38.876
181,0.2999,38.847
182,0.301667,38.847
183,0.303233,38.847
184,0.3049,38.825
185,0.306567,38.824
186,0.308233,38.824
187,0.3099,38.835
188,0.311567,38.844
189,0.313233,38.873
190,0.3149,38.873
191,0.316567,38.907
192,0.31835,38.929
193,0.3199,38.963
194,0.321567,38.963
195,0.323233,38.949
196,0.3249,38.943
197,0.326567,38.943
198,0.328233,38.912
199,0.3299,38.882
200,0.331567,38.87
201,0.333217,38.87
202,0.334883,38.855
203,0.33655,38.872
204,0.338217,38.864
205,0.339883,38.864
206,0.34155,38.881
207,0.343217,38.891
208,0.344883,38.881
209,0.34655,38.881
210,0.348217,38.882
211,0.349883,38.893
212,0.35155,38.893
213,0.353233,38.884
214,0.354883,38.919
215,0.35655,38.945
216,0.358217,38.945
217,0.359883,38.947
218,0.36155,38.971
219,0.363217,38.978
220,0.364883,38.978
221,0.36655,39.031
222,0.368217,39.108
223,0.369883,39.2
224,0.37155,39.2
225,0.373217,39.265
226,0.374883,39.325
227,0.37655,39.423
228,0.378217,39.423
229,0.379883,39.545
230,0.38155,39.746
231,0.383217,39.746
232,0.384883,39.994
233,0.38655,40.263
234,0.388217,40.574
235,0.389883,40.574
236,0.391533,40.956
237,0.3932,41.388
238,0.394867,41.959
239,0.396533,41.959
240,0.3982,42.677
241,0.399883,43.508
242,0.401533,44.502
243,0.403233,44.502
244,0.404867,45.612
245,0.406533,46.887
246,0.408183,46.887
247,0.40985,48.377
248,0.411517,50.087
249,0.413183,52.08
250,0.41485,52.08
251,0.416517,54.416
252,0.418183,57.04
253,0.419933,60.078
254,0.421533,60.078
255,0.423233,63.496
256,0.42485,67.342
257,0.426517,71.733
258,0.428183,71.733
259,0.42985,76.623
260,0.431517,82.149
261,0.433183,82.149
262,0.43485,88.304
263,0.436633,95.14700000000001
264,0.438183,102.817
265,0.43985,102.817
266,0.441517,111.308
267,0.443183,120.714
268,0.44485,131.152
269,0.446517,131.152
270,0.448183,142.673
271,0.449833,155.414
272,0.451517,169.512
273,0.453167,169.512
274,0.454833,185.07
275,0.4565,202.245
276,0.458167,221.174
277,0.459833,221.174
278,0.4615,242.04
279,0.463167,265.064
280,0.464833,265.064
281,0.4665,290.43
282,0.468167,318.398
283,0.469833,349.219
284,0.4715,349.219
285,0.473167,383.119
286,0.474833,420.41
287,0.4765,461.38
288,0.478167,461.38
289,0.479833,506.321
290,0.4815,555.498
291,0.483167,609.203
292,0.484833,609.203
293,0.4865,667.721
294,0.488167,731.28
295,0.489833,731.28
296,0.491533,800.172
297,0.493167,874.54
298,0.494833,954.529
299,0.4965,954.529
300,0.498167,1040.307
301,0.499833,1131.926
302,0.5014999999999999,1229.378
303,0.503167,1229.378
304,0.504833,1332.616
305,0.5065,1441.494
306,0.508167,1555.862
307,0.509833,1555.862
308,0.5115,1675.503
309,0.51315,1800.069
310,0.514817,1929.155
311,0.516483,1929.155
312,0.51815,2062.296
313,0.519817,2198.95
314,0.521517,2198.95
315,0.52315,2338.599
316,0.524817,2480.581
317,0.526483,2624.208
318,0.52815,2624.208
319,0.529817,2768.818
320,0.531483,2913.649
321,0.53315,3058.018
322,0.534817,3058.018
323,0.536483,3201.134
324,0.538183,3342.249
325,0.539817,3480.665
326,0.541483,3480.665
327,0.54315,3615.66
328,0.544817,3746.614
329,0.5464830000000001,3746.614
330,0.54815,3872.956
331,0.549817,3994.08
332,0.5514829999999999,4109.489
333,0.55315,4109.489
334,0.554917,4218.711
335,0.5564829999999999,4321.316
336,0.55815,4416.909
337,0.559817,4416.909
338,0.561483,4505.254
339,0.56315,4586.137
340,0.564817,4659.384
341,0.566483,4659.384
342,0.568183,4724.885
343,0.569817,4782.481
344,0.5714669999999999,4832.194
345,0.573133,4832.194
346,0.574817,4874.042
347,0.576467,4908.19
348,0.578133,4908.19
349,0.5798,4934.752
350,0.581467,4953.877
351,0.583133,4965.764
352,0.5848,4965.764
353,0.586467,4970.578
354,0.588133,4968.64
355,0.5898,4960.188
356,0.591467,4960.188
357,0.593133,4945.457
358,0.5948,4924.759
359,0.596467,4898.408
360,0.598133,4898.408
361,0.5998,4866.822
362,0.601467,4830.433
363,0.603133,4830.433
364,0.6048,4789.61
365,0.606467,4744.659
366,0.608133,4695.839
367,0.6098,4695.839
368,0.611467,4643.406
369,0.613133,4587.684
370,0.6148,4529.082
371,0.616467,4529.082
372,0.618133,4467.833
373,0.6198,4404.245
374,0.621467,4338.578
375,0.623133,4338.578
376,0.6248,4271.045
377,0.626467,4201.895
378,0.6281330000000001,4201.895
379,0.629817,4131.351
380,0.63145,4059.606
381,0.6331329999999999,3986.841
382,0.634783,3986.841
383,0.63645,3913.274
384,0.638117,3839.091
385,0.6399,3764.564
386,0.64145,3764.564
387,0.643117,3689.771
388,0.644783,3614.896
389,0.64645,3540.074
390,0.6481170000000001,3540.074
391,0.649783,3465.348
392,0.65145,3390.926
393,0.6531169999999999,3316.896
394,0.654783,3316.896
395,0.65645,3243.378
396,0.658117,3170.424
397,0.659783,3170.424
398,0.66145,3098.072
399,0.663117,3026.405
400,0.664783,2955.505
401,0.66645,2955.505
402,0.668117,2885.499
403,0.669783,2816.46
404,0.67145,2748.415
405,0.673233,2748.415
406,0.674783,2681.389
407,0.67645,2615.382
408,0.678117,2550.45
409,0.679783,2550.45
410,0.68145,2486.593
411,0.683117,2423.817
412,0.684783,2423.817
413,0.68645,2362.219
414,0.688117,2301.756
415,0.689767,2242.463
416,0.691433,2242.463
417,0.6931,2184.362
418,0.694767,2127.408
419,0.696433,2071.627
420,0.6981000000000001,2071.627
421,0.69975,2017.035
422,0.701417,1963.597
423,0.703083,1911.345
424,0.704767,1911.345
425,0.706417,1860.312
426,0.708083,1810.472
427,0.70975,1761.805
428,0.711417,1761.805
429,0.713083,1714.32
430,0.71475,1667.938
431,0.716417,1667.938
432,0.718083,1622.691
433,0.71975,1578.567
434,0.721433,1535.534
435,0.723083,1535.534
436,0.72475,1493.629
437,0.726417,1452.775
438,0.728083,1413.013
439,0.72975,1413.013
440,0.731417,1374.274
441,0.733083,1336.515
442,0.73475,1299.79
443,0.736417,1299.79
444,0.738083,1263.948
445,0.73975,1229.049
446,0.741417,1229.049
447,0.743083,1195.092
448,0.74475,1162.053
449,0.746417,1129.985
450,0.7480830000000001,1129.985
451,0.74975,1098.785
452,0.751417,1068.442
453,0.753067,1038.938
454,0.754733,1038.938
455,0.7564,1010.314
456,0.7581,982.518
457,0.759733,955.5119999999999
458,0.7614,955.5119999999999
459,0.7630670000000001,929.258
460,0.764733,903.679
461,0.7664,878.851
462,0.7680670000000001,878.851
463,0.769733,854.715
464,0.7714,831.275
465,0.7730669999999999,831.275
466,0.774767,808.539
467,0.7764,786.448
468,0.778067,764.994
469,0.779733,764.994
470,0.7814,744.175
471,0.783067,723.946
472,0.784733,704.313
473,0.7864,704.313
474,0.788067,685.3099999999999
475,0.789733,666.852
476,0.7915,648.961
477,0.793067,648.961
478,0.794733,631.606
479,0.7964,614.769
480,0.798067,614.769
481,0.799733,598.428
482,0.8014,582.5839999999999
483,0.803067,567.216
484,0.804733,567.216
485,0.8064,552.2619999999999
486,0.808083,537.78
487,0.809733,523.717
488,0.811383,523.717
489,0.8130500000000001,510.077
490,0.814717,496.878
491,0.816383,484.048
492,0.8180500000000001,484.048
493,0.819717,471.604
494,0.821383,459.534
495,0.8230499999999999,459.534
496,0.824717,447.802
497,0.826383,436.446
498,0.82805,425.417
499,0.829717,425.417
500,0.831383,414.725
501,0.83305,404.372
502,0.834717,394.324
503,0.836383,394.324
504,0.83805,384.591
505,0.839717,375.161
506,0.841383,366.006
507,0.84305,366.006
508,0.844733,357.145
509,0.846383,348.517
510,0.84805,340.148
511,0.8497169999999999,340.148
512,0.851383,332.04
513,0.85305,324.167
514,0.8547169999999999,324.167
515,0.856383,316.563
516,0.85805,309.153
517,0.859717,301.978
518,0.861383,301.978
519,0.86305,295.009
520,0.864717,288.255
521,0.866383,281.686
522,0.86805,281.686
523,0.869717,275.305
524,0.871367,269.125
525,0.8730329999999999,263.11
526,0.8747,263.11
527,0.876433,257.285
528,0.878033,251.646
529,0.8797,251.646
530,0.881367,246.163
531,0.883033,240.88
532,0.8847,235.774
533,0.886367,235.774
534,0.888033,230.785
535,0.889717,225.957
536,0.891367,221.267
537,0.893033,221.267
538,0.8947000000000001,216.682
539,0.896367,212.265
540,0.898033,207.946
541,0.8997000000000001,207.946
542,0.901367,203.744
543,0.903033,199.675
544,0.9046999999999999,195.71
545,0.906367,195.71
546,0.908033,191.867
547,0.909817,188.122
548,0.911367,188.122
549,0.913033,184.496
550,0.9147,180.99
551,0.916367,177.602
552,0.918033,177.602
553,0.9197,174.291
554,0.921383,171.065
555,0.923033,167.925
556,0.9247,167.925
557,0.9263670000000001,164.863
558,0.928033,161.899
559,0.9297,159.047
560,0.93135,159.047
561,0.933017,156.235
562,0.934683,153.518
563,0.93635,153.518
564,0.938017,150.911
565,0.939683,148.361
566,0.94135,145.897
567,0.943017,145.897
568,0.9446830000000001,143.5
569,0.94635,141.147
570,0.948017,138.865
571,0.9496830000000001,138.865
572,0.95135,136.637
573,0.953017,134.484
574,0.9546829999999999,132.399
575,0.95635,132.399
576,0.958017,130.349
577,0.959683,128.392
578,0.96135,126.453
579,0.963017,126.453
580,0.964683,124.56
581,0.96635,122.73
582,0.968017,122.73
583,0.969683,120.944
584,0.97135,119.185
585,0.973017,117.468
586,0.974683,117.468
587,0.9763500000000001,115.803
588,0.978017,114.178
589,0.979683,112.642
590,0.9813499999999999,112.642
591,0.983017,111.153
592,0.984683,109.658
593,0.9863499999999999,108.216
594,0.988017,108.216
595,0.989683,106.813
596,0.991317,105.427
597,0.9929829999999999,105.427
598,0.994683,104.1
599,0.996317,102.831
600,0.997983,101.592
601,0.99965,101.592
602,1.001317,100.39
603,1.002983,99.20999999999999
604,1.00465,97.998
605,1.006317,97.998
606,1.007983,96.84099999999999
607,1.00965,95.712
608,1.011433,94.63
609,1.012983,94.63
610,1.01465,93.59399999999999
611,1.016317,92.58199999999999
612,1.017983,92.58199999999999
613,1.01965,91.584
614,1.021317,90.61199999999999
615,1.022983,89.679
616,1.02465,89.679
617,1.026317,88.71599999999999
618,1.0281,87.82599999999999
619,1.02965,87.009
620,1.031317,87.009
621,1.032983,86.175
622,1.03465,85.383
623,1.036317,84.58
624,1.037983,84.58
625,1.03965,83.712
626,1.041317,82.902
627,1.042983,82.09
628,1.04465,82.09
629,1.046317,81.298
630,1.047983,80.58499999999999
631,1.04965,80.58499999999999
632,1.0513,79.88200000000001
633,1.052967,79.235
634,1.054633,78.624
635,1.0563,78.624
636,1.057967,77.98099999999999
637,1.059633,77.334
638,1.061317,76.684
639,1.063017,76.684
640,1.064633,76.051
641,1.0663,75.456
642,1.067967,74.88500000000001
643,1.069633,74.88500000000001
644,1.0713,74.34
645,1.072967,73.797
646,1.074633,73.797
647,1.0763,73.229
648,1.077967,72.70399999999999
649,1.079633,72.152
650,1.0813,72.152
651,1.082967,71.599
652,1.084633,71.128
653,1.0863,70.628
654,1.087967,70.628
655,1.089633,70.139
656,1.0913,69.682
657,1.092967,69.23999999999999
658,1.094633,69.23999999999999
659,1.0963,68.828
660,1.097967,68.42700000000001
661,1.099633,67.992
662,1.1013,67.992
663,1.102967,67.536
664,1.104633,67.081
665,1.1063,67.081
666,1.107967,66.67
667,1.109633,66.297
668,1.1113,65.961
669,1.112967,65.961
670,1.114617,65.599
671,1.116283,65.246
672,1.11795,64.89
673,1.119617,64.89
674,1.121283,64.54900000000001
675,1.12295,64.2
676,1.124617,63.825
677,1.126283,63.825
678,1.128,63.495
679,1.1297,63.146
680,1.131283,63.146
681,1.13295,62.864
682,1.134617,62.604
683,1.136283,62.291
684,1.13795,62.291
685,1.139617,61.958
686,1.141283,61.654
687,1.14295,61.364
688,1.144617,61.364
689,1.146367,61.066
690,1.14795,60.806
691,1.149617,60.518
692,1.151283,60.518
693,1.15295,60.262
694,1.154617,60.039
695,1.156283,59.808
696,1.15795,59.808
697,1.159617,59.552
698,1.161283,59.254
699,1.163067,58.996
700,1.164617,58.996
701,1.166283,58.76
702,1.16795,58.547
703,1.169617,58.547
704,1.171283,58.349
705,1.172933,58.142
706,1.1746,57.919
707,1.176267,57.919
708,1.177933,57.672
709,1.1796,57.459
710,1.181267,57.249
711,1.182933,57.249
712,1.1846,57.026
713,1.186267,56.855
714,1.187933,56.855
715,1.1896,56.644
716,1.191267,56.457
717,1.192933,56.282
718,1.1946,56.282
719,1.196267,56.105
720,1.197983,55.945
721,1.1996,55.763
722,1.201267,55.763
723,1.202933,55.557
724,1.2046,55.389
725,1.206283,55.204
726,1.207933,55.204
727,1.2096,55.041
728,1.211267,54.912
729,1.212933,54.733
730,1.2146,54.733
731,1.216267,54.612
732,1.217933,54.447
733,1.2196,54.447
734,1.221267,54.28
735,1.222933,54.119
736,1.2246,53.913
737,1.226267,53.913
738,1.227933,53.743
739,1.229583,53.634
740,1.23125,53.501
741,1.232917,53.501
742,1.234583,53.374
743,1.23625,53.239
744,1.237917,53.082
745,1.239583,53.082
746,1.24125,52.953
747,1.242917,52.834
748,1.244583,52.834
749,1.24625,52.723
750,1.247967,52.601
751,1.249583,52.471
752,1.25125,52.471
753,1.252917,52.374
754,1.254583,52.253
755,1.25625,52.129
756,1.257917,52.129
757,1.259583,51.999
758,1.26125,51.872
759,1.262917,51.757
760,1.2647,51.757
761,1.26625,51.638
762,1.267917,51.53
763,1.269583,51.53
764,1.27125,51.419
765,1.272917,51.31
766,1.274583,51.178
767,1.27625,51.178
768,1.277917,51.098
769,1.279583,50.999
770,1.281367,50.895
771,1.2829,50.895
772,1.284567,50.814
773,1.286233,50.723
774,1.2879,50.624
775,1.289567,50.624
776,1.291217,50.56
777,1.292883,50.493
778,1.29455,50.393
779,1.296217,50.393
780,1.297883,50.279
781,1.29955,50.145
782,1.301217,50.145
783,1.302883,50.041
784,1.30455,49.935
785,1.306217,49.876
786,1.307883,49.876
787,1.30955,49.805
788,1.311217,49.719
789,1.312883,49.632
790,1.31455,49.632
791,1.316217,49.531
792,1.317883,49.444
793,1.31955,49.35
794,1.321217,49.35
795,1.322883,49.283
796,1.32455,49.204
797,1.326217,49.204
798,1.327883,49.128
799,1.32955,49.078
800,1.331217,49.003
801,1.332883,49.003
802,1.33455,48.932
803,1.336217,48.862
804,1.337883,48.771
805,1.33955,48.771
806,1.341217,48.716
807,1.342883,48.642
808,1.34455,48.558
809,1.346217,48.558
810,1.347883,48.48
811,1.349533,48.41
812,1.351217,48.361
813,1.352867,48.361
814,1.354533,48.317
815,1.3562,48.267
816,1.357867,48.267
817,1.359533,48.192
818,1.3612,48.143
819,1.362867,48.067
820,1.364533,48.067
821,1.366217,47.997
822,1.367867,47.941
823,1.369533,47.83
824,1.3712,47.83
825,1.372867,47.762
826,1.374533,47.711
827,1.3762,47.629
828,1.377867,47.629
829,1.379533,47.594
830,1.381217,47.529
831,1.382883,47.529
832,1.384533,47.462
833,1.3862,47.451
834,1.387867,47.405
835,1.389533,47.405
836,1.3912,47.391
837,1.392867,47.328
838,1.394533,47.275
839,1.3962,47.275
840,1.397867,47.219
841,1.399617,47.142
842,1.4012,47.117
843,1.402867,47.117
844,1.404533,47.041
845,1.4062,46.985
846,1.407867,46.985
847,1.409533,46.96
848,1.411183,46.896
849,1.41285,46.875
850,1.414517,46.875
851,1.416183,46.829
852,1.41785,46.74
853,1.419517,46.718
854,1.421217,46.718
855,1.42285,46.638
856,1.424517,46.615
857,1.426183,46.603
858,1.42785,46.603
859,1.429517,46.551
860,1.431183,46.504
861,1.43285,46.441
862,1.434517,46.441
863,1.436183,46.376
864,1.43785,46.292
865,1.439517,46.292
866,1.441183,46.25
867,1.44285,46.192
868,1.444517,46.173
869,1.446183,46.173
870,1.44785,46.168
871,1.449517,46.159
872,1.451183,46.147
873,1.45285,46.147
874,1.454517,46.109
875,1.456183,46.03
876,1.45785,45.943
877,1.459517,45.943
878,1.461183,45.888
879,1.46285,45.862
880,1.464517,45.862
881,1.466183,45.878
882,1.46785,45.86
883,1.469517,45.832
884,1.471183,45.832
885,1.472833,45.782
886,1.4745,45.709
887,1.476167,45.651
888,1.477833,45.651
889,1.4795,45.612
890,1.481167,45.559
891,1.482833,45.513
892,1.4846,45.513
893,1.486167,45.484
894,1.487833,45.419
895,1.4895,45.368
896,1.491167,45.368
897,1.492833,45.331
898,1.4945,45.282
899,1.496167,45.282
900,1.497833,45.25
901,1.4995,45.215
902,1.501167,45.185
903,1.502833,45.185
904,1.5045,45.187
905,1.506167,45.191
906,1.507833,45.169
907,1.5095,45.169
908,1.511167,45.172
909,1.512833,45.117
910,1.5145,45.054
911,1.516167,45.054
912,1.51795,45.005
913,1.5195,44.932
914,1.521167,44.932
915,1.522833,44.905
916,1.5245,44.87
917,1.526167,44.87
918,1.527833,44.87
919,1.5295,44.86
920,1.53115,44.849
921,1.53285,44.847
922,1.534483,44.847
923,1.53615,44.804
924,1.537817,44.758
925,1.539483,44.71
926,1.54115,44.71
927,1.542817,44.669
928,1.544483,44.629
929,1.54615,44.61
930,1.547817,44.61
931,1.549483,44.581
932,1.55115,44.525
933,1.552817,44.525
934,1.554483,44.526
935,1.55615,44.499
936,1.557817,44.489
937,1.5595,44.489
938,1.56115,44.496
939,1.562817,44.482
940,1.564483,44.455
941,1.56615,44.455
942,1.567817,44.423
943,1.569483,44.405
944,1.57115,44.37
945,1.572817,44.37
946,1.574467,44.353
947,1.576133,44.338
948,1.5778,44.338
949,1.579467,44.288
950,1.581133,44.269
951,1.5828,44.24
952,1.584467,44.24
953,1.586133,44.2
954,1.5878,44.183
955,1.589467,44.156
956,1.591117,44.156
957,1.592783,44.139
958,1.59445,44.095
959,1.596117,44.046
960,1.597783,44.046
961,1.59945,43.993
962,1.601117,43.967
963,1.6028,43.956
964,1.60445,43.956
965,1.606117,43.947
966,1.607783,43.914
967,1.60945,43.914
968,1.611117,43.863
969,1.612783,43.866
970,1.61445,43.835
971,1.616117,43.835
972,1.617783,43.828
973,1.619467,43.843
974,1.621117,43.8
