"ID","sea_time","fid_signal"
1,0,1179.278
2,0.001667,1180.992
3,0.003333,1184.642
4,0.005,1184.642
5,0.006667,1186.579
6,0.008333,1185.611
7,0.01,1184.568
8,0.011667,1184.568
9,0.013333,1179.576
10,0.015033,1177.415
11,0.016667,1177.564
12,0.018333,1177.564
13,0.02,1179.129
14,0.021667,1180.172
15,0.023333,1181.737
16,0.025,1181.737
17,0.026683,1183.599
18,0.028333,1181.737
19,0.03,1182.035
20,0.031667,1182.035
21,0.033333,1183.301
22,0.035,1181.96
23,0.036667,1181.96
24,0.038333,1180.545
25,0.04,1179.799
26,0.041667,1178.607
27,0.043333,1178.607
28,0.045017,1177.937
29,0.046667,1178.458
30,0.048333,1179.054
31,0.05,1179.054
32,0.051667,1177.788
33,0.053333,1178.384
34,0.055,1180.023
35,0.05665,1180.023
36,0.058317,1183.003
37,0.059983,1186.579
38,0.06165,1186.579
39,0.06338299999999999,1187.399
40,0.064983,1186.281
41,0.06665,1183.301
42,0.068317,1183.301
43,0.069983,1181.215
44,0.07165000000000001,1181.811
45,0.07331699999999999,1183.674
46,0.07498299999999999,1183.674
47,0.07665,1184.046
48,0.078317,1183.301
49,0.079983,1182.482
50,0.08165,1182.482
51,0.083317,1179.725
52,0.084983,1178.384
53,0.08665,1178.384
54,0.08831700000000001,1176.968
55,0.08998299999999999,1175.18
56,0.09165,1175.851
57,0.093317,1175.851
58,0.094983,1176
59,0.09676700000000001,1176.298
60,0.098317,1178.011
61,0.099983,1178.011
62,0.10165,1178.16
63,0.103317,1176.968
64,0.104983,1180.172
65,0.10665,1180.172
66,0.108317,1180.768
67,0.109983,1182.258
68,0.11165,1186.803
69,0.113317,1186.803
70,0.114983,1185.313
71,0.11665,1186.132
72,0.118317,1186.132
73,0.119967,1187.176
74,0.121633,1184.344
75,0.1233,1187.026
76,0.124967,1187.026
77,0.126633,1183.897
78,0.1283,1180.693
79,0.129967,1179.948
80,0.131633,1179.948
81,0.133283,1177.266
82,0.13495,1179.65
83,0.136633,1176.596
84,0.138283,1176.596
85,0.13995,1174.957
86,0.141617,1173.392
87,0.143283,1173.392
88,0.14495,1173.913
89,0.146617,1178.16
90,0.148283,1178.011
91,0.14995,1178.011
92,0.151617,1180.917
93,0.153283,1179.65
94,0.15495,1179.576
95,0.156617,1179.576
96,0.158317,1182.482
97,0.15995,1181.439
98,0.161617,1181.141
99,0.163283,1181.141
100,0.16495,1179.501
101,0.166617,1179.352
102,0.168283,1179.65
103,0.16995,1179.65
104,0.171617,1178.905
105,0.173283,1179.129
106,0.17495,1179.129
107,0.176617,1177.937
108,0.178267,1177.192
109,0.179933,1179.874
110,0.181683,1179.874
111,0.183267,1180.917
112,0.184933,1183.003
113,0.1866,1184.791
114,0.188267,1184.791
115,0.189933,1182.78
116,0.1916,1183.301
117,0.193267,1182.184
118,0.194933,1182.184
119,0.1966,1179.948
120,0.198267,1179.501
121,0.199933,1179.501
122,0.201617,1177.266
123,0.203267,1177.192
124,0.204933,1178.533
125,0.2066,1178.533
126,0.208267,1178.235
127,0.209933,1178.533
128,0.2116,1178.309
129,0.213267,1178.309
130,0.214983,1174.51
131,0.2166,1175.776
132,0.218283,1178.235
133,0.219933,1178.235
134,0.2216,1178.384
135,0.223267,1182.631
136,0.224933,1182.035
137,0.2266,1182.035
138,0.228267,1181.215
139,0.229933,1182.929
140,0.2316,1182.929
141,0.233267,1181.141
142,0.23495,1184.046
143,0.2366,1182.854
144,0.23825,1182.854
145,0.239917,1181.96
146,0.241583,1182.407
147,0.24325,1180.023
148,0.244917,1180.023
149,0.246583,1183.078
150,0.24825,1182.035
151,0.249917,1183.003
152,0.251583,1183.003
153,0.25325,1183.748
154,0.254917,1183.152
155,0.256583,1183.152
156,0.25825,1183.972
157,0.259917,1181.066
158,0.261583,1180.545
159,0.26325,1180.545
160,0.264917,1179.427
161,0.266583,1180.619
162,0.26825,1181.513
163,0.269917,1181.513
164,0.271583,1180.917
165,0.27325,1180.917
166,0.274917,1180.396
167,0.276583,1180.396
168,0.27825,1180.619
169,0.279917,1177.862
170,0.281583,1177.862
171,0.28325,1176.447
172,0.284917,1175.776
173,0.286583,1178.16
174,0.28825,1178.16
175,0.289917,1179.501
176,0.291583,1179.203
177,0.29325,1179.054
178,0.294917,1179.054
179,0.296567,1178.756
180,0.29825,1181.141
181,0.3,1182.258
182,0.301567,1182.258
183,0.303233,1182.035
184,0.30495,1179.874
185,0.306567,1179.427
186,0.308233,1179.427
187,0.3099,1180.619
188,0.311567,1180.396
189,0.313233,1180.396
190,0.3149,1181.811
191,0.31665,1182.482
192,0.318233,1181.141
193,0.3199,1181.141
194,0.321567,1181.513
195,0.323233,1181.513
196,0.3249,1179.501
197,0.326567,1179.501
198,0.328233,1178.458
199,0.3299,1177.192
200,0.331567,1177.266
201,0.333283,1177.266
202,0.3349,1178.309
203,0.336567,1179.054
204,0.338233,1179.054
205,0.3399,1180.619
206,0.341567,1177.639
207,0.343233,1178.607
208,0.3449,1178.607
209,0.346567,1179.352
210,0.348233,1179.352
211,0.3499,1183.897
212,0.351567,1183.897
213,0.353233,1182.854
214,0.3549,1185.387
215,0.35655,1187.548
216,0.358217,1187.548
217,0.359883,1187.697
218,0.36155,1186.132
219,0.363217,1185.387
220,0.364883,1185.387
221,0.36655,1184.791
222,0.368217,1186.505
223,0.369883,1186.505
224,0.37155,1188.591
225,0.373217,1187.399
226,0.374883,1187.697
227,0.37655,1187.697
228,0.378217,1185.462
229,0.379933,1185.834
230,0.38155,1187.474
231,0.383217,1187.474
232,0.384883,1189.56
233,0.38655,1189.783
234,0.388217,1189.783
235,0.389883,1189.783
236,0.39155,1188.964
237,0.393217,1188.591
238,0.394883,1188.591
239,0.39655,1192.167
240,0.398217,1196.34
241,0.399883,1199.32
242,0.40155,1199.32
243,0.403217,1199.767
244,0.404883,1196.34
245,0.40655,1196.563
246,0.408217,1196.563
247,0.409883,1196.861
248,0.41155,1200.81
249,0.413217,1206.473
250,0.414883,1206.473
251,0.41655,1210.198
252,0.418233,1215.711
253,0.419867,1217.574
254,0.421533,1217.574
255,0.4232,1219.586
256,0.42485,1222.044
257,0.426517,1222.044
258,0.428183,1223.832
259,0.42985,1226.068
260,0.431517,1231.432
261,0.433183,1231.432
262,0.43485,1233.22
263,0.436517,1235.753
264,0.438183,1234.338
265,0.43985,1234.338
266,0.441517,1235.008
267,0.443183,1237.169
268,0.44485,1237.765
269,0.446517,1237.765
270,0.448183,1240.596
271,0.44985,1240.82
272,0.451583,1240.82
273,0.453183,1243.427
274,0.45485,1245.663
275,0.456517,1250.505
276,0.458183,1250.505
277,0.45985,1252.145
278,0.461517,1250.133
279,0.463183,1250.505
280,0.46485,1250.505
281,0.466517,1245.067
282,0.468317,1242.98
283,0.46985,1240.075
284,0.471517,1240.075
285,0.473183,1236.871
286,0.47485,1238.808
287,0.4765,1238.808
288,0.478167,1238.436
289,0.479833,1239.926
290,0.4815,1240.82
291,0.483167,1240.82
292,0.484833,1241.937
293,0.4865,1242.831
294,0.488167,1247.078
295,0.489833,1247.078
296,0.4915,1251.176
297,0.493167,1256.466
298,0.494833,1264.96
299,0.4965,1264.96
300,0.498167,1274.496
301,0.499833,1293.57
302,0.5014999999999999,1320.019
303,0.503167,1320.019
304,0.504833,1350.939
305,0.5065,1390.651
306,0.508167,1390.651
307,0.509833,1432.896
308,0.5115,1486.54
309,0.513167,1558.438
310,0.514833,1558.438
311,0.5165,1647.323
312,0.518167,1764.447
313,0.519833,1905.561
314,0.521517,1905.561
315,0.523167,2076.253
316,0.524833,2280.399
317,0.5265,2520.979
318,0.5281670000000001,2520.979
319,0.529833,2800.822
320,0.5315,3127.605
321,0.5331669999999999,3127.605
322,0.534833,3509.149
323,0.536483,3944.114
324,0.53815,4444.718
325,0.539817,4444.718
326,0.541483,5006.045
327,0.54315,5629.286
328,0.544817,6320.7
329,0.5464830000000001,6320.7
330,0.54815,7078.573
331,0.549817,7905.438
332,0.5514829999999999,8800.85
333,0.5532,8800.85
334,0.554817,9764.135
335,0.5564829999999999,10793.805
336,0.55815,11889.637
337,0.559817,11889.637
338,0.561483,13048.053
339,0.56315,14265.03
340,0.564817,14265.03
341,0.566483,15540.57
342,0.56815,16871.17
343,0.569867,18250.645
344,0.571483,18250.645
345,0.57315,19672.363
346,0.574817,21135.211
347,0.576483,22630.916
348,0.5781500000000001,22630.916
349,0.579817,24154.336
350,0.581483,25700.256
351,0.5831499999999999,27255.938
352,0.584817,27255.938
353,0.5866,28816.387
354,0.58815,30378.326
355,0.589817,30378.326
356,0.591483,31932.592
357,0.59315,33468.828
358,0.5948,34979.137
359,0.596483,34979.137
360,0.598133,36457.48
361,0.5998,37894.547
362,0.601467,39290.859
363,0.603133,39290.859
364,0.604817,40637.328
365,0.606467,41923.672
366,0.608133,43149.813
367,0.6098,43149.813
368,0.611467,44304.652
369,0.613133,45388.117
370,0.6148,46395.734
371,0.616467,46395.734
372,0.618133,47325.418
373,0.619817,48174.484
374,0.621467,48174.484
375,0.623133,48941.523
376,0.6248,49623.625
377,0.626467,50217.063
378,0.6281330000000001,50217.063
379,0.6298,50723.031
380,0.631467,51141.754
381,0.6331329999999999,51473.602
382,0.6348,51473.602
383,0.636467,51720.293
384,0.638133,51881.074
385,0.6398,51958.41
386,0.641467,51958.41
387,0.643133,51956.699
388,0.6448,51879.063
389,0.646467,51879.063
390,0.648133,51732.809
391,0.6498,51515.25
392,0.651467,51233.172
393,0.653133,51233.172
394,0.654783,50891.191
395,0.65645,50493.031
396,0.658117,50046.219
397,0.659783,50046.219
398,0.66145,49555.75
399,0.66315,49026.086
400,0.664783,48456.34
401,0.66645,48456.34
402,0.668117,47850.684
403,0.669783,47218.727
404,0.67145,47218.727
405,0.673117,46558.828
406,0.674783,45879.559
407,0.67645,45186.652
408,0.678117,45186.652
409,0.679783,44474.082
410,0.68145,43752.27
411,0.683117,43021.961
412,0.684783,43021.961
413,0.68645,42287.93
414,0.68815,41555.09
415,0.689783,40820.168
416,0.69145,40820.168
417,0.693117,40091.723
418,0.694783,39366.484
419,0.69645,38646.234
420,0.698117,38646.234
421,0.699783,37936.793
422,0.70145,37231.668
423,0.703117,37231.668
424,0.704833,36534.891
425,0.70645,35846.383
426,0.708117,35163.535
427,0.7097830000000001,35163.535
428,0.71145,34494.473
429,0.713117,33833.906
430,0.7147829999999999,33188.387
431,0.716417,33188.387
432,0.718083,32560.305
433,0.71975,31941.98
434,0.721417,31340.271
435,0.723083,31340.271
436,0.72475,30745.342
437,0.726417,30164.719
438,0.728083,30164.719
439,0.72975,29595.719
440,0.731417,29038.861
441,0.733083,28497.801
442,0.73475,28497.801
443,0.73645,27967.318
444,0.738083,27450.322
445,0.73975,26945.473
446,0.741417,26945.473
447,0.743083,26454.33
448,0.74475,25972.053
449,0.746417,25501.326
450,0.7480830000000001,25501.326
451,0.74975,25044.531
452,0.751417,24599.881
453,0.7530829999999999,24168.045
454,0.75475,24168.045
455,0.756417,23742.988
456,0.758083,23325.904
457,0.75975,23325.904
458,0.761417,22917.391
459,0.763083,22519.455
460,0.76475,22135.6
461,0.766417,22135.6
462,0.768083,21761.582
463,0.76975,21395.162
464,0.771417,21034.703
465,0.773083,21034.703
466,0.77475,20682.066
467,0.776417,20334.572
468,0.778067,19999.146
469,0.779767,19999.146
470,0.7814,19672.885
471,0.783067,19354.074
472,0.784733,19354.074
473,0.7864,19045.322
474,0.788067,18742.605
475,0.78975,18448.457
476,0.7914,18448.457
477,0.793067,18159.301
478,0.794733,17877.221
479,0.7964,17600.432
480,0.798067,17600.432
481,0.799733,17327.891
482,0.8014,17063.32
483,0.803067,16806.424
484,0.804733,16806.424
485,0.806433,16556.01
486,0.808067,16311.258
487,0.809733,16072.243
488,0.8114,16072.243
489,0.813067,15834.197
490,0.814733,15600.846
491,0.8164,15600.846
492,0.818067,15371.74
493,0.819733,15145.392
494,0.8214,14927.61
495,0.82315,14927.61
496,0.824733,14711.842
497,0.8264,14503.523
498,0.828067,14303.028
499,0.8297330000000001,14303.028
500,0.8314,14104.545
501,0.833067,13913.587
502,0.8347329999999999,13719.797
503,0.836383,13719.797
504,0.83805,13529.51
505,0.839717,13342.574
506,0.841383,13342.574
507,0.84305,13158.023
508,0.8447170000000001,12982.265
509,0.846383,12811.571
510,0.84805,12811.571
511,0.8497169999999999,12644.231
512,0.851383,12480.318
513,0.85305,12316.331
514,0.8547169999999999,12316.331
515,0.856383,12155.324
516,0.85805,12001.693
517,0.859717,11847.317
518,0.861383,11847.317
519,0.86305,11694.878
520,0.864717,11542.514
521,0.866383,11542.514
522,0.86805,11391.416
523,0.869717,11245.385
524,0.871383,11106.059
525,0.87305,11106.059
526,0.874733,10971.353
527,0.876383,10835.156
528,0.87805,10702.237
529,0.879717,10702.237
530,0.881383,10570.81
531,0.88305,10440.126
532,0.884717,10315.851
533,0.886383,10315.851
534,0.88805,10192.543
535,0.889717,10072.589
536,0.891383,9956.807000000001
537,0.89305,9956.807000000001
538,0.894717,9841.472
539,0.896383,9727.329
540,0.898033,9727.329
541,0.8997000000000001,9613.558999999999
542,0.901367,9499.861999999999
543,0.903033,9385.719999999999
544,0.9046999999999999,9385.719999999999
545,0.906367,9274.558000000001
546,0.9081,9166.971
547,0.9097,9062.142
548,0.911367,9062.142
549,0.913033,8959.1
550,0.9147,8860.901
551,0.916367,8761.212
552,0.918033,8761.212
553,0.9197,8663.759
554,0.921367,8567.870000000001
555,0.923033,8567.870000000001
556,0.9247,8473.471
557,0.9263670000000001,8382.424999999999
558,0.928033,8293.465
559,0.9297,8293.465
560,0.9313669999999999,8203.237999999999
561,0.933033,8111.67
562,0.9347,8022.86
563,0.9363669999999999,8022.86
564,0.938033,7934.496
565,0.9397,7851.347
566,0.941483,7771.701
567,0.943033,7771.701
568,0.9447,7690.042
569,0.946367,7608.98
570,0.948033,7530.6
571,0.9497,7530.6
572,0.951383,7449.612
573,0.95305,7374.212
574,0.9547,7374.212
575,0.95635,7299.259
576,0.958017,7221.624
577,0.959683,7147.491
578,0.96135,7147.491
579,0.963017,7072.538
580,0.964683,7003.546
581,0.96635,6935.298
582,0.968017,6935.298
583,0.969683,6868.169
584,0.97135,6803.125
585,0.973017,6731.078
586,0.974683,6731.078
587,0.9763500000000001,6664.544
588,0.978017,6598.16
589,0.979683,6598.16
590,0.9813499999999999,6529.54
591,0.983017,6468.445
592,0.984683,6405.711
593,0.9863499999999999,6405.711
594,0.988017,6344.467
595,0.989683,6285.906
596,0.99135,6226.375
597,0.993017,6226.375
598,0.994683,6164.685
599,0.99635,6106.645
600,0.998017,6048.679
601,0.999683,6048.679
602,1.00135,5991.086
603,1.003017,5939.007
604,1.004683,5882.01
605,1.00635,5882.01
606,1.008,5827.621
607,1.009667,5773.008
608,1.011333,5773.008
609,1.013,5717.427
610,1.014667,5666.241
611,1.016367,5613.417
612,1.017983,5613.417
613,1.01965,5560.964
614,1.021317,5511.939
615,1.022983,5461.201
616,1.02465,5461.201
617,1.026383,5413.368
618,1.027983,5368.218
619,1.02965,5322.024
620,1.031317,5322.024
621,1.032983,5274.191
622,1.03465,5226.433
623,1.036317,5226.433
624,1.037983,5178.898
625,1.03965,5131.14
626,1.041317,5088.896
627,1.042983,5088.896
628,1.04465,5048.066
629,1.046317,5001.947
630,1.047983,4958.659
631,1.04965,4958.659
632,1.051317,4916.638
633,1.052983,4871.637
634,1.05465,4831.031
635,1.056317,4831.031
636,1.057983,4793.406
637,1.05975,4751.682
638,1.061317,4751.682
639,1.062983,4711.598
640,1.06465,4674.42
641,1.066317,4635.826
642,1.067983,4635.826
643,1.06965,4598.871
644,1.071317,4561.692
645,1.072983,4522.428
646,1.07465,4522.428
647,1.0763,4479.736
648,1.077967,4439.279
649,1.079633,4403.219
650,1.0813,4403.219
651,1.082967,4368.946
652,1.084633,4337.207
653,1.0863,4305.02
654,1.087967,4305.02
655,1.08965,4270.598
656,1.09135,4237.145
657,1.092967,4237.145
658,1.094633,4205.704
659,1.0963,4175.082
660,1.097967,4142.15
661,1.099633,4142.15
662,1.1013,4109.293
663,1.102967,4073.605
664,1.104633,4039.481
665,1.1063,4039.481
666,1.107967,4009.083
667,1.109633,3974.512
668,1.1113,3942.102
669,1.112967,3942.102
670,1.114633,3913.865
671,1.1163,3884.882
672,1.117967,3884.882
673,1.119633,3857.315
674,1.1213,3828.555
675,1.122967,3798.306
676,1.124633,3798.306
677,1.1263,3768.206
678,1.127967,3740.341
679,1.129633,3714.934
680,1.1313,3714.934
681,1.132967,3687.441
682,1.134633,3660.47
683,1.136283,3635.362
684,1.13795,3635.362
685,1.139617,3611.445
686,1.141283,3584.921
687,1.14295,3559.068
688,1.14465,3559.068
689,1.146283,3533.885
690,1.14795,3508.18
691,1.149617,3508.18
692,1.151283,3485.083
693,1.15295,3461.763
694,1.154633,3435.91
695,1.156283,3435.91
696,1.15795,3410.95
697,1.159617,3387.63
698,1.161283,3363.341
699,1.16295,3363.341
700,1.164617,3341.958
701,1.166283,3318.414
702,1.16795,3292.784
703,1.169617,3292.784
704,1.171283,3269.166
705,1.17295,3243.685
706,1.174617,3243.685
707,1.176283,3218.651
708,1.178067,3197.044
709,1.179617,3179.908
710,1.181283,3179.908
711,1.18295,3162.101
712,1.184617,3145.635
713,1.186283,3129.244
714,1.18795,3129.244
715,1.189617,3107.712
716,1.191283,3086.999
717,1.19295,3063.232
718,1.194617,3063.232
719,1.196267,3037.378
720,1.197933,3012.94
721,1.1996,2991.333
722,1.201267,2991.333
723,1.202933,2973.527
724,1.2046,2956.018
725,1.206267,2956.018
726,1.207933,2939.031
727,1.2096,2922.192
728,1.211267,2905.205
729,1.212933,2905.205
730,1.2146,2890.08
731,1.216267,2875.477
732,1.217933,2859.309
733,1.2196,2859.309
734,1.221267,2842.098
735,1.222933,2823.323
736,1.2246,2804.995
737,1.226267,2804.995
738,1.22795,2786.368
739,1.2296,2770.126
740,1.231267,2770.126
741,1.232933,2754.182
742,1.2346,2737.939
743,1.236283,2723.634
744,1.237933,2723.634
745,1.2396,2706.87
746,1.241267,2689.883
747,1.24295,2675.503
748,1.2446,2675.503
749,1.246267,2660.304
750,1.247933,2644.583
751,1.2496,2632.29
752,1.251267,2632.29
753,1.252933,2614.93
754,1.2546,2599.359
755,1.256267,2599.359
756,1.257917,2582.893
757,1.259583,2563.223
758,1.26125,2548.248
759,1.262933,2548.248
760,1.264583,2532.75
761,1.26625,2518.296
762,1.267917,2505.332
763,1.269583,2505.332
764,1.27125,2491.847
765,1.272917,2478.138
766,1.274583,2464.354
767,1.27625,2464.354
768,1.277917,2454.892
769,1.279633,2442.524
770,1.28125,2430.23
771,1.282917,2430.23
772,1.284583,2420.768
773,1.28625,2407.506
774,1.287917,2407.506
775,1.289583,2397.299
776,1.29125,2385.527
777,1.292917,2372.712
778,1.294583,2372.712
779,1.296283,2358.034
780,1.297917,2343.357
781,1.299567,2328.232
782,1.301233,2328.232
783,1.3029,2311.841
784,1.304567,2298.355
785,1.306233,2286.136
786,1.3079,2286.136
787,1.309567,2276.525
788,1.311233,2268.031
789,1.313,2257.898
790,1.31455,2257.898
791,1.316217,2247.691
792,1.317883,2237.111
793,1.31955,2237.111
794,1.321217,2227.798
795,1.322883,2217.665
796,1.32455,2206.415
797,1.326217,2206.415
798,1.327883,2195.612
799,1.32955,2187.416
800,1.331217,2176.911
801,1.332883,2176.911
802,1.33455,2165.511
803,1.336217,2155.08
804,1.337883,2139.732
805,1.33955,2139.732
806,1.341217,2129.45
807,1.342883,2121.702
808,1.34455,2121.702
809,1.346217,2111.345
810,1.347883,2103.895
811,1.34955,2095.252
812,1.351217,2095.252
813,1.352883,2084.598
814,1.35455,2076.626
815,1.356217,2069.548
816,1.357883,2069.548
817,1.35955,2060.607
818,1.361217,2052.262
819,1.362883,2043.173
820,1.36455,2043.173
821,1.366217,2032.891
822,1.367883,2023.578
823,1.36955,2023.578
824,1.371217,2012.625
825,1.372883,2002.195
826,1.37455,1989.305
827,1.3762,1989.305
828,1.377867,1977.533
829,1.379533,1968.592
830,1.381233,1961.216
831,1.382867,1961.216
832,1.384533,1957.193
833,1.3862,1951.68
834,1.387867,1944.08
835,1.389533,1944.08
836,1.3912,1935.512
837,1.392867,1926.422
838,1.394533,1920.76
839,1.3962,1920.76
840,1.397983,1917.258
841,1.399533,1910.478
842,1.4012,1910.478
843,1.402867,1903.698
844,1.404533,1894.31
845,1.4062,1886.412
846,1.407867,1886.412
847,1.409533,1881.793
848,1.411217,1874.715
849,1.412867,1866.818
850,1.4146,1866.818
851,1.4162,1862.943
852,1.417867,1856.685
853,1.419533,1851.32
854,1.4212,1851.32
855,1.422867,1849.085
856,1.424533,1838.207
857,1.4262,1838.207
858,1.427867,1829.714
859,1.429533,1825.392
860,1.431283,1817.644
861,1.432867,1817.644
862,1.434533,1811.758
863,1.436183,1804.307
864,1.43785,1795.59
865,1.439517,1795.59
866,1.441183,1788.735
867,1.44285,1781.359
868,1.444517,1772.866
869,1.446233,1772.866
870,1.44785,1766.384
871,1.449517,1759.082
872,1.451183,1759.082
873,1.45285,1752.973
874,1.454517,1750.812
875,1.456183,1744.777
876,1.45785,1744.777
877,1.459517,1740.605
878,1.461183,1735.24
879,1.46285,1729.801
880,1.464517,1729.801
881,1.466183,1723.17
882,1.46785,1717.806
883,1.469517,1711.398
884,1.471183,1711.398
885,1.47285,1704.991
886,1.474517,1702.458
887,1.476183,1695.827
888,1.47785,1695.827
889,1.479517,1690.984
890,1.481183,1686.141
891,1.48285,1686.141
892,1.484517,1678.169
893,1.486183,1673.922
894,1.48785,1669.005
895,1.489517,1669.005
896,1.491183,1664.907
897,1.49285,1661.777
898,1.494517,1657.084
899,1.496183,1657.084
900,1.497833,1653.954
901,1.49955,1647.919
902,1.501167,1645.237
903,1.50285,1645.237
904,1.5045,1641.586
905,1.506167,1635.626
906,1.507833,1635.626
907,1.5095,1630.113
908,1.511167,1622.587
