"ID","sea_time","fid_signal"
1,0,143.468
2,0.001667,143.223
3,0.003333,143.223
4,0.005,143.252
5,0.006667,142.939
6,0.008333,143.006
7,0.01,143.006
8,0.011667,142.768
9,0.013333,142.559
10,0.0151,142.463
11,0.016667,142.463
12,0.018333,142.097
13,0.02,142.246
14,0.021667,142.574
15,0.023333,142.574
16,0.025,142.857
17,0.026667,143.074
18,0.028333,143.558
19,0.030017,143.558
20,0.031667,143.424
21,0.033333,143.431
22,0.035,143.431
23,0.03665,143.588
24,0.038317,143.409
25,0.039983,143.751
26,0.041633,143.751
27,0.0433,144.05
28,0.044967,143.871
29,0.046633,143.744
30,0.0483,143.744
31,0.049967,143.304
32,0.051633,142.865
33,0.0533,142.85
34,0.054967,142.85
35,0.056633,142.761
36,0.0583,142.895
37,0.059967,142.895
38,0.061633,143.051
39,0.0633,143.319
40,0.064983,143.439
41,0.066633,143.439
42,0.0683,143.602
43,0.069967,143.64
44,0.071633,143.498
45,0.0733,143.498
46,0.07496700000000001,143.468
47,0.07663300000000001,143.558
48,0.07829999999999999,143.804
49,0.079967,143.804
50,0.081633,143.908
51,0.0833,143.871
52,0.084967,143.871
53,0.086633,143.871
54,0.0883,143.468
55,0.08996700000000001,143.647
56,0.09163300000000001,143.647
57,0.09329999999999999,143.975
58,0.094967,144.02
59,0.096633,144.385
60,0.0983,144.385
61,0.099967,144.057
62,0.101633,143.602
63,0.103283,143.483
64,0.10495,143.483
65,0.106617,143.237
66,0.1083,143.17
67,0.10995,143.29
68,0.111617,143.29
69,0.113283,143.133
70,0.11495,142.977
71,0.116617,142.977
72,0.118283,143.059
73,0.11995,143.468
74,0.121617,143.737
75,0.123283,143.737
76,0.12495,143.953
77,0.126617,144.035
78,0.128283,143.968
79,0.12995,143.968
80,0.131617,143.781
81,0.133317,143.759
82,0.13495,143.684
83,0.136617,143.684
84,0.138283,143.431
85,0.13995,143.208
86,0.141617,143.208
87,0.143283,143.111
88,0.14495,143.044
89,0.146617,142.917
90,0.148283,142.917
91,0.14995,142.924
92,0.151617,142.835
93,0.153283,143.178
94,0.15495,143.178
95,0.156617,143.565
96,0.158283,143.863
97,0.15995,144.184
98,0.161617,144.184
99,0.163267,144.102
100,0.164933,143.93
101,0.1666,143.67
102,0.168267,143.67
103,0.169933,143.424
104,0.1716,143.252
105,0.173267,143.252
106,0.174933,143.029
107,0.1766,143.297
108,0.178267,143.364
109,0.179933,143.364
110,0.1816,143.699
111,0.183267,144.05
112,0.184933,143.982
113,0.1866,143.982
114,0.188267,143.915
115,0.189933,143.513
116,0.1916,143.297
117,0.193267,143.297
118,0.194933,143.327
119,0.1966,143.416
120,0.198267,143.416
121,0.199933,143.491
122,0.2016,143.468
123,0.203267,143.744
124,0.204933,143.744
125,0.2066,143.93
126,0.208267,144.042
127,0.209933,143.968
128,0.2116,143.968
129,0.213267,143.722
130,0.214933,143.632
131,0.216617,143.558
132,0.218317,143.558
133,0.219933,143.409
134,0.221583,143.357
135,0.22325,143.312
136,0.224917,143.312
137,0.226583,143.491
138,0.22825,143.886
139,0.229917,143.886
140,0.231583,143.833
141,0.23325,143.789
142,0.234917,143.483
143,0.236583,143.483
144,0.23825,143.319
145,0.239917,143.506
146,0.241583,143.431
147,0.24325,143.431
148,0.244917,143.804
149,0.246583,143.945
150,0.24825,143.707
151,0.249917,143.707
152,0.251683,143.826
153,0.25325,143.632
154,0.254917,143.632
155,0.256583,143.483
156,0.25825,143.401
157,0.259917,143.193
158,0.261583,143.193
159,0.26325,143.081
160,0.264917,143.006
161,0.266583,143.141
162,0.26825,143.141
163,0.269917,143.297
164,0.271583,143.476
165,0.27325,143.528
166,0.274917,143.528
167,0.276583,143.416
168,0.27825,143.252
169,0.279933,143.17
170,0.281583,143.17
171,0.283233,143.349
172,0.2849,143.647
173,0.286567,143.647
174,0.288233,143.774
175,0.2899,143.729
176,0.291583,143.588
177,0.29325,143.588
178,0.2949,143.2
179,0.296567,143.26
180,0.298233,143.364
181,0.2999,143.364
182,0.301567,143.357
183,0.303233,143.684
184,0.3049,143.915
185,0.306567,143.915
186,0.308233,143.93
187,0.3099,144.146
188,0.311567,144.146
189,0.313233,143.886
190,0.3149,143.409
191,0.316567,143.379
192,0.318233,143.379
193,0.3199,143.148
194,0.321567,143.439
195,0.323233,143.625
196,0.3249,143.625
197,0.326567,143.297
198,0.328217,143.23
199,0.329883,142.835
200,0.33155,142.835
201,0.333217,142.731
202,0.334883,142.954
203,0.3366,143.148
204,0.338217,143.148
205,0.339883,143.461
206,0.34155,143.506
207,0.3432,143.506
208,0.344867,143.409
209,0.346533,143.334
210,0.3482,143.416
211,0.349867,143.416
212,0.351533,143.699
213,0.3532,143.781
214,0.354867,143.893
215,0.356533,143.893
216,0.358217,143.744
217,0.359933,143.781
218,0.361533,143.751
219,0.3632,143.751
220,0.364867,143.923
221,0.366533,144.161
222,0.3682,144.161
223,0.369983,144.258
224,0.371533,144.608
225,0.3732,144.273
226,0.374867,144.273
227,0.376533,143.975
228,0.3782,143.64
229,0.379867,143.677
230,0.381533,143.677
231,0.3832,144.005
232,0.384867,144.571
233,0.386533,145.473
234,0.3882,145.473
235,0.389867,146.002
236,0.391533,146.732
237,0.3932,146.732
238,0.394867,147.477
239,0.396533,148.036
240,0.3982,149.406
241,0.399867,149.406
242,0.401533,150.785
243,0.403183,152.402
244,0.40485,154.234
245,0.406517,154.234
246,0.408183,155.896
247,0.40985,158.28
248,0.411517,160.642
249,0.413183,160.642
250,0.41485,163.354
251,0.416517,166.655
252,0.418183,170.231
253,0.41985,170.231
254,0.421517,174.649
255,0.423183,179.73
256,0.42485,179.73
257,0.426517,185.43
258,0.428183,192.18
259,0.42985,199.489
260,0.431517,199.489
261,0.433183,207.841
262,0.43485,217.266
263,0.436517,228.04
264,0.438183,228.04
265,0.43985,240.639
266,0.441517,255.875
267,0.443183,273.503
268,0.44485,273.503
269,0.446517,294.29
270,0.448183,319.853
271,0.44985,319.853
272,0.451517,350.438
273,0.453183,388.339
274,0.454867,434.719
275,0.456517,434.719
276,0.458183,491.522
277,0.45985,561.111
278,0.461517,646.457
279,0.463167,646.457
280,0.464833,751.13
281,0.4665,878.751
282,0.468183,1033.15
283,0.469833,1033.15
284,0.471617,1218.297
285,0.473167,1438.469
286,0.474833,1697.756
287,0.4765,1697.756
288,0.478167,2000.6
289,0.479833,2350.688
290,0.4815,2350.688
291,0.483167,2751.283
292,0.484833,3204.696
293,0.4865,3713.146
294,0.488233,3713.146
295,0.489833,4277.356
296,0.4915,4897.341
297,0.493167,5571.417
298,0.494833,5571.417
299,0.4965,6297.402
300,0.498167,7072.277
301,0.499833,7891.327
302,0.5014999999999999,7891.327
303,0.503167,8750.23
304,0.504933,9642.563
305,0.506517,9642.563
306,0.508167,10561.601
307,0.509833,11500.009
308,0.5115,12449.436
309,0.513167,12449.436
310,0.51485,13401.568
311,0.5165,14347.717
312,0.518167,15279.308
313,0.519833,15279.308
314,0.5215,16188.219
315,0.52315,17065.496
316,0.524817,17903.254
317,0.526483,17903.254
318,0.52815,18694.363
319,0.529817,19432.172
320,0.531483,19432.172
321,0.53315,20110.965
322,0.534817,20726.055
323,0.536483,21273.709
324,0.53815,21273.709
325,0.539817,21751.135
326,0.541483,22157.617
327,0.54315,22492.893
328,0.544817,22492.893
329,0.5464830000000001,22757.359
330,0.54815,22952.893
331,0.549817,23081.734
332,0.5514829999999999,23081.734
333,0.55315,23146.316
334,0.554817,23150.191
335,0.5564829999999999,23097.232
336,0.55815,23097.232
337,0.559817,22991.732
338,0.561483,22837.766
339,0.56315,22837.766
340,0.564817,22639.625
341,0.566483,22402.279
342,0.56815,22130.451
343,0.569817,22130.451
344,0.571483,21828.934
345,0.57315,21501.689
346,0.574817,21152.004
347,0.576483,21152.004
348,0.5781500000000001,20783.283
349,0.579817,20398.877
350,0.5815,20001.984
351,0.583133,20001.984
352,0.5848,19595.451
353,0.586467,19181.557
354,0.588133,19181.557
355,0.589883,18762.469
356,0.591467,18340.424
357,0.593133,17917.119
358,0.5948,17917.119
359,0.596467,17493.889
360,0.598133,17072.469
361,0.5998,16653.939
362,0.601467,16653.939
363,0.603133,16239.159
364,0.6048,15829.749
365,0.606567,15425.63
366,0.608133,15425.63
367,0.6098,15027.538
368,0.611467,14636.188
369,0.613133,14251.947
370,0.6148,14251.947
371,0.616467,13875.417
372,0.618133,13506.688
373,0.619783,13506.688
374,0.6214499999999999,13145.641
375,0.623233,12792.178
376,0.624783,12446.836
377,0.62645,12446.836
378,0.628117,12109.942
379,0.629783,11781.528
380,0.63145,11461.311
381,0.633117,11461.311
382,0.634783,11149.406
383,0.63645,10845.333
384,0.638117,10549.545
385,0.639783,10549.545
386,0.64145,10261.722
387,0.643117,9980.954
388,0.644767,9980.954
389,0.64645,9707.891
390,0.6481,9442.136
391,0.649767,9183.190000000001
392,0.651433,9183.190000000001
393,0.6531,8931.838
394,0.654767,8687.168
395,0.656433,8449.084999999999
396,0.6581,8449.084999999999
397,0.659767,8217.849
398,0.661433,7992.856
399,0.6631,7774.301
400,0.664767,7774.301
401,0.6664330000000001,7561.423
402,0.668117,7354.364
403,0.669767,7153.288
404,0.6714329999999999,7153.288
405,0.6731,6957.896
406,0.674767,6767.996
407,0.676433,6767.996
408,0.6781,6583.646
409,0.679767,6404.489
410,0.681433,6230.161
411,0.6831,6230.161
412,0.684767,6061.07
413,0.686433,5896.621
414,0.6881,5736.44
415,0.689767,5736.44
416,0.691433,5580.775
417,0.6931,5429.797
418,0.694767,5282.886
419,0.696433,5282.886
420,0.6981000000000001,5140.364
421,0.699767,5001.955
422,0.701433,5001.955
423,0.703083,4867.047
424,0.70475,4735.999
425,0.706417,4608.661
426,0.7081499999999999,4608.661
427,0.70975,4484.728
428,0.711417,4364.371
429,0.713083,4247.666
430,0.7147829999999999,4247.666
431,0.716417,4134.201
432,0.718083,4024.111
433,0.71975,3917.269
434,0.721417,3917.269
435,0.723083,3813.237
436,0.7248,3712.088
437,0.726417,3712.088
438,0.728083,3613.651
439,0.72975,3518.023
440,0.731417,3425.136
441,0.733083,3425.136
442,0.73475,3334.641
443,0.736417,3246.754
444,0.738083,3161.319
445,0.73975,3161.319
446,0.741533,3078.133
447,0.743083,2997.734
448,0.74475,2919.711
449,0.746417,2919.711
450,0.7480830000000001,2843.797
451,0.74975,2770.282
452,0.751417,2698.369
453,0.7530829999999999,2698.369
454,0.75475,2628.483
455,0.756417,2560.675
456,0.758083,2560.675
457,0.75975,2494.469
458,0.761417,2430.402
459,0.7630670000000001,2368.063
460,0.764733,2368.063
461,0.7664,2307.549
462,0.7680670000000001,2248.958
463,0.769733,2192.229
464,0.7714,2192.229
465,0.7730669999999999,2136.879
466,0.774733,2083.011
467,0.7764,2030.455
468,0.778067,2030.455
469,0.779733,1979.068
470,0.7814,1929.447
471,0.783067,1929.447
472,0.7847499999999999,1881.145
473,0.7864,1834.4
474,0.788067,1788.892
475,0.789733,1788.892
476,0.7914,1744.539
477,0.793067,1701.221
478,0.794733,1659.214
479,0.7964,1659.214
480,0.798067,1618.765
481,0.799733,1579.575
482,0.8014,1541.421
483,0.803067,1541.421
484,0.804733,1504.533
485,0.8064,1468.144
486,0.808067,1432.605
487,0.809733,1432.605
488,0.8114,1398.325
489,0.813067,1365.08
490,0.814733,1365.08
491,0.8164,1332.991
492,0.818067,1301.736
493,0.819733,1271.442
494,0.821383,1271.442
495,0.8230499999999999,1241.736
496,0.824717,1212.731
497,0.826417,1185.097
498,0.82805,1185.097
499,0.829717,1157.783
500,0.831383,1131.289
501,0.83305,1105.629
502,0.834717,1105.629
503,0.836383,1080.297
504,0.83805,1055.777
505,0.839733,1055.777
506,0.841383,1031.868
507,0.843067,1009.062
508,0.8447170000000001,986.718
509,0.846383,986.718
510,0.84805,965.104
511,0.8497169999999999,944.234
512,0.851383,923.641
513,0.85305,923.641
514,0.8547169999999999,903.83
515,0.856383,884.883
516,0.85805,866.1369999999999
517,0.8598170000000001,866.1369999999999
518,0.861383,847.6
519,0.863067,829.592
520,0.864717,812.158
521,0.866383,812.158
522,0.86805,795.193
523,0.869717,778.8390000000001
524,0.871383,778.8390000000001
525,0.87305,763.096
526,0.874717,747.293
527,0.876383,731.982
528,0.87805,731.982
529,0.879717,717.498
530,0.881367,702.806
531,0.883033,688.7089999999999
532,0.8847,688.7089999999999
533,0.886367,675.365
534,0.888033,662.178
535,0.8897,649.557
536,0.891367,649.557
537,0.893033,637.405
538,0.8947000000000001,625.506
539,0.896367,625.506
540,0.898033,613.63
541,0.8997000000000001,602.581
542,0.901367,591.427
543,0.903033,591.427
544,0.9046999999999999,580.274
545,0.906367,569.478
546,0.908033,559.144
547,0.9097,559.144
548,0.91135,549.309
549,0.913017,539.817
550,0.914683,530.735
551,0.91635,530.735
552,0.918017,521.377
553,0.919683,512.369
554,0.92135,512.369
555,0.923017,503.495
556,0.924683,495.031
557,0.92635,486.843
558,0.928017,486.843
559,0.929683,478.819
560,0.93135,471.45
561,0.933017,463.881
562,0.934683,463.881
563,0.93635,456.676
564,0.938017,449.583
565,0.939683,442.237
566,0.94135,442.237
567,0.9429999999999999,435.434
568,0.944667,428.677
569,0.946333,422.336
570,0.948,422.336
571,0.949667,416.212
572,0.951333,410.274
573,0.953,410.274
574,0.954667,404.41
575,0.956333,398.45
576,0.958,392.795
577,0.959667,392.795
578,0.961333,387.155
579,0.963,381.663
580,0.9646670000000001,376.545
581,0.966333,376.545
582,0.968,371.598
583,0.9696669999999999,366.613
584,0.971333,361.741
585,0.973,361.741
586,0.974667,357.255
587,0.976333,352.815
588,0.978117,348.598
589,0.979667,348.598
590,0.981333,344.351
591,0.983,339.642
592,0.984667,339.642
593,0.986333,335.239
594,0.988,331.111
595,0.989667,327.252
596,0.991333,327.252
597,0.993,323.795
598,0.994667,319.935
599,0.996333,316.277
600,0.998,316.277
601,0.999667,312.723
602,1.001333,309.341
603,1.002983,306.211
604,1.00465,306.211
605,1.00635,302.866
606,1.007983,299.543
607,1.009683,299.543
608,1.011317,296.339
609,1.012983,293.545
610,1.01465,290.535
611,1.016317,290.535
612,1.017983,288.025
613,1.01965,285.372
614,1.021317,282.541
615,1.022983,282.541
616,1.02465,280.164
617,1.026317,277.393
618,1.027983,274.688
619,1.02965,274.688
620,1.031317,272.155
621,1.032983,269.935
622,1.03465,269.935
623,1.036317,267.64
624,1.037983,265.509
625,1.03965,263.199
626,1.041317,263.199
627,1.042983,260.599
628,1.04465,258.416
629,1.046317,256.345
630,1.047983,256.345
631,1.04965,254.355
632,1.051317,252.776
633,1.052983,250.794
634,1.05465,250.794
635,1.056317,248.872
636,1.057983,247.024
637,1.05965,244.647
638,1.061317,244.647
639,1.063033,243.001
640,1.064633,241.235
641,1.0663,241.235
642,1.067967,239.462
643,1.069633,238.068
644,1.0713,236.437
645,1.072967,236.437
646,1.074633,234.783
647,1.0763,233.524
648,1.077967,232.175
649,1.07975,232.175
650,1.0813,230.938
651,1.082967,229.552
652,1.084633,228.114
653,1.0863,228.114
654,1.087967,226.684
655,1.089633,225.306
656,1.0913,225.306
657,1.092967,223.979
658,1.094633,222.512
659,1.096417,221.193
660,1.097967,221.193
661,1.09965,219.919
662,1.1013,218.906
663,1.102967,217.706
664,1.104633,217.706
665,1.1063,216.424
666,1.107967,215.255
667,1.109633,213.951
668,1.1113,213.951
669,1.112967,213.116
670,1.114633,212.282
671,1.1163,212.282
672,1.117967,211.164
673,1.119633,210.382
674,1.121283,209.525
675,1.12295,209.525
676,1.124617,208.527
677,1.126283,207.521
678,1.12795,206.582
679,1.129617,206.582
680,1.131283,205.651
681,1.13295,204.951
682,1.134617,204.414
683,1.136283,204.414
684,1.13795,203.535
685,1.139617,202.335
686,1.141283,201.099
687,1.14295,201.099
688,1.144617,200.137
689,1.146283,199.243
690,1.14795,199.243
691,1.149633,198.595
692,1.1513,198.156
693,1.15295,197.597
694,1.154617,197.597
695,1.156283,196.978
696,1.15795,196.241
697,1.159617,195.496
698,1.161283,195.496
699,1.16295,194.915
700,1.164617,194.117
701,1.166283,193.648
702,1.16795,193.648
703,1.169617,192.903
704,1.171283,191.972
705,1.17295,191.972
706,1.174617,191.525
707,1.176283,190.854
708,1.17795,190.467
709,1.179617,190.467
710,1.181333,189.669
711,1.182933,188.865
712,1.1846,188.209
713,1.186267,188.209
714,1.187933,187.546
715,1.1896,187.099
716,1.191267,186.697
717,1.192933,186.697
718,1.1946,186.339
719,1.196267,186.16
720,1.197933,185.84
721,1.1996,185.84
722,1.201267,185.274
723,1.202917,184.655
724,1.204583,184.655
725,1.20625,184.059
726,1.207917,183.776
727,1.209583,183.396
728,1.21125,183.396
729,1.212917,183.083
730,1.214683,182.651
731,1.21625,182.137
732,1.217917,182.137
733,1.219583,181.742
734,1.22125,181.533
735,1.222917,181.235
736,1.224583,181.235
737,1.22625,180.87
738,1.22795,180.721
739,1.229583,180.721
740,1.23125,180.066
741,1.232917,179.522
742,1.234583,179.067
743,1.23625,179.067
744,1.237917,178.605
745,1.239583,178.419
746,1.24125,177.927
747,1.2429,177.927
748,1.244567,177.272
749,1.246233,176.817
750,1.2479,176.452
751,1.249567,176.452
752,1.251233,176.378
753,1.2529,176.229
754,1.254567,175.655
755,1.256233,175.655
756,1.2579,175.163
757,1.259567,174.582
758,1.261233,174.582
759,1.2629,174.262
760,1.264567,174.217
761,1.266233,174.068
762,1.2679,174.068
763,1.269567,173.971
764,1.271233,173.807
765,1.2729,173.546
766,1.274583,173.546
767,1.276233,173.092
768,1.2779,172.682
769,1.279567,172.377
770,1.281233,172.377
771,1.2829,171.982
772,1.284567,171.855
773,1.286233,171.855
774,1.2879,171.803
775,1.289567,171.93
776,1.291233,171.877
777,1.2929,171.877
778,1.294567,171.728
779,1.296233,171.416
780,1.297917,170.752
781,1.299633,170.752
782,1.301233,170.633
783,1.302883,170.283
784,1.30455,170.097
785,1.306217,170.097
786,1.307883,170.067
787,1.30955,169.62
788,1.311217,169.62
789,1.312883,169.21
790,1.31455,168.614
791,1.316267,168.48
792,1.317883,168.48
793,1.31955,168.294
794,1.321217,168.174
795,1.322883,168.48
796,1.32455,168.48
797,1.326217,168.346
798,1.327883,168.107
799,1.32955,168.011
800,1.331217,168.011
801,1.333,167.809
802,1.33455,167.266
803,1.336217,167.28
804,1.337883,167.28
805,1.33955,167.154
806,1.341217,166.677
807,1.342883,166.677
808,1.34455,166.796
809,1.346217,166.483
810,1.347883,165.895
811,1.34955,165.895
812,1.351217,165.612
813,1.352883,165.15
814,1.35455,164.919
815,1.356217,164.919
816,1.357883,165.254
817,1.35955,165.41
818,1.3612,165.44
819,1.362867,165.44
820,1.364533,165.284
821,1.3662,165.075
822,1.367867,165.075
823,1.369533,165.083
824,1.3712,165.202
825,1.372883,165.127
826,1.374583,165.127
827,1.3762,165.12
828,1.377867,165.03
829,1.379533,164.717
830,1.3812,164.717
831,1.382867,164.717
832,1.384533,164.658
833,1.3862,164.263
834,1.387867,164.263
835,1.389533,163.995
836,1.3912,164.017
837,1.392867,163.555
838,1.394533,163.555
839,1.3962,163.242
840,1.397867,162.803
841,1.399533,162.803
842,1.4012,162.303
843,1.402867,162.14
844,1.404533,162.058
845,1.4062,162.058
846,1.407867,162.035
847,1.409533,161.849
848,1.4112,161.961
849,1.412867,161.961
850,1.414533,161.856
851,1.4162,161.968
852,1.41785,161.834
853,1.419533,161.834
854,1.421183,161.543
855,1.42285,161.618
856,1.424517,161.618
857,1.426183,161.7
858,1.42785,161.886
859,1.429517,161.611
860,1.431183,161.611
861,1.43285,161.409
862,1.434617,160.836
863,1.436183,160.53
864,1.43785,160.53
865,1.439517,160.53
866,1.441183,160.344
867,1.44285,160.314
868,1.444583,160.314
869,1.446183,160.173
870,1.44785,160.232
871,1.449517,160.486
872,1.451283,160.486
873,1.45285,160.679
874,1.454517,160.754
875,1.456183,160.754
876,1.45785,160.351
877,1.459517,159.971
878,1.461183,160.009
879,1.46285,160.009
880,1.464517,159.927
881,1.466183,159.994
882,1.46795,159.86
883,1.469517,159.86
884,1.471183,159.584
885,1.47285,159.241
886,1.474517,158.951
887,1.476183,158.951
888,1.47785,158.831
889,1.479517,158.474
890,1.481183,158.474
891,1.482833,158.466
892,1.4845,158.586
893,1.486167,158.519
894,1.487833,158.519
895,1.4895,158.392
896,1.491167,158.511
897,1.492833,158.593
898,1.494483,158.593
899,1.49615,158.891
900,1.497817,159.048
901,1.499483,158.757
902,1.50115,158.757
903,1.502817,158.422
904,1.504483,158.034
905,1.50615,158.034
906,1.507817,157.818
907,1.509483,157.93
908,1.511167,157.93
909,1.512817,157.93
910,1.514483,158.019
911,1.51615,158.101
912,1.517817,157.855
913,1.519483,157.855
914,1.52115,157.662
915,1.522817,157.17
916,1.524483,157.207
917,1.52615,157.207
918,1.527817,157.282
919,1.529483,157.431
920,1.53115,157.595
921,1.532817,157.595
922,1.534483,157.431
923,1.53615,157.252
924,1.537817,157.252
925,1.539483,156.969
926,1.54115,156.82
927,1.5428,156.827
928,1.544467,156.827
929,1.546133,156.984
930,1.5478,157.095
931,1.549467,156.932
932,1.551133,156.932
933,1.55285,156.522
934,1.554467,156.149
935,1.556133,156.239
936,1.5578,156.239
937,1.559467,156.537
938,1.561133,156.514
939,1.5628,156.514
940,1.564467,156.403
941,1.566133,156.216
942,1.5678,155.799
943,1.569517,155.799
944,1.571133,155.918
945,1.5728,156.164
946,1.574467,156.105
