"ID","sea_time","fid_signal"
1,0,157.58
2,0.001667,157.58
3,0.003433,157.654
4,0.005,157.416
5,0.006667,157.416
6,0.008333,157.237
7,0.01,156.671
8,0.011667,155.605
9,0.013333,155.605
10,0.014983,154.637
11,0.01665,153.936
12,0.018317,153.691
13,0.019983,153.691
14,0.02165,153.616
15,0.023317,153.922
16,0.024983,153.959
17,0.02665,153.959
18,0.028317,153.951
19,0.029983,154.234
20,0.03165,154.458
21,0.033317,154.458
22,0.034983,154.503
23,0.03665,154.89
24,0.038317,154.89
25,0.039983,155.136
26,0.04165,155.032
27,0.043333,155.441
28,0.044983,155.441
29,0.04665,155.471
30,0.048317,155.419
31,0.049983,155.65
32,0.05165,155.65
33,0.053317,155.203
34,0.054983,155.069
35,0.05665,155.188
36,0.058317,155.188
37,0.059983,154.912
38,0.06165,154.771
39,0.063317,154.771
40,0.064983,154.436
41,0.066667,154.294
42,0.068317,154.503
43,0.069983,154.503
44,0.071633,154.749
45,0.07331699999999999,154.98
46,0.07496700000000001,154.771
47,0.07663300000000001,154.771
48,0.07829999999999999,154.607
49,0.079967,154.518
50,0.081633,154.406
51,0.0833,154.406
52,0.084967,154.607
53,0.086633,154.547
54,0.08835,154.637
55,0.08996700000000001,154.637
56,0.09163300000000001,154.756
57,0.09329999999999999,154.607
58,0.094967,154.607
59,0.096633,154.57
60,0.0983,154.398
61,0.099967,154.279
62,0.101633,154.279
63,0.1033,154.302
64,0.105033,154.413
65,0.106633,154.786
66,0.1083,154.786
67,0.109967,155.166
68,0.111633,155.456
69,0.1133,155.546
70,0.114967,155.546
71,0.116633,155.635
72,0.1183,155.427
73,0.119967,155.427
74,0.12175,155.166
75,0.1233,155.017
76,0.124967,154.689
77,0.126633,154.689
78,0.1283,154.637
79,0.129967,154.786
80,0.131633,155.129
81,0.1333,155.129
82,0.13495,155.36
83,0.136617,155.62
84,0.138283,155.732
85,0.13995,155.732
86,0.141617,155.479
87,0.143283,154.972
88,0.144967,154.465
89,0.146617,154.465
90,0.148283,154.391
91,0.14995,154.495
92,0.151617,154.495
93,0.153283,154.801
94,0.15495,154.853
95,0.156617,154.689
96,0.158283,154.689
97,0.15995,154.57
98,0.161617,154.331
99,0.163283,154.16
100,0.16495,154.16
101,0.1666,154.428
102,0.168267,154.652
103,0.169933,155.225
104,0.1716,155.225
105,0.173267,155.494
106,0.174933,155.106
107,0.1766,155.106
108,0.178267,154.823
109,0.179933,154.637
110,0.1816,154.674
111,0.183267,154.674
112,0.184933,154.987
113,0.1866,155.114
114,0.188267,154.905
115,0.189933,154.905
116,0.1916,154.92
117,0.193267,154.756
118,0.194917,154.674
119,0.196583,154.674
120,0.19825,154.756
121,0.199917,154.816
122,0.201583,154.816
123,0.20325,154.674
124,0.204917,154.57
125,0.20665,154.458
126,0.20825,154.458
127,0.209917,154.302
128,0.211583,154.592
129,0.21325,154.6
130,0.214917,154.6
131,0.216583,154.644
132,0.21825,154.786
133,0.219917,154.801
134,0.221583,154.801
135,0.223283,154.704
136,0.224917,154.592
137,0.226583,154.547
138,0.22825,154.547
139,0.229917,154.264
140,0.231583,154.383
141,0.23325,154.383
142,0.234917,154.503
143,0.236583,154.48
144,0.23825,154.562
145,0.240017,154.562
146,0.241583,154.525
147,0.24325,154.428
148,0.244917,154.376
149,0.246583,154.376
150,0.24825,154.682
151,0.249917,154.831
152,0.251583,154.898
153,0.25325,154.898
154,0.2549,154.905
155,0.256567,154.495
156,0.258233,154.495
157,0.2599,154.041
158,0.261567,153.862
159,0.263233,153.825
160,0.2649,153.825
161,0.266567,153.787
162,0.268233,154.093
163,0.2699,154.309
164,0.271567,154.309
165,0.273233,154.361
166,0.2749,154.473
167,0.276567,154.428
168,0.278233,154.428
169,0.2799,154.294
170,0.281567,153.922
171,0.283267,153.847
172,0.284917,153.847
173,0.286567,154.056
174,0.288233,154.361
175,0.2899,154.361
176,0.291567,154.592
177,0.293233,154.383
178,0.2949,154.153
179,0.296567,154.153
180,0.298233,153.624
181,0.2999,153.691
182,0.301567,153.832
183,0.303233,153.832
184,0.3049,154.026
185,0.306567,154.51
186,0.308233,154.413
187,0.3099,154.413
188,0.311567,154.413
189,0.313217,154.279
190,0.314883,154.279
191,0.31655,153.922
192,0.318217,153.996
193,0.319883,153.698
194,0.32155,153.698
195,0.323217,153.72
196,0.324967,153.787
197,0.32655,153.892
198,0.328217,153.892
199,0.329883,154.108
200,0.33155,154.197
201,0.333217,154.145
202,0.334883,154.145
203,0.33655,153.922
204,0.338217,153.847
205,0.339883,153.624
206,0.34155,153.624
207,0.343217,153.497
208,0.344883,153.266
209,0.34655,153.266
210,0.348217,153.348
211,0.349883,153.363
212,0.35155,153.571
213,0.353217,153.571
214,0.354883,153.84
215,0.35655,153.683
216,0.358283,153.75
217,0.3599,153.75
218,0.36155,153.907
219,0.363217,154.085
220,0.364883,154.406
221,0.36655,154.406
222,0.368217,154.331
223,0.369883,154.197
224,0.37155,154.197
225,0.373217,154.085
226,0.374867,153.728
227,0.376533,153.556
228,0.3782,153.556
229,0.379867,153.698
230,0.381533,153.668
231,0.3832,153.996
232,0.384867,153.996
233,0.386533,154.287
234,0.3882,154.1
235,0.389867,154.123
236,0.391533,154.123
237,0.3932,154.19
238,0.394867,154.287
239,0.396533,154.287
240,0.3982,154.413
241,0.399867,154.667
242,0.401533,154.801
243,0.4032,154.801
244,0.404867,154.845
245,0.406533,154.972
246,0.4082,154.987
247,0.409867,154.987
248,0.411533,155.516
249,0.4132,156.574
250,0.414867,158.697
251,0.416533,158.697
252,0.4182,162.512
253,0.419867,168.972
254,0.421533,179.909
255,0.4232,179.909
256,0.4249,197.619
257,0.426533,225.842
258,0.4282,225.842
259,0.429867,268.66
260,0.431533,331.931
261,0.4332,421.919
262,0.43485,421.919
263,0.436517,545.599
264,0.438183,710.838
265,0.43985,924.833
266,0.441517,924.833
267,0.44325,1194.268
268,0.44485,1525
269,0.446517,1920.447
270,0.448183,1920.447
271,0.44985,2382.711
272,0.451517,2910.987
273,0.453183,2910.987
274,0.45485,3501.765
275,0.456517,4150.011
276,0.458167,4847.214
277,0.459833,4847.214
278,0.4615,5584.456
279,0.463167,6350.681
280,0.464833,7133.395
281,0.4665,7133.395
282,0.468167,7920.712
283,0.469833,8700.102999999999
284,0.4715,9459.741
285,0.473167,9459.741
286,0.474833,10188.08
287,0.476617,10874.6
288,0.478167,11509.947
289,0.479833,11509.947
290,0.4815,12085.825
291,0.483167,12596.577
292,0.484833,12596.577
293,0.4865,13037.078
294,0.488167,13404.958
295,0.489833,13699.502
296,0.4915,13699.502
297,0.493167,13920.337
298,0.494817,14069.981
299,0.496483,14150.738
300,0.49815,14150.738
301,0.499817,14166.318
302,0.5014999999999999,14122.188
303,0.503217,14023.028
304,0.504817,14023.028
305,0.506483,13873.935
306,0.50815,13681.136
307,0.509817,13681.136
308,0.511483,13450.488
309,0.51315,13187.855
310,0.514817,12899.19
311,0.516483,12899.19
312,0.51815,12588.911
313,0.519817,12261.703
314,0.521483,11921.659
315,0.52315,11921.659
316,0.524817,11572.659
317,0.526483,11218.25
318,0.52815,10861.419
319,0.529817,10861.419
320,0.531483,10504.969
321,0.53315,10150.864
322,0.534833,9801.059999999999
323,0.536483,9801.059999999999
324,0.53815,9456.851000000001
325,0.539817,9119.519
326,0.541483,9119.519
327,0.54315,8790.314
328,0.544817,8469.73
329,0.5464830000000001,8158.639
330,0.54815,8158.639
331,0.549817,7857.576
332,0.5514829999999999,7566.862
333,0.55315,7286.794
334,0.5548,7286.794
335,0.556467,7017.046
336,0.558133,6757.371
337,0.5598,6507.62
338,0.561467,6507.62
339,0.563133,6267.816
340,0.564833,6037.898
341,0.5664670000000001,6037.898
342,0.56815,5817.786
343,0.5698,5607.195
344,0.5714669999999999,5405.717
345,0.573133,5405.717
346,0.5748,5213.156
347,0.576467,5028.77
348,0.578133,4852.608
349,0.5798,4852.608
350,0.581467,4684.105
351,0.583133,4522.972
352,0.5848,4368.924
353,0.586467,4368.924
354,0.588133,4221.641
355,0.5898,4080.839
356,0.591467,4080.839
357,0.593133,3945.626
358,0.594917,3816.567
359,0.596467,3692.635
360,0.598133,3692.635
361,0.5998,3574.043
362,0.601467,3461.078
363,0.603133,3352.545
364,0.6048,3352.545
365,0.606467,3249.116
366,0.608133,3149.792
367,0.6098,3054.283
368,0.611467,3054.283
369,0.613133,2963.066
370,0.614783,2875.179
371,0.6164500000000001,2791.151
372,0.618117,2791.151
373,0.619783,2710.685
374,0.6214499999999999,2633.184
375,0.623117,2633.184
376,0.624783,2558.924
377,0.62645,2487.324
378,0.628117,2418.667
379,0.629783,2418.667
380,0.63145,2352.655
381,0.633117,2288.915
382,0.634783,2227.679
383,0.63645,2227.679
384,0.638133,2168.469
385,0.639783,2111.398
386,0.64145,2056.748
387,0.643117,2056.748
388,0.644783,2003.96
389,0.64645,1953.162
390,0.6481170000000001,1953.162
391,0.649783,1904.026
392,0.65145,1856.327
393,0.6531169999999999,1810.543
394,0.654817,1810.543
395,0.65645,1766.339
396,0.658117,1724.251
397,0.659783,1683.414
398,0.66145,1683.414
399,0.663117,1644.142
400,0.664783,1605.898
401,0.66645,1568.563
402,0.668117,1568.563
403,0.669783,1532.741
404,0.67145,1497.902
405,0.673117,1464.382
406,0.674767,1464.382
407,0.676433,1432.121
408,0.6781,1400.724
409,0.679817,1400.724
410,0.681433,1370.192
411,0.6831,1340.702
412,0.684767,1312.271
413,0.686433,1312.271
414,0.6881,1284.86
415,0.689767,1258.135
416,0.691433,1232.281
417,0.6931,1232.281
418,0.694767,1207.292
419,0.69645,1182.809
420,0.6981000000000001,1159.407
421,0.699767,1159.407
422,0.701433,1136.787
423,0.7030999999999999,1114.51
424,0.704767,1114.51
425,0.706433,1093.507
426,0.708117,1072.809
427,0.709767,1052.409
428,0.711433,1052.409
429,0.713217,1032.755
430,0.714767,1013.301
431,0.716433,994.7569999999999
432,0.7181,994.7569999999999
433,0.719767,976.622
434,0.721433,959.374
435,0.7231,942.849
436,0.7247670000000001,942.849
437,0.726433,926.353
438,0.7281,910.424
439,0.7297670000000001,894.2190000000001
440,0.731433,894.2190000000001
441,0.7331,878.58
442,0.73475,863.485
443,0.736417,863.485
444,0.738083,848.874
445,0.73975,835.046
446,0.741417,821.412
447,0.743083,821.412
448,0.74475,808.023
449,0.746433,795.096
450,0.748067,782.721
451,0.749733,782.721
452,0.7514,770.614
453,0.753067,759.02
454,0.754733,747.629
455,0.7564,747.629
456,0.758067,736.311
457,0.759733,725.321
458,0.7614,725.321
459,0.7630670000000001,714.578
460,0.764733,703.961
461,0.7664,693.694
462,0.7680670000000001,693.694
463,0.769733,683.583
464,0.7714,673.95
465,0.7730669999999999,664.853
466,0.774733,664.853
467,0.7764,655.629
468,0.778067,646.852
469,0.779733,638.1420000000001
470,0.7814,638.1420000000001
471,0.783067,629.574
472,0.784733,621.155
473,0.7864,621.155
474,0.788067,612.78
475,0.789733,604.54
476,0.7914,596.851
477,0.793067,596.851
478,0.794717,589.393
479,0.796383,582.039
480,0.79805,575.133
481,0.799717,575.133
482,0.801383,567.898
483,0.80305,560.909
484,0.804717,554.167
485,0.806383,554.167
486,0.80805,547.484
487,0.809717,541.098
488,0.811383,534.847
489,0.8130500000000001,534.847
490,0.814783,528.522
491,0.816383,522.8150000000001
492,0.8180500000000001,522.8150000000001
493,0.819717,516.914
494,0.821383,511.229
495,0.823067,506.036
496,0.824717,506.036
497,0.826383,500.388
498,0.82805,495.389
499,0.829717,490.397
500,0.831467,490.397
501,0.83305,485.256
502,0.834717,480.205
503,0.836383,475.205
504,0.83805,475.205
505,0.839717,470.243
506,0.841383,465.482
507,0.84305,465.482
508,0.8447170000000001,460.64
509,0.846383,455.841
510,0.848167,451.252
511,0.8497169999999999,451.252
512,0.851383,446.752
513,0.853067,442.624
514,0.8547,438.616
515,0.856367,438.616
516,0.858033,434.607
517,0.8597,430.644
518,0.861367,426.784
519,0.8630330000000001,426.784
520,0.8647,422.917
521,0.866367,419.11
522,0.8680330000000001,415.534
523,0.8697,415.534
524,0.871367,411.809
525,0.8730329999999999,408.411
526,0.8747,408.411
527,0.876367,405.252
528,0.878033,401.907
529,0.8797,398.889
530,0.881367,398.889
531,0.883033,395.544
532,0.8847,392.146
533,0.886367,389.069
534,0.888033,389.069
535,0.8897,385.91
536,0.891367,382.841
537,0.893033,379.98
538,0.8947000000000001,379.98
539,0.896367,377.126
540,0.898033,374.496
541,0.8997000000000001,374.496
542,0.901367,371.858
543,0.903033,369.243
544,0.9046999999999999,366.405
545,0.906367,366.405
546,0.908033,363.499
547,0.9097,361.025
548,0.911367,358.403
549,0.913033,358.403
550,0.914683,355.75
551,0.9163829999999999,353.485
552,0.918017,350.885
553,0.919683,350.885
554,0.92135,348.62
555,0.923017,346.638
556,0.924683,344.291
557,0.92635,344.291
558,0.928017,341.81
559,0.929683,339.389
560,0.93135,339.389
561,0.933067,337.109
562,0.934683,334.896
563,0.93635,332.795
564,0.938033,332.795
565,0.939683,330.612
566,0.94135,328.69
567,0.943017,326.492
568,0.9446830000000001,326.492
569,0.94635,324.585
570,0.948017,322.662
571,0.949733,320.636
572,0.95135,320.636
573,0.953017,319.064
574,0.9546829999999999,317.454
575,0.95635,317.454
576,0.958017,315.882
577,0.959683,313.93
578,0.96135,312.03
579,0.963017,312.03
580,0.964683,310.533
581,0.966467,308.879
582,0.968017,307.135
583,0.969683,307.135
584,0.97135,305.66
585,0.973017,303.566
586,0.974667,301.614
587,0.976333,301.614
588,0.978,300.184
589,0.979667,298.351
590,0.981333,298.351
591,0.983,296.906
592,0.984667,295.579
593,0.986333,294.216
594,0.988,294.216
595,0.989667,292.718
596,0.991333,291.213
597,0.993,289.649
598,0.994667,289.649
599,0.996333,288.263
600,0.998,287.235
601,0.999667,286.192
602,1.001333,286.192
603,1.003,284.806
604,1.004667,283.346
605,1.006333,281.766
606,1.008,281.766
607,1.009667,280.365
608,1.011333,279.36
609,1.013,279.36
610,1.014667,278.279
611,1.016333,277.251
612,1.018,275.947
613,1.019667,275.947
614,1.021333,274.807
615,1.023,273.548
616,1.024667,272.11
617,1.026333,272.11
618,1.028,270.918
619,1.029667,269.718
620,1.031333,268.742
621,1.033,268.742
622,1.03465,267.833
623,1.036317,266.947
624,1.037983,266.947
625,1.039633,266.008
626,1.0413,264.965
627,1.042967,263.982
628,1.044633,263.982
629,1.0463,262.916
630,1.047967,261.858
631,1.049633,261.039
632,1.051383,261.039
633,1.052967,260.174
634,1.054633,259.258
635,1.0563,258.453
636,1.057967,258.453
637,1.059633,257.269
638,1.0613,256.591
639,1.062967,255.607
640,1.064633,255.607
641,1.0663,254.445
642,1.068,253.588
643,1.069633,253.588
644,1.0713,252.604
645,1.072967,251.852
646,1.074633,250.965
647,1.0763,250.965
648,1.077967,250.146
649,1.079633,248.73
650,1.0813,247.568
651,1.082967,247.568
652,1.084733,246.793
653,1.0863,245.832
654,1.087967,245.549
655,1.089633,245.549
656,1.0913,245.005
657,1.092967,244.461
658,1.094617,244.461
659,1.096283,243.962
660,1.09795,243.232
661,1.099617,242.405
662,1.101283,242.405
663,1.10295,241.727
664,1.104617,240.795
665,1.106283,239.76
666,1.10795,239.76
667,1.109617,239.126
668,1.111283,238.404
669,1.112967,237.681
670,1.114617,237.681
671,1.116283,237.152
672,1.11795,236.593
673,1.119617,236.049
674,1.121283,236.049
675,1.12295,235.751
676,1.124617,235.148
677,1.126283,235.148
678,1.127983,234.574
679,1.129633,233.866
680,1.131283,233.136
681,1.13295,233.136
682,1.134617,232.652
683,1.136283,231.773
684,1.13795,230.998
685,1.139617,230.998
686,1.141283,230.253
687,1.14295,229.679
688,1.144617,229.277
689,1.146283,229.277
690,1.14795,228.8
691,1.149617,228.137
692,1.151283,228.137
693,1.152933,227.317
694,1.1546,226.468
695,1.156267,225.73
696,1.157933,225.73
697,1.1596,225.075
698,1.161267,224.501
699,1.162933,224.099
700,1.1646,224.099
701,1.166267,223.748
702,1.167933,223.331
703,1.16965,223.078
704,1.171267,223.078
705,1.172933,222.698
706,1.1746,222.243
707,1.176267,222.243
708,1.177933,221.819
709,1.1796,221.103
710,1.181267,220.537
711,1.182933,220.537
712,1.1846,220.038
713,1.186267,219.539
714,1.187933,219.166
715,1.1896,219.166
716,1.191267,218.809
717,1.192933,217.877
718,1.1946,217.52
719,1.196267,217.52
720,1.197933,217.125
721,1.1996,216.737
722,1.201267,216.812
723,1.203033,216.812
724,1.2046,216.156
725,1.206267,215.486
726,1.207933,215.486
727,1.2096,214.949
728,1.211267,214.107
729,1.212933,213.72
730,1.214583,213.72
731,1.21625,213.258
732,1.217917,212.796
733,1.219583,212.461
734,1.22125,212.461
735,1.222917,212.133
736,1.224583,211.88
737,1.22625,211.515
738,1.227917,211.515
739,1.229583,211.187
740,1.23125,210.971
741,1.232917,210.971
742,1.234583,210.717
743,1.23625,210.352
744,1.237917,209.995
745,1.239583,209.995
746,1.24125,209.525
747,1.242917,209.205
748,1.244583,208.654
749,1.24625,208.654
750,1.247917,208.229
751,1.249583,207.894
752,1.25125,207.365
753,1.252917,207.365
754,1.254583,207.096
755,1.25625,206.955
756,1.257917,206.426
757,1.259583,206.426
758,1.26125,206.023
759,1.262917,205.785
760,1.264583,205.785
761,1.26625,205.189
762,1.267917,204.705
763,1.269583,204.153
764,1.271267,204.153
765,1.272917,203.684
766,1.274567,203.557
767,1.276233,203.505
768,1.2779,203.505
769,1.279567,203.632
770,1.281233,203.46
771,1.2829,202.976
772,1.284567,202.976
773,1.286233,202.566
774,1.2879,201.866
775,1.289567,201.866
776,1.291233,201.508
777,1.2929,201.352
778,1.294567,201.128
779,1.296233,201.128
780,1.2979,201.166
781,1.299567,200.756
782,1.301233,200.339
783,1.3029,200.339
784,1.304567,200.175
785,1.306233,199.847
786,1.3079,199.817
787,1.309567,199.817
788,1.311233,199.489
789,1.3129,198.975
790,1.314567,198.461
791,1.316233,198.461
792,1.3179,198.036
793,1.319567,197.768
794,1.32135,197.411
795,1.3229,197.411
796,1.324567,197.433
797,1.326233,197.269
798,1.3279,197.269
799,1.329567,197.262
800,1.331217,197.098
801,1.332883,196.546
802,1.334533,196.546
803,1.3362,196.189
804,1.337867,195.622
805,1.339533,195.406
806,1.3412,195.406
807,1.342867,195.295
808,1.344533,194.989
809,1.3462,194.989
810,1.347867,194.974
811,1.349533,194.661
812,1.3512,194.341
813,1.352867,194.341
814,1.354533,193.968
815,1.3562,193.566
816,1.357867,193.194
817,1.359533,193.194
818,1.3612,192.784
819,1.362867,192.791
820,1.364533,192.463
821,1.3662,192.463
822,1.367867,192.329
823,1.369533,192.367
824,1.3712,192.367
825,1.372867,192.054
826,1.374533,191.92
827,1.3762,191.964
828,1.377867,191.964
829,1.379533,191.756
830,1.3812,191.443
831,1.382867,191.182
832,1.384533,191.182
833,1.3862,190.541
834,1.387867,190.064
835,1.389533,190.161
836,1.3912,190.161
837,1.392867,190.049
838,1.394517,189.871
839,1.396183,189.915
840,1.39785,189.915
841,1.399517,189.617
842,1.401183,189.528
843,1.40285,189.528
844,1.404517,189.699
845,1.406267,189.342
846,1.40785,189.207
847,1.409517,189.207
848,1.411183,189.081
849,1.41285,188.76
850,1.414533,188.462
851,1.4162,188.462
852,1.41785,187.933
853,1.419517,187.621
854,1.421183,187.166
855,1.42285,187.166
856,1.424517,187.01
857,1.426183,186.92
858,1.42785,186.92
859,1.429517,186.674
860,1.431183,186.756
861,1.43285,186.749
862,1.434517,186.749
863,1.436183,186.563
864,1.43785,186.518
865,1.439633,186.317
866,1.441183,186.317
867,1.44285,186.108
868,1.444517,185.877
869,1.446183,185.408
870,1.44785,185.408
871,1.449517,184.916
872,1.451183,184.618
873,1.45285,184.558
874,1.4545,184.558
875,1.456167,184.678
876,1.457833,184.953
877,1.4595,184.953
878,1.461167,184.946
879,1.462833,184.774
880,1.4645,184.581
881,1.466167,184.581
882,1.467833,184.253
883,1.4695,183.873
884,1.471167,183.545
885,1.472833,183.545
886,1.4745,183.269
887,1.476167,183.277
888,1.477833,183.403
889,1.4795,183.403
890,1.481167,183.56
891,1.482833,183.5
892,1.4845,183.5
893,1.486167,183.366
894,1.487833,182.874
895,1.4895,182.532
896,1.491167,182.532
897,1.49285,182.346
898,1.4945,181.913
899,1.496167,181.757
900,1.497833,181.757
901,1.4995,181.735
902,1.501167,181.362
903,1.502833,181.027
904,1.5045,181.027
905,1.506167,181.071
906,1.507833,180.908
907,1.5095,180.922
908,1.511167,180.922
909,1.512833,180.99
910,1.514483,180.751
911,1.516167,180.751
912,1.517817,180.349
913,1.519483,180.17
914,1.52115,180.028
915,1.522817,180.028
916,1.52455,180.14
917,1.52615,179.79
918,1.527817,179.663
919,1.529483,179.663
920,1.53115,179.529
921,1.532817,179.105
922,1.534483,179.596
923,1.53615,179.596
924,1.537817,179.552
925,1.539483,179.514
926,1.54125,179.827
927,1.542817,179.827
928,1.544483,179.358
929,1.54615,179.052
930,1.547817,179.052
931,1.549483,178.657
932,1.55115,178.151
933,1.552817,178.061
934,1.554483,178.061
935,1.55615,178.114
936,1.557933,178.143
937,1.559483,177.838
938,1.56115,177.838
939,1.562817,177.421
940,1.564483,176.959
941,1.56615,176.959
942,1.567817,176.907
943,1.5695,177.041
944,1.571167,176.974
945,1.572817,176.974
946,1.574467,177.078
947,1.576133,176.974
948,1.5778,176.817
949,1.579467,176.817
950,1.581133,176.914
