"ID","sea_time","fid_signal"
1,0,28.225
2,0.0017,28.22
3,0.003333,28.213
4,0.005,28.208
5,0.006667,28.208
6,0.008333,28.185
7,0.01,28.127
8,0.011667,28.063
9,0.013333,28.063
10,0.015,28.009
11,0.016667,27.997
12,0.018433,28.037
13,0.02,28.037
14,0.021667,28.088
15,0.023333,28.133
16,0.025,28.133
17,0.026667,28.165
18,0.028333,28.187
19,0.030017,28.201
20,0.031667,28.201
21,0.033333,28.215
22,0.035,28.219
23,0.036667,28.22
24,0.038317,28.22
25,0.039983,28.231
26,0.04165,28.24
27,0.043317,28.246
28,0.044983,28.246
29,0.04665,28.256
30,0.048317,28.251
31,0.049983,28.245
32,0.05165,28.245
33,0.053317,28.243
34,0.054983,28.237
35,0.05665,28.237
36,0.058317,28.237
37,0.059983,28.232
38,0.06165,28.234
39,0.063317,28.234
40,0.064983,28.232
41,0.06665,28.235
42,0.068317,28.24
43,0.069983,28.24
44,0.07165000000000001,28.239
45,0.07331699999999999,28.241
46,0.07498299999999999,28.235
47,0.07665,28.235
48,0.078333,28.233
49,0.079983,28.232
50,0.08165,28.232
51,0.083317,28.232
52,0.084983,28.234
53,0.08665,28.231
54,0.08831700000000001,28.231
55,0.08998299999999999,28.229
56,0.09165,28.225
57,0.093317,28.233
58,0.094983,28.233
59,0.09665,28.236
60,0.09835000000000001,28.24
61,0.099967,28.244
62,0.101633,28.244
63,0.1033,28.244
64,0.104967,28.251
65,0.106633,28.254
66,0.1083,28.254
67,0.109967,28.249
68,0.111633,28.24
69,0.1133,28.24
70,0.114967,28.231
71,0.116633,28.228
72,0.1183,28.226
73,0.119967,28.226
74,0.121633,28.232
75,0.1233,28.232
76,0.124967,28.229
77,0.126633,28.229
78,0.1283,28.235
79,0.129967,28.233
80,0.131633,28.228
81,0.1333,28.228
82,0.134967,28.231
83,0.13675,28.22
84,0.1383,28.22
85,0.139967,28.217
86,0.141633,28.218
87,0.1433,28.218
88,0.144967,28.218
89,0.146633,28.221
90,0.1483,28.223
91,0.149967,28.224
92,0.151633,28.224
93,0.1533,28.228
94,0.154967,28.239
95,0.156617,28.243
96,0.158283,28.243
97,0.15995,28.242
98,0.161617,28.243
99,0.163283,28.243
100,0.16495,28.237
101,0.166617,28.24
102,0.168283,28.252
103,0.16995,28.252
104,0.17165,28.247
105,0.173283,28.241
106,0.17495,28.23
107,0.176617,28.23
108,0.178283,28.223
109,0.17995,28.226
110,0.181617,28.228
111,0.183283,28.228
112,0.18495,28.23
113,0.186617,28.229
114,0.188283,28.232
115,0.18995,28.232
116,0.191617,28.228
117,0.193283,28.231
118,0.19495,28.231
119,0.196617,28.226
120,0.198283,28.224
121,0.19995,28.229
122,0.201617,28.229
123,0.203283,28.228
124,0.20495,28.235
125,0.206617,28.231
126,0.208283,28.231
127,0.20995,28.23
128,0.211617,28.23
129,0.213283,28.225
130,0.21495,28.225
131,0.2166,28.226
132,0.218267,28.227
133,0.219933,28.227
134,0.221633,28.232
135,0.223267,28.23
136,0.224933,28.225
137,0.2266,28.225
138,0.228267,28.225
139,0.229933,28.224
140,0.2316,28.225
141,0.233267,28.225
142,0.234933,28.238
143,0.2366,28.242
144,0.2383,28.241
145,0.239933,28.241
146,0.2416,28.238
147,0.243283,28.226
148,0.244967,28.227
149,0.2466,28.227
150,0.248267,28.238
151,0.249933,28.258
152,0.2516,28.258
153,0.253267,28.278
154,0.254983,28.288
155,0.2566,28.288
156,0.258267,28.288
157,0.259933,28.288
158,0.261583,28.291
159,0.26325,28.295
160,0.264917,28.295
161,0.266583,28.308
162,0.26825,28.311
163,0.269917,28.318
164,0.271583,28.318
165,0.27325,28.328
166,0.274917,28.336
167,0.276567,28.336
168,0.278233,28.359
169,0.2799,28.382
170,0.281567,28.409
171,0.283233,28.409
172,0.2849,28.435
173,0.286567,28.463
174,0.288233,28.494
175,0.2899,28.494
176,0.291567,28.531
177,0.293233,28.579
178,0.2949,28.628
179,0.296567,28.628
180,0.298233,28.683
181,0.2999,28.748
182,0.301567,28.819
183,0.303233,28.819
184,0.3049,28.902
185,0.306567,28.999
186,0.308233,28.999
187,0.3099,29.106
188,0.311583,29.238
189,0.313233,29.396
190,0.314917,29.396
191,0.316567,29.59
192,0.318233,29.83
193,0.3199,30.119
194,0.321567,30.119
195,0.323233,30.481
196,0.3249,30.913
197,0.326567,31.439
198,0.328233,31.439
199,0.3299,32.051
200,0.331567,32.75
201,0.333233,32.75
202,0.3349,33.53
203,0.336567,34.353
204,0.338217,35.215
205,0.339967,35.215
206,0.34155,36.068
207,0.343217,36.881
208,0.344883,37.63
209,0.34655,37.63
210,0.348217,38.262
211,0.349883,38.763
212,0.35155,39.113
213,0.353217,39.113
214,0.354883,39.307
215,0.35655,39.34
216,0.358217,39.34
217,0.359883,39.216
218,0.36155,38.961
219,0.363217,38.574
220,0.364883,38.574
221,0.36655,38.094
222,0.368217,37.535
223,0.369883,36.915
224,0.37155,36.915
225,0.373333,36.263
226,0.374883,35.598
227,0.37655,34.941
228,0.378217,34.941
229,0.379883,34.302
230,0.38155,33.691
231,0.383217,33.109
232,0.384883,33.109
233,0.38655,32.569
234,0.388217,32.062
235,0.389883,32.062
236,0.39155,31.599
237,0.393217,31.189
238,0.394883,30.808
239,0.396533,30.808
240,0.398217,30.469
241,0.399867,30.175
242,0.401533,29.905
243,0.4032,29.905
244,0.404867,29.674
245,0.406533,29.476
246,0.4082,29.298
247,0.409867,29.298
248,0.411533,29.147
249,0.4132,29.017
250,0.414867,29.017
251,0.416533,28.899
252,0.4182,28.796
253,0.419867,28.708
254,0.421533,28.708
255,0.4232,28.63
256,0.424867,28.564
257,0.426533,28.511
258,0.4282,28.511
259,0.429867,28.471
260,0.431533,28.429
261,0.4332,28.394
262,0.434867,28.394
263,0.436533,28.356
264,0.4382,28.318
265,0.439867,28.302
266,0.441533,28.302
267,0.4432,28.286
268,0.444867,28.275
269,0.446533,28.275
270,0.4482,28.27
271,0.449867,28.255
272,0.451533,28.245
273,0.4532,28.245
274,0.454883,28.239
275,0.45655,28.23
276,0.4582,28.226
277,0.45985,28.226
278,0.461517,28.224
279,0.463183,28.223
280,0.46485,28.218
281,0.466517,28.218
282,0.468183,28.216
283,0.46985,28.217
284,0.471517,28.217
285,0.473183,28.217
286,0.474967,28.222
287,0.476517,28.222
288,0.478183,28.222
289,0.47985,28.228
290,0.481517,28.229
291,0.483183,28.231
292,0.48485,28.231
293,0.486517,28.232
294,0.488183,28.225
295,0.48985,28.224
296,0.491633,28.224
297,0.493183,28.227
298,0.49485,28.227
299,0.496517,28.232
300,0.498183,28.232
301,0.49985,28.24
302,0.501517,28.239
303,0.503183,28.239
304,0.50485,28.235
305,0.506517,28.232
306,0.5081830000000001,28.218
307,0.50985,28.218
308,0.511517,28.211
309,0.5131829999999999,28.212
310,0.51485,28.209
311,0.5165,28.209
312,0.518167,28.212
313,0.519833,28.214
314,0.5215,28.22
315,0.523167,28.22
316,0.524833,28.222
317,0.5265,28.226
318,0.5281670000000001,28.226
319,0.529833,28.229
320,0.531517,28.227
321,0.533233,28.228
322,0.534833,28.228
323,0.5365,28.232
324,0.538167,28.231
325,0.5398500000000001,28.23
326,0.5415,28.23
327,0.543167,28.228
328,0.544833,28.224
329,0.5465,28.233
330,0.548167,28.233
331,0.549833,28.233
332,0.5515,28.235
333,0.55315,28.235
334,0.554817,28.232
335,0.5564829999999999,28.223
336,0.55815,28.223
337,0.559817,28.223
338,0.561483,28.221
339,0.56315,28.224
340,0.564817,28.221
341,0.566483,28.221
342,0.56815,28.217
343,0.569817,28.22
344,0.571483,28.217
345,0.57315,28.217
346,0.5748,28.219
347,0.576533,28.22
348,0.578133,28.219
349,0.5798,28.219
350,0.581467,28.223
351,0.583133,28.228
352,0.5848,28.228
353,0.586467,28.226
354,0.588133,28.228
355,0.5898,28.223
356,0.591467,28.223
357,0.593217,28.219
358,0.5948,28.228
359,0.596467,28.226
360,0.598133,28.226
361,0.5998,28.232
362,0.601467,28.231
363,0.603167,28.233
364,0.6048,28.233
365,0.606467,28.24
366,0.60815,28.248
367,0.6099,28.258
368,0.611467,28.258
369,0.613133,28.252
370,0.6148,28.253
371,0.616467,28.253
372,0.618133,28.25
373,0.6198,28.252
374,0.621467,28.248
375,0.623133,28.248
376,0.6248,28.245
377,0.626567,28.242
378,0.6281330000000001,28.229
379,0.6298,28.229
380,0.631467,28.237
381,0.6331329999999999,28.231
382,0.6348,28.236
383,0.636467,28.236
384,0.638117,28.244
385,0.639783,28.246
386,0.64145,28.246
387,0.643117,28.251
388,0.644783,28.251
389,0.64645,28.253
390,0.6481170000000001,28.253
391,0.649783,28.253
392,0.65145,28.259
393,0.6531169999999999,28.261
394,0.654783,28.261
395,0.65645,28.269
396,0.658117,28.27
397,0.659783,28.269
398,0.66145,28.269
399,0.663117,28.267
400,0.664783,28.266
401,0.66645,28.266
402,0.668117,28.267
403,0.669783,28.272
404,0.67145,28.277
405,0.673117,28.277
406,0.674817,28.277
407,0.67645,28.284
408,0.678117,28.286
409,0.679783,28.286
410,0.68145,28.294
411,0.683117,28.302
412,0.684783,28.304
413,0.686467,28.304
414,0.688117,28.306
415,0.689783,28.306
416,0.69145,28.306
417,0.693117,28.306
418,0.694767,28.304
419,0.696433,28.309
420,0.6981000000000001,28.309
421,0.699767,28.317
422,0.701433,28.326
423,0.7030999999999999,28.336
424,0.704767,28.336
425,0.706433,28.339
426,0.7081,28.335
427,0.709767,28.34
428,0.711483,28.34
429,0.7131,28.344
430,0.7147829999999999,28.353
431,0.716433,28.366
432,0.7181,28.366
433,0.719767,28.369
434,0.721433,28.373
435,0.7231,28.373
436,0.7247670000000001,28.376
437,0.726433,28.379
438,0.72815,28.387
439,0.7297670000000001,28.387
440,0.731433,28.389
441,0.7331,28.389
442,0.7347669999999999,28.395
443,0.736433,28.395
444,0.7381,28.399
445,0.739767,28.411
446,0.741433,28.428
447,0.7431,28.428
448,0.7448669999999999,28.434
449,0.746433,28.437
450,0.7481,28.437
451,0.749767,28.44
452,0.751433,28.44
453,0.753117,28.443
454,0.754767,28.443
455,0.756417,28.451
456,0.758083,28.454
457,0.75975,28.455
458,0.761417,28.455
459,0.763083,28.463
460,0.76475,28.467
461,0.766417,28.479
462,0.768083,28.479
463,0.76975,28.487
464,0.771417,28.49
465,0.773083,28.497
466,0.77475,28.497
467,0.776417,28.504
468,0.778083,28.517
469,0.7797500000000001,28.517
470,0.781433,28.526
471,0.783083,28.54
472,0.7847499999999999,28.546
473,0.786417,28.546
474,0.788083,28.553
475,0.78975,28.56
476,0.791417,28.563
477,0.793083,28.563
478,0.79475,28.567
479,0.796417,28.568
480,0.798083,28.581
481,0.79975,28.581
482,0.801417,28.591
483,0.803083,28.6
484,0.80475,28.6
485,0.8064170000000001,28.613
486,0.808083,28.614
487,0.80975,28.616
488,0.8114170000000001,28.616
489,0.813083,28.624
490,0.814733,28.627
491,0.8164,28.641
492,0.818067,28.641
493,0.819733,28.649
494,0.821417,28.652
495,0.823067,28.664
496,0.824733,28.664
497,0.8264,28.672
498,0.828067,28.686
499,0.829767,28.697
500,0.8314,28.697
501,0.833067,28.708
502,0.8347329999999999,28.722
503,0.8364,28.722
504,0.838067,28.734
505,0.839733,28.75
506,0.8414,28.766
507,0.84305,28.766
508,0.8447170000000001,28.775
509,0.846433,28.782
510,0.84805,28.792
511,0.8497169999999999,28.792
512,0.851383,28.798
513,0.85305,28.804
514,0.8547169999999999,28.817
515,0.856383,28.817
516,0.85805,28.829
517,0.859717,28.841
518,0.861383,28.841
519,0.86315,28.853
520,0.864717,28.87
521,0.866383,28.884
522,0.86805,28.884
523,0.869717,28.896
524,0.871383,28.917
525,0.87305,28.928
526,0.874717,28.928
527,0.876383,28.939
528,0.878033,28.952
529,0.8797,28.958
530,0.881367,28.958
531,0.883033,28.974
532,0.8847,28.991
533,0.886367,29.009
534,0.888033,29.009
535,0.889717,29.023
536,0.891367,29.031
537,0.893033,29.031
538,0.894717,29.036
539,0.896367,29.046
540,0.898033,29.061
541,0.8997000000000001,29.061
542,0.901367,29.08
543,0.903033,29.096
544,0.9046999999999999,29.107
545,0.906367,29.107
546,0.908033,29.117
547,0.9097,29.126
548,0.911367,29.146
549,0.913033,29.146
550,0.9147,29.165
551,0.916367,29.184
552,0.918033,29.184
553,0.9197,29.204
554,0.921367,29.215
555,0.923033,29.229
556,0.9247,29.229
557,0.9263670000000001,29.238
558,0.928033,29.243
559,0.9297,29.259
560,0.9313669999999999,29.259
561,0.933033,29.272
562,0.9347,29.295
563,0.93635,29.32
564,0.938017,29.32
565,0.939683,29.337
566,0.94135,29.354
567,0.9430500000000001,29.354
568,0.9446830000000001,29.367
569,0.94635,29.38
570,0.948133,29.396
571,0.9496830000000001,29.396
572,0.95135,29.415
573,0.953017,29.43
574,0.9546829999999999,29.445
575,0.95635,29.445
576,0.958017,29.461
577,0.959683,29.478
578,0.96135,29.495
579,0.963017,29.495
580,0.964767,29.512
581,0.96635,29.532
582,0.968017,29.553
583,0.969683,29.553
584,0.97135,29.571
585,0.973017,29.595
586,0.974683,29.595
587,0.9763500000000001,29.619
588,0.978017,29.638
589,0.979683,29.66
590,0.98145,29.66
591,0.983017,29.677
592,0.984683,29.682
593,0.9863499999999999,29.698
594,0.988017,29.698
595,0.989683,29.715
596,0.99135,29.728
597,0.993017,29.756
598,0.994683,29.756
599,0.99635,29.769
600,0.998,29.787
601,0.999667,29.787
602,1.001333,29.804
603,1.003,29.818
604,1.004667,29.835
605,1.006333,29.835
606,1.008,29.848
607,1.009667,29.868
608,1.011333,29.882
609,1.013,29.882
610,1.014667,29.9
611,1.016333,29.919
612,1.018,29.939
613,1.019667,29.939
614,1.021333,29.964
615,1.023,29.984
616,1.024667,30.001
617,1.026333,30.001
618,1.028017,30.014
619,1.029667,30.035
620,1.031367,30.035
621,1.033,30.058
622,1.034667,30.081
623,1.036333,30.103
624,1.038,30.103
625,1.039667,30.119
626,1.041333,30.136
627,1.043,30.159
628,1.044667,30.159
629,1.046333,30.185
630,1.048,30.21
631,1.049667,30.238
632,1.051333,30.238
633,1.053,30.254
634,1.054667,30.279
635,1.056333,30.279
636,1.057983,30.299
637,1.05965,30.315
638,1.061317,30.343
639,1.062983,30.343
640,1.06465,30.352
641,1.0664,30.368
642,1.067983,30.389
643,1.06965,30.389
644,1.071317,30.412
645,1.072983,30.442
646,1.07465,30.473
647,1.076317,30.473
648,1.077983,30.497
649,1.07965,30.518
650,1.081317,30.539
651,1.082983,30.539
652,1.08465,30.556
653,1.086317,30.576
654,1.087983,30.576
655,1.08965,30.603
656,1.091317,30.625
657,1.092983,30.646
658,1.09465,30.646
659,1.096317,30.669
660,1.097983,30.69
661,1.099767,30.714
662,1.101317,30.714
663,1.102983,30.734
664,1.10465,30.751
665,1.106317,30.773
666,1.108017,30.773
667,1.10965,30.797
668,1.111317,30.824
669,1.112983,30.824
670,1.11465,30.857
671,1.1163,30.878
672,1.117983,30.903
673,1.119633,30.903
674,1.1213,30.923
675,1.122967,30.945
676,1.124633,30.969
677,1.1263,30.969
678,1.127967,30.991
679,1.129633,31.021
680,1.1313,31.048
681,1.132967,31.048
682,1.134617,31.081
683,1.136283,31.108
684,1.13795,31.108
685,1.139617,31.133
686,1.141283,31.155
687,1.14295,31.174
688,1.144617,31.174
689,1.146283,31.197
690,1.14795,31.22
691,1.149617,31.243
692,1.151283,31.243
693,1.15295,31.259
694,1.154617,31.281
695,1.156283,31.307
696,1.15795,31.307
697,1.159617,31.331
698,1.161283,31.359
699,1.16295,31.386
700,1.164617,31.386
701,1.166283,31.408
702,1.16795,31.43
703,1.169617,31.43
704,1.171283,31.456
705,1.172967,31.482
706,1.174617,31.508
707,1.176267,31.508
708,1.177933,31.54
709,1.1796,31.562
710,1.181317,31.586
711,1.182933,31.586
712,1.184667,31.611
713,1.186267,31.632
714,1.187933,31.658
715,1.1896,31.658
716,1.191267,31.683
717,1.192933,31.713
718,1.1946,31.713
719,1.196267,31.742
720,1.197933,31.775
721,1.1996,31.806
722,1.201267,31.806
723,1.202933,31.828
724,1.2046,31.852
725,1.206267,31.87
726,1.207933,31.87
727,1.2096,31.894
728,1.211267,31.926
729,1.212933,31.945
730,1.2146,31.945
731,1.216267,31.98
732,1.218,32.007
733,1.2196,32.032
734,1.221267,32.032
735,1.222933,32.073
736,1.2246,32.095
737,1.226267,32.095
738,1.227933,32.117
739,1.2296,32.144
740,1.231267,32.163
741,1.232933,32.163
742,1.234583,32.191
743,1.23625,32.22
744,1.237917,32.247
745,1.239583,32.247
746,1.24125,32.276
747,1.242917,32.298
748,1.244583,32.325
749,1.24625,32.325
750,1.247917,32.351
751,1.249583,32.383
752,1.25125,32.383
753,1.252917,32.416
754,1.254633,32.451
755,1.25625,32.482
756,1.257917,32.482
757,1.259583,32.508
758,1.26125,32.536
759,1.262917,32.556
760,1.264583,32.556
761,1.26625,32.578
762,1.267917,32.602
763,1.269583,32.633
764,1.27125,32.633
765,1.272917,32.669
766,1.274583,32.701
767,1.27625,32.739
768,1.277917,32.739
769,1.279583,32.771
770,1.28125,32.795
771,1.282917,32.795
772,1.284583,32.826
773,1.28625,32.851
774,1.287917,32.879
775,1.289583,32.879
776,1.29125,32.912
777,1.292917,32.942
778,1.294583,32.97
779,1.296233,32.97
780,1.2979,33
781,1.299567,33.021
782,1.301233,33.042
783,1.302967,33.042
784,1.304567,33.069
785,1.306233,33.091
786,1.3079,33.091
787,1.309567,33.125
788,1.311233,33.157
789,1.3129,33.184
790,1.314567,33.184
791,1.316233,33.215
792,1.3179,33.243
793,1.319567,33.274
794,1.321233,33.274
795,1.3229,33.303
796,1.324567,33.333
797,1.326267,33.366
798,1.3279,33.366
799,1.329567,33.393
800,1.331233,33.423
801,1.3329,33.447
802,1.334567,33.447
803,1.336333,33.465
804,1.3379,33.486
805,1.339567,33.486
806,1.341233,33.509
807,1.3429,33.542
808,1.344567,33.571
809,1.34625,33.571
810,1.3479,33.612
811,1.349567,33.643
812,1.351233,33.668
813,1.3529,33.668
814,1.354567,33.702
815,1.356233,33.726
816,1.357883,33.76
817,1.35955,33.76
818,1.361217,33.795
819,1.362883,33.831
820,1.36455,33.831
821,1.366217,33.873
822,1.367883,33.902
823,1.36955,33.932
824,1.371217,33.932
825,1.372883,33.955
826,1.37455,33.98
827,1.376217,34.011
828,1.377883,34.011
829,1.37955,34.038
830,1.381217,34.073
831,1.382883,34.106
832,1.38455,34.106
833,1.386217,34.142
834,1.387883,34.181
835,1.38955,34.181
836,1.391217,34.213
837,1.392883,34.236
838,1.39455,34.265
839,1.396217,34.265
840,1.397933,34.289
841,1.39955,34.309
842,1.401217,34.342
843,1.402883,34.342
844,1.40455,34.369
845,1.406217,34.394
846,1.407883,34.434
847,1.40955,34.434
848,1.411217,34.464
849,1.412883,34.494
850,1.41455,34.532
851,1.4162,34.532
852,1.417867,34.555
853,1.419533,34.582
854,1.421217,34.582
855,1.422867,34.609
856,1.424533,34.64
857,1.426183,34.673
858,1.42785,34.673
859,1.429517,34.703
860,1.431183,34.736
861,1.43285,34.765
862,1.434517,34.765
863,1.436183,34.79
864,1.437933,34.817
865,1.439517,34.851
866,1.441183,34.851
867,1.44285,34.878
868,1.444517,34.91
869,1.446183,34.91
870,1.44785,34.944
871,1.449517,34.969
872,1.451183,34.99
873,1.45285,34.99
874,1.454617,35.02
875,1.456183,35.043
876,1.45785,35.068
877,1.459517,35.068
878,1.461183,35.097
879,1.46285,35.126
880,1.464517,35.158
881,1.466183,35.158
882,1.46785,35.191
883,1.469517,35.227
884,1.471283,35.259
885,1.47285,35.259
886,1.474533,35.298
887,1.476233,35.325
888,1.477833,35.325
889,1.4795,35.352
890,1.481167,35.378
891,1.482833,35.401
892,1.4845,35.401
893,1.486167,35.436
894,1.487833,35.472
895,1.4895,35.512
896,1.491167,35.512
897,1.492833,35.549
898,1.4945,35.575
899,1.496167,35.608
900,1.497833,35.608
901,1.4995,35.632
902,1.501167,35.659
903,1.502833,35.659
904,1.5045,35.695
905,1.506167,35.724
906,1.507833,35.754
907,1.5095,35.754
908,1.511167,35.786
909,1.512833,35.814
910,1.5145,35.843
911,1.516167,35.843
912,1.517833,35.873
913,1.5195,35.899
914,1.521183,35.929
915,1.522833,35.929
916,1.5245,35.965
917,1.526167,36.001
918,1.527833,36.001
919,1.5295,36.035
920,1.531167,36.067
921,1.532833,36.089
922,1.534483,36.089
923,1.53615,36.116
924,1.537817,36.144
925,1.539567,36.18
926,1.54115,36.18
927,1.542817,36.217
928,1.5445,36.247
929,1.54615,36.278
930,1.54785,36.278
931,1.549483,36.304
932,1.55115,36.333
933,1.552817,36.367
934,1.554483,36.367
935,1.556217,36.394
936,1.557817,36.425
937,1.559483,36.425
938,1.56115,36.46
939,1.562817,36.495
940,1.564483,36.525
941,1.56615,36.525
942,1.567817,36.553
943,1.569483,36.573
944,1.57115,36.596
945,1.57285,36.596
946,1.574483,36.63
947,1.57615,36.66
948,1.577817,36.695
949,1.579483,36.695
950,1.58115,36.728
951,1.582817,36.762
952,1.584483,36.762
953,1.58615,36.795
954,1.587817,36.828
955,1.5896,36.863
956,1.59115,36.863
957,1.592817,36.894
958,1.594467,36.928
959,1.596133,36.957
960,1.5978,36.957
961,1.599467,36.985
962,1.601133,37.015
963,1.6028,37.04
964,1.604467,37.04
965,1.606133,37.065
966,1.6078,37.091
967,1.609467,37.12
968,1.611133,37.12
969,1.6128,37.157
970,1.614467,37.194
971,1.616133,37.194
972,1.6178,37.224
973,1.619467,37.248
974,1.621167,37.265
975,1.6228,37.265
976,1.624467,37.291
977,1.626133,37.323
978,1.6278,37.354
979,1.629467,37.354
980,1.631133,37.386
981,1.6328,37.419
982,1.634467,37.451
983,1.636133,37.451
984,1.6378,37.479
985,1.639467,37.506
986,1.641133,37.506
987,1.6428,37.535
988,1.644467,37.56
989,1.646133,37.594
990,1.6478,37.594
991,1.649467,37.624
992,1.651133,37.646
993,1.6528,37.674
994,1.654467,37.674
995,1.656117,37.702
996,1.657783,37.731
997,1.65945,37.767
998,1.661117,37.767
999,1.662783,37.798
1000,1.66445,37.827
1001,1.666117,37.857
1002,1.667783,37.857
1003,1.66945,37.885
1004,1.671117,37.912
1005,1.672783,37.912
1006,1.67455,37.939
1007,1.676117,37.969
1008,1.677783,37.994
1009,1.67945,37.994
1010,1.681117,38.029
1011,1.682783,38.061
1012,1.68445,38.092
1013,1.686117,38.092
