"ID","sea_time","fid_signal"
1,0,1175.925
2,0.001667,1175.925
3,0.003333,1176.819
4,0.005,1179.129
5,0.006667,1180.396
6,0.008333,1180.396
7,0.01,1178.458
8,0.011667,1178.086
9,0.013333,1177.117
10,0.015,1177.117
11,0.016667,1177.862
12,0.018333,1182.705
13,0.02,1182.109
14,0.021667,1182.109
15,0.023333,1181.96
16,0.024983,1178.16
17,0.02665,1178.16
18,0.028317,1172.647
19,0.029983,1173.168
20,0.03165,1173.541
21,0.033317,1173.541
22,0.034983,1176.447
23,0.03665,1179.65
24,0.038383,1179.65
25,0.039983,1179.65
26,0.04165,1178.905
27,0.043317,1178.235
28,0.044983,1175.925
29,0.04665,1175.925
30,0.048317,1176.447
31,0.05,1179.576
32,0.05165,1182.705
33,0.053317,1182.705
34,0.055,1181.886
35,0.05665,1180.992
36,0.058317,1180.992
37,0.059983,1178.98
38,0.06165,1174.882
39,0.063317,1179.203
40,0.064983,1179.203
41,0.06665,1178.011
42,0.068317,1176.596
43,0.069983,1177.862
44,0.07173300000000001,1177.862
45,0.07331699999999999,1176.447
46,0.075,1177.564
47,0.07665,1175.627
48,0.078317,1175.627
49,0.079983,1174.36
50,0.08165,1173.69
51,0.083317,1173.69
52,0.084967,1173.094
53,0.086633,1175.18
54,0.0883,1173.765
55,0.08996700000000001,1173.765
56,0.09163300000000001,1174.063
57,0.09329999999999999,1175.18
58,0.094967,1174.137
59,0.096633,1174.137
60,0.0983,1174.882
61,0.099967,1174.807
62,0.101633,1174.733
63,0.1033,1174.733
64,0.104967,1173.317
65,0.106633,1174.212
66,0.1083,1174.212
67,0.109967,1171.455
68,0.111633,1172.796
69,0.1133,1176
70,0.114967,1176
71,0.116633,1173.988
72,0.118317,1173.094
73,0.119967,1171.38
74,0.121683,1171.38
75,0.1233,1171.306
76,0.124967,1175.329
77,0.126633,1177.862
78,0.1283,1177.862
79,0.129967,1177.415
80,0.131633,1175.627
81,0.1333,1175.702
82,0.134967,1175.702
83,0.136633,1179.501
84,0.1383,1178.607
85,0.139967,1178.607
86,0.141633,1180.843
87,0.1433,1177.341
88,0.14495,1171.38
89,0.146617,1171.38
90,0.148283,1171.902
91,0.14995,1168.773
92,0.151617,1171.827
93,0.153283,1171.827
94,0.15495,1176.372
95,0.156617,1174.51
96,0.158283,1178.682
97,0.15995,1178.682
98,0.161617,1177.043
99,0.163283,1174.36
100,0.16495,1174.36
101,0.166617,1176
102,0.168283,1174.36
103,0.16995,1174.882
104,0.171617,1174.882
105,0.173283,1177.266
106,0.17495,1178.086
107,0.176617,1175.925
108,0.178283,1175.925
109,0.17995,1176.298
110,0.181617,1174.659
111,0.183283,1173.69
112,0.18495,1173.69
113,0.1866,1176.074
114,0.188267,1176.596
115,0.190033,1176.968
116,0.1916,1176.968
117,0.193267,1179.129
118,0.194933,1182.78
119,0.196633,1182.78
120,0.198267,1183.972
121,0.199933,1185.462
122,0.2016,1182.631
123,0.203267,1182.631
124,0.204933,1179.054
125,0.206583,1175.702
126,0.20825,1173.765
127,0.209917,1173.765
128,0.211583,1174.286
129,0.21325,1174.286
130,0.214917,1176.521
131,0.216583,1176.521
132,0.21825,1178.756
133,0.219917,1179.65
134,0.221583,1179.65
135,0.22325,1177.341
136,0.224917,1177.713
137,0.226583,1177.192
138,0.22825,1177.192
139,0.229917,1177.862
140,0.231583,1177.713
141,0.23325,1173.839
142,0.234917,1173.839
143,0.236583,1171.902
144,0.23825,1173.541
145,0.239917,1176.298
146,0.241583,1176.298
147,0.24325,1178.235
148,0.244917,1178.98
149,0.246583,1175.553
150,0.24825,1175.553
151,0.249933,1175.925
152,0.251583,1176.372
153,0.25325,1176.372
154,0.254917,1174.659
155,0.256583,1176.447
156,0.25825,1176.298
157,0.259917,1176.298
158,0.2616,1174.286
159,0.263283,1176.149
160,0.264917,1172.274
161,0.266567,1172.274
162,0.268233,1170.188
163,0.2699,1173.466
164,0.271567,1174.584
165,0.273233,1174.584
166,0.274967,1180.396
167,0.276567,1183.897
168,0.278233,1183.897
169,0.2799,1183.972
170,0.281567,1180.768
171,0.283233,1178.16
172,0.2849,1178.16
173,0.286567,1176
174,0.288233,1175.627
175,0.2899,1180.023
176,0.291567,1180.023
177,0.293233,1182.407
178,0.2949,1183.972
179,0.296567,1182.407
180,0.298233,1182.407
181,0.2999,1179.948
182,0.301567,1177.937
183,0.303233,1177.937
184,0.3049,1175.627
185,0.306567,1176
186,0.30835,1177.117
187,0.3099,1177.117
188,0.311567,1181.215
189,0.313233,1183.078
190,0.3149,1184.195
191,0.316567,1184.195
192,0.318233,1184.568
193,0.3199,1183.674
194,0.321567,1184.493
195,0.323233,1184.493
196,0.324883,1187.101
197,0.32655,1187.995
198,0.328217,1190.454
199,0.329883,1190.454
200,0.33155,1197.085
201,0.333217,1203.716
202,0.334883,1203.716
203,0.33655,1209.229
204,0.338217,1208.633
205,0.339883,1208.633
206,0.34155,1208.633
207,0.343217,1205.355
208,0.344883,1204.982
209,0.34655,1208.186
210,0.348217,1208.186
211,0.349883,1208.41
212,0.35155,1211.762
213,0.353217,1212.135
214,0.354883,1212.135
215,0.35655,1208.41
216,0.358217,1209.453
217,0.359883,1209.453
218,0.36155,1209.006
219,0.363217,1207.814
220,0.364883,1208.484
221,0.36655,1208.484
222,0.368217,1204.386
223,0.369883,1200.438
224,0.37155,1199.394
225,0.373217,1199.394
226,0.374883,1199.693
227,0.37655,1196.34
228,0.378217,1191.497
229,0.379883,1191.497
230,0.38155,1188.293
231,0.383217,1187.176
232,0.384883,1189.709
233,0.386533,1189.709
234,0.3882,1192.391
235,0.389867,1196.414
236,0.391533,1196.414
237,0.393267,1199.32
238,0.394867,1203.269
239,0.396533,1209.9
240,0.3982,1209.9
241,0.399867,1214.221
242,0.401533,1214.221
243,0.4032,1215.86
244,0.404867,1215.86
245,0.406533,1216.605
246,0.4082,1216.978
247,0.409933,1221.225
248,0.411533,1221.225
249,0.4132,1226.291
250,0.414867,1235.753
251,0.416533,1235.753
252,0.4182,1246.184
253,0.419867,1266.226
254,0.421533,1296.401
255,0.4232,1296.401
256,0.424867,1339.093
257,0.42665,1407.564
258,0.4282,1501.813
259,0.429867,1501.813
260,0.431533,1643.375
261,0.4332,1846.403
262,0.434867,2122.372
263,0.436533,2122.372
264,0.4382,2492.07
265,0.439867,2959.967
266,0.441533,3535.896
267,0.4432,3535.896
268,0.444867,4228.651
269,0.446517,5036.071
270,0.448183,5036.071
271,0.44985,5951.375
272,0.451517,6962.717
273,0.453183,8061.677
274,0.45485,8061.677
275,0.456517,9232.089
276,0.458183,10467.32
277,0.45985,11758.953
278,0.461517,11758.953
279,0.463183,13095.066
280,0.46485,14470.592
281,0.466517,15875.548
282,0.468183,15875.548
283,0.46985,17303.154
284,0.471517,18749.684
285,0.473183,18749.684
286,0.47485,20207.764
287,0.476517,21675.229
288,0.478167,23154.17
289,0.479833,23154.17
290,0.4815,24636.686
291,0.483167,26121.139
292,0.484833,27604.104
293,0.4865,27604.104
294,0.488167,29083.49
295,0.489833,30560.568
296,0.491517,32033.473
297,0.493167,32033.473
298,0.494833,33504.441
299,0.4965,34967.734
300,0.498167,34967.734
301,0.499833,36422.387
302,0.5014999999999999,37870.48
303,0.503167,39307.699
304,0.504833,39307.699
305,0.506483,40735.008
306,0.50815,42148.828
307,0.509817,43546.484
308,0.511533,43546.484
309,0.51315,44927.223
310,0.514817,46293.883
311,0.516483,47641.992
312,0.51815,47641.992
313,0.519817,48975.273
314,0.521483,50289.781
315,0.52315,51583.199
316,0.524817,51583.199
317,0.526483,52857.176
318,0.52825,54109.543
319,0.529817,54109.543
320,0.531483,55339.039
321,0.53315,56541.859
322,0.534817,57717.34
323,0.536483,57717.34
324,0.53815,58864.133
325,0.539817,59979.93
326,0.541483,61065.332
327,0.54315,61065.332
328,0.544883,62121.301
329,0.5464830000000001,63143.969
330,0.548167,64133.184
331,0.549817,64133.184
332,0.5514829999999999,65086.41
333,0.55315,65998.289
334,0.554817,65998.289
335,0.5564829999999999,66869.039
336,0.55815,67696.57000000001
337,0.559817,68479.773
338,0.561483,68479.773
339,0.56315,69215.594
340,0.5648,69899.859
341,0.5664670000000001,70528.984
342,0.568133,70528.984
343,0.5698,71100.148
344,0.5714669999999999,71606.484
345,0.573133,72041.156
346,0.5748,72041.156
347,0.576467,72394.086
348,0.578133,72646.586
349,0.5798,72787.477
350,0.581467,72787.477
351,0.583133,72792.25
352,0.584817,72632.211
353,0.586467,72632.211
354,0.588133,72274.875
355,0.5898,71677.04700000001
356,0.591467,70787.367
357,0.593133,70787.367
358,0.5948,69552.81299999999
359,0.596467,67911.969
360,0.598133,65826.773
361,0.5998,65826.773
362,0.601467,63283.891
363,0.603133,60315.133
364,0.6048,57011.695
365,0.606467,57011.695
366,0.608133,53494.273
367,0.6098,49906.523
368,0.611467,49906.523
369,0.613133,46389.477
370,0.6148,43049.828
371,0.6165,39959.25
372,0.618133,39959.25
373,0.6198,37158.727
374,0.621467,34649.074
375,0.623133,32415.613
376,0.624783,32415.613
377,0.62645,30432.717
378,0.628117,28666.779
379,0.629817,27090.535
380,0.63145,27090.535
381,0.633117,25681.48
382,0.634783,24412.646
383,0.63645,23267.566
384,0.638117,23267.566
385,0.639783,22227.316
386,0.64145,21278.039
387,0.643117,21278.039
388,0.644783,20407.438
389,0.646533,19602.85
390,0.6481170000000001,18856.973
391,0.649783,18856.973
392,0.65145,18163.398
393,0.653133,17519.146
394,0.654783,16919.598
395,0.65645,16919.598
396,0.658117,16363.04
397,0.659783,15839.338
398,0.66145,15345.439
399,0.663183,15345.439
400,0.664783,14881.343
401,0.66645,14444.366
402,0.668117,14444.366
403,0.669783,14030.858
404,0.67145,13642.312
405,0.673117,13276.563
406,0.674783,13276.563
407,0.67645,12927.502
408,0.678117,12599.155
409,0.6798999999999999,12288.466
410,0.68145,12288.466
411,0.683117,11989.399
412,0.684783,11706.203
413,0.686433,11434.704
414,0.6881,11434.704
415,0.689767,11176.02
416,0.691433,10931.716
417,0.6931,10931.716
418,0.694817,10695.904
419,0.696433,10472.462
420,0.6981000000000001,10254.681
421,0.699767,10254.681
422,0.701433,10045.097
423,0.7030999999999999,9843.186
424,0.704767,9650.364
425,0.706433,9650.364
426,0.7081,9468.123
427,0.709767,9291.321
428,0.711433,9123.236000000001
429,0.7131,9123.236000000001
430,0.714767,8960.067999999999
431,0.716433,8801.967000000001
432,0.7181,8650.348
433,0.719767,8650.348
434,0.721433,8507.297
435,0.7231,8368.269
436,0.7247670000000001,8368.269
437,0.726433,8231.550999999999
438,0.7281,8102.581
439,0.7297670000000001,7974.58
440,0.731433,7974.58
441,0.7331,7850.826
442,0.7347669999999999,7733.777
443,0.736433,7616.729
444,0.7381,7616.729
445,0.739767,7501.691
446,0.741433,7390.082
447,0.7431,7284.954
448,0.744767,7284.954
449,0.746417,7181.987
450,0.74815,7086.545
451,0.74975,7086.545
452,0.751417,6993.413
453,0.7530829999999999,6902.367
454,0.75475,6815.344
455,0.756417,6815.344
456,0.758083,6727.427
457,0.75975,6640.554
458,0.761417,6553.978
459,0.763083,6553.978
460,0.76475,6473.81
461,0.766417,6395.653
462,0.7680670000000001,6319.88
463,0.769733,6319.88
464,0.7714,6248.429
465,0.7730669999999999,6173.849
466,0.774733,6105.453
467,0.7764,6105.453
468,0.778067,6041.154
469,0.779733,5971.566
470,0.781483,5971.566
471,0.783067,5908.981
472,0.784733,5841.628
473,0.7864,5780.756
474,0.788067,5780.756
475,0.789733,5722.195
476,0.7914,5660.951
477,0.793067,5604.178
478,0.794733,5604.178
479,0.7964,5545.169
480,0.7982,5488.396
481,0.799733,5434.751
482,0.8014,5434.751
483,0.803067,5380.735
484,0.804733,5328.73
485,0.806383,5328.73
486,0.80805,5282.089
487,0.809717,5232.841
488,0.811383,5186.424
489,0.8130500000000001,5186.424
490,0.814717,5138.889
491,0.816383,5090.684
492,0.8180500000000001,5044.788
493,0.819717,5044.788
494,0.821383,5000.755
495,0.8230499999999999,4961.863
496,0.824717,4921.108
497,0.826383,4921.108
498,0.828067,4882.44
499,0.829717,4845.783
500,0.831383,4803.911
501,0.833117,4803.911
502,0.834717,4764.348
503,0.836383,4726.723
504,0.83805,4726.723
505,0.839717,4685.67
506,0.841383,4649.684
507,0.84305,4616.38
508,0.8447170000000001,4616.38
509,0.846383,4581.288
510,0.84805,4546.642
511,0.8497169999999999,4510.73
512,0.851383,4510.73
513,0.85305,4475.117
514,0.8547169999999999,4438.981
515,0.856383,4407.391
516,0.85805,4407.391
517,0.859717,4375.205
518,0.861383,4345.551
519,0.86305,4345.551
520,0.864717,4318.282
521,0.866417,4286.99
522,0.8680330000000001,4259.199
523,0.8697,4259.199
524,0.871367,4226.938
525,0.8730329999999999,4197.285
526,0.8747,4172.027
527,0.876367,4172.027
528,0.878033,4142.672
529,0.8797,4116.669
530,0.881367,4090.741
531,0.883083,4090.741
532,0.8847,4063.025
533,0.886367,4036.278
534,0.888033,4036.278
535,0.8897,4013.032
536,0.891367,3986.88
537,0.893033,3963.113
538,0.8947000000000001,3963.113
539,0.896367,3940.016
540,0.898033,3914.759
541,0.89975,3894.567
542,0.901383,3894.567
543,0.90305,3874.376
544,0.9046999999999999,3854.781
545,0.906367,3832.281
546,0.908033,3832.281
547,0.9097,3805.086
548,0.911367,3781.915
549,0.913033,3758.818
550,0.9147,3758.818
551,0.91645,3740.862
552,0.918033,3724.918
553,0.9197,3724.918
554,0.921367,3702.417
555,0.923033,3686.249
556,0.9247,3666.282
557,0.92635,3666.282
558,0.928017,3645.793
559,0.929683,3627.39
560,0.93135,3604.442
561,0.933017,3604.442
562,0.934683,3583.878
563,0.93635,3562.719
564,0.938017,3542.9
565,0.939683,3542.9
566,0.94135,3524.795
567,0.943017,3505.424
568,0.9446830000000001,3505.424
569,0.94635,3489.181
570,0.948017,3475.025
571,0.9496830000000001,3458.038
572,0.95135,3458.038
573,0.953017,3443.882
574,0.9546829999999999,3430.396
575,0.95635,3414.452
576,0.958017,3414.452
577,0.959683,3398.061
578,0.96135,3380.552
579,0.963017,3364.012
580,0.964683,3364.012
581,0.96635,3349.483
582,0.968017,3336.966
583,0.9697,3325.194
584,0.97135,3325.194
585,0.973017,3309.846
586,0.974683,3293.827
587,0.9763500000000001,3293.827
588,0.978017,3280.789
589,0.979683,3265.739
590,0.9813499999999999,3252.849
591,0.983017,3252.849
592,0.984667,3238.693
593,0.986333,3220.812
594,0.988,3206.73
595,0.989667,3206.73
596,0.991333,3192.946
597,0.993,3181.1
598,0.994667,3168.434
599,0.996333,3168.434
600,0.998,3158.599
601,0.999667,3147.274
602,1.001333,3147.274
603,1.003,3132.746
604,1.004667,3122.389
605,1.006333,3106.073
606,1.008,3106.073
607,1.009667,3092.289
608,1.011333,3080.219
609,1.013,3069.863
610,1.014667,3069.863
611,1.016333,3059.357
612,1.018017,3046.319
613,1.019667,3037.08
614,1.021333,3037.08
615,1.023,3024.563
616,1.024667,3011.227
617,1.026333,3000.051
618,1.028,3000.051
619,1.029667,2986.342
620,1.031333,2975.538
621,1.033,2975.538
622,1.034783,2968.013
623,1.036333,2960.116
624,1.038,2951.101
625,1.039667,2951.101
626,1.041333,2940.595
627,1.043,2929.27
628,1.044667,2917.349
629,1.046317,2917.349
630,1.048017,2909.377
631,1.04965,2899.691
632,1.051317,2889.931
633,1.052983,2889.931
634,1.05465,2878.606
635,1.056333,2868.176
636,1.057983,2868.176
637,1.059633,2857.745
638,1.0613,2847.835
639,1.062967,2842.248
640,1.064633,2842.248
641,1.0663,2832.711
642,1.067967,2822.28
643,1.069633,2814.01
644,1.0713,2814.01
645,1.072967,2804.026
646,1.074633,2798.364
647,1.0763,2792.403
648,1.077967,2792.403
649,1.079633,2785.623
650,1.0813,2777.055
651,1.082967,2777.055
652,1.084633,2765.06
653,1.0863,2754.182
654,1.087967,2745.092
655,1.089633,2745.092
656,1.0913,2739.951
657,1.092967,2731.755
658,1.094633,2725.273
659,1.0963,2725.273
660,1.097967,2715.811
661,1.099633,2704.859
662,1.1013,2697.632
663,1.10295,2697.632
664,1.104633,2692.267
665,1.106283,2683.699
666,1.107983,2675.503
667,1.109617,2675.503
668,1.111283,2669.096
669,1.11295,2660.975
670,1.114617,2660.975
671,1.116283,2654.791
672,1.11795,2647.936
673,1.1197,2641.678
674,1.121283,2641.678
675,1.12295,2634.078
676,1.124617,2629.832
677,1.126283,2622.455
678,1.12795,2622.455
679,1.129617,2612.099
680,1.131283,2603.158
681,1.13295,2593.175
682,1.134617,2593.175
683,1.136283,2585.5
684,1.13795,2577.901
685,1.139617,2577.901
686,1.141283,2571.419
687,1.14295,2563.298
688,1.144617,2558.082
689,1.146283,2558.082
690,1.14795,2552.941
691,1.149617,2545.416
692,1.151283,2543.628
693,1.15305,2543.628
694,1.154617,2536.55
695,1.156283,2528.429
696,1.15795,2522.692
697,1.159617,2522.692
698,1.161283,2511.814
699,1.16295,2505.705
700,1.164617,2502.128
701,1.166267,2502.128
702,1.167933,2496.019
703,1.1696,2491.474
704,1.171267,2491.474
705,1.172933,2487.823
706,1.1746,2484.024
707,1.176267,2479.777
708,1.177933,2479.777
709,1.1796,2475.977
710,1.1813,2470.24
711,1.182933,2464.28
712,1.1846,2464.28
713,1.186267,2460.629
714,1.187933,2453.029
715,1.1896,2448.186
716,1.191267,2448.186
717,1.192933,2440.959
718,1.1946,2432.242
719,1.196267,2432.242
720,1.197933,2426.058
721,1.1996,2416.447
722,1.201267,2409.816
723,1.202933,2409.816
724,1.2046,2405.792
725,1.206267,2400.652
726,1.207933,2397.82
727,1.2096,2397.82
728,1.211267,2392.456
729,1.212933,2386.943
730,1.2146,2384.26
731,1.216267,2384.26
732,1.217933,2381.429
733,1.2196,2376.512
734,1.221267,2372.935
735,1.222933,2372.935
736,1.224583,2368.093
737,1.22625,2362.132
738,1.227917,2362.132
739,1.229583,2356.991
740,1.231267,2351.254
741,1.232917,2344.549
742,1.234583,2344.549
743,1.23625,2339.333
744,1.238,2337.918
745,1.239583,2334.341
746,1.24125,2334.341
747,1.242917,2329.2
748,1.244583,2324.581
749,1.246283,2317.727
750,1.247917,2317.727
751,1.249583,2311.468
752,1.25125,2308.786
753,1.252917,2308.786
754,1.254583,2303.421
755,1.25625,2296.641
756,1.257917,2289.787
757,1.259583,2289.787
758,1.26125,2284.273
759,1.262917,2282.336
760,1.264583,2279.207
761,1.26625,2279.207
762,1.267917,2278.686
763,1.269583,2276.301
764,1.27135,2270.937
765,1.272917,2270.937
766,1.274583,2268.255
767,1.27625,2262.816
768,1.277917,2262.816
769,1.279583,2256.334
770,1.28125,2249.703
771,1.282917,2244.413
772,1.284583,2244.413
773,1.286233,2240.986
774,1.2879,2236.441
775,1.289567,2232.566
776,1.291233,2232.566
777,1.2929,2226.979
778,1.294567,2222.881
779,1.296233,2219.975
780,1.2979,2219.975
781,1.299567,2215.579
782,1.301233,2212.823
783,1.3029,2205.67
784,1.304567,2205.67
785,1.306233,2201.423
786,1.3079,2200.305
787,1.309567,2200.305
788,1.311233,2199.486
789,1.3129,2198.89
790,1.314567,2195.463
791,1.31625,2195.463
792,1.317917,2192.631
793,1.319567,2186.671
794,1.321233,2183.616
795,1.3229,2183.616
796,1.324567,2182.946
797,1.326233,2176.091
798,1.3279,2173.558
799,1.329567,2173.558
800,1.331233,2167.896
801,1.3329,2162.382
802,1.334567,2162.382
803,1.336233,2158.21
804,1.3379,2154.335
805,1.339567,2152.324
806,1.341233,2152.324
807,1.3429,2150.536
808,1.34455,2148.822
809,1.346217,2144.352
810,1.347883,2144.352
811,1.34955,2141.744
812,1.3512,2137.497
813,1.352867,2134.889
814,1.354533,2134.889
815,1.3562,2136.156
816,1.357867,2132.729
817,1.359533,2128.333
818,1.3612,2128.333
819,1.362867,2124.458
820,1.364533,2119.839
821,1.3662,2119.839
822,1.367867,2116.859
823,1.369533,2116.337
824,1.3712,2112.24
825,1.372867,2112.24
826,1.374533,2106.279
827,1.3762,2105.385
828,1.377867,2101.734
829,1.379533,2101.734
830,1.3812,2099.425
831,1.382867,2098.829
832,1.384533,2094.507
833,1.3862,2094.507
834,1.387867,2090.856
835,1.389617,2087.802
836,1.3912,2087.802
837,1.392867,2082.661
838,1.394533,2078.042
839,1.3962,2076.179
840,1.397867,2076.179
841,1.399533,2074.093
842,1.4012,2074.167
843,1.402867,2071.932
844,1.404517,2071.932
845,1.4062,2066.642
846,1.40785,2066.865
847,1.409517,2062.47
848,1.411183,2062.47
849,1.41285,2058.67
850,1.414517,2055.839
851,1.416183,2047.643
852,1.41785,2047.643
853,1.419517,2042.726
854,1.421183,2040.789
855,1.42285,2040.789
856,1.424517,2037.808
857,1.426183,2034.828
858,1.42785,2032.369
859,1.429517,2032.369
860,1.431183,2031.252
861,1.43285,2027.377
862,1.434517,2026.111
863,1.436183,2026.111
864,1.43785,2024.77
865,1.439517,2019.703
866,1.441183,2018.884
867,1.44285,2018.884
868,1.444517,2020.448
869,1.446183,2020.374
870,1.44785,2020.374
871,1.449517,2020.523
872,1.451183,2018.213
873,1.45285,2011.582
874,1.454517,2011.582
875,1.456183,2008.602
876,1.457867,2004.728
877,1.459533,2003.908
878,1.461183,2003.908
879,1.46285,2000.034
880,1.4645,1996.085
881,1.466167,1994.818
882,1.467833,1994.818
883,1.4695,1991.093
884,1.471167,1993.328
885,1.472833,1993.328
886,1.47455,1990.646
887,1.476167,1985.282
888,1.477833,1980.141
889,1.4795,1980.141
890,1.481167,1975.969
891,1.482833,1971.796
892,1.4845,1969.561
893,1.486167,1969.561
894,1.487833,1967.847
895,1.4895,1965.463
896,1.491267,1963.005
897,1.492833,1963.005
898,1.4945,1960.397
899,1.496167,1960.248
900,1.497833,1957.938
901,1.4995,1957.938
902,1.501167,1959.428
903,1.502833,1957.938
904,1.5045,1957.938
905,1.506167,1955.33
906,1.5079,1952.127
907,1.5095,1949.668
908,1.511167,1949.668
909,1.512833,1950.413
910,1.5145,1948.178
911,1.516167,1945.645
912,1.517833,1945.645
913,1.5195,1941.1
