"ID","sea_time","fid_signal"
1,0,146.247
2,0.001667,146.18
3,0.003333,146.128
4,0.005,146.255
5,0.006667,146.255
6,0.008333,145.957
7,0.01,145.629
8,0.011667,145.629
9,0.013333,145.42
10,0.015,145.189
11,0.016783,145.07
12,0.018333,145.07
13,0.02,145.197
14,0.021667,145.011
15,0.023333,144.891
16,0.025,144.891
17,0.026667,144.869
18,0.028333,144.698
19,0.03,144.549
20,0.031667,144.549
21,0.033333,144.683
22,0.035,144.549
23,0.036667,144.549
24,0.038333,144.653
25,0.04,145.137
26,0.041667,145.085
27,0.043333,145.085
28,0.045,145.227
29,0.046667,145.16
30,0.048333,144.78
31,0.05,144.78
32,0.051667,144.787
33,0.053333,144.817
34,0.054983,144.906
35,0.05665,144.906
36,0.058317,145.063
37,0.059983,145.115
38,0.06165,145.316
39,0.063317,145.316
40,0.064983,145.182
41,0.06665,145.309
42,0.068317,145.309
43,0.069983,145.04
44,0.07165000000000001,144.72
45,0.07335,144.698
46,0.07498299999999999,144.698
47,0.07665,144.549
48,0.078317,144.638
49,0.080017,144.668
50,0.08165,144.668
51,0.083317,144.936
52,0.084983,144.966
53,0.08665,145.242
54,0.08831700000000001,145.242
55,0.08998299999999999,145.227
56,0.09165,144.921
57,0.093317,144.921
58,0.094983,144.958
59,0.09665,145.011
60,0.098317,145.085
61,0.099983,145.085
62,0.1017,145.249
63,0.103317,145.279
64,0.104983,144.973
65,0.10665,144.973
66,0.108317,145.063
67,0.109983,145.011
68,0.11165,144.966
69,0.113317,144.966
70,0.114967,145.093
71,0.116633,145.145
72,0.1183,145.003
73,0.119967,145.003
74,0.121633,145.145
75,0.1233,145.294
76,0.124967,145.294
77,0.126633,145.137
78,0.1283,145.324
79,0.129967,145.42
80,0.131633,145.42
81,0.1333,145.13
82,0.135033,145.175
83,0.136633,145.137
84,0.1383,145.137
85,0.139967,145.003
86,0.141633,145.294
87,0.1433,145.309
88,0.144967,145.309
89,0.146633,145.547
90,0.1483,145.681
91,0.149967,145.681
92,0.151633,145.398
93,0.1533,145.316
94,0.154983,145.078
95,0.1567,145.078
96,0.1583,145.093
97,0.159967,145.175
98,0.161633,145.391
99,0.1633,145.391
100,0.164967,145.353
101,0.166633,145.189
102,0.1683,145.145
103,0.169967,145.145
104,0.171633,145.175
105,0.1733,145.376
106,0.17495,145.271
107,0.176617,145.271
108,0.178283,145.338
109,0.17995,145.16
110,0.181617,145.16
111,0.183283,145.033
112,0.18495,145.316
113,0.186617,145.495
114,0.188283,145.495
115,0.18995,145.428
116,0.191633,145.42
117,0.193283,145.249
118,0.19495,145.249
119,0.196617,145.011
120,0.198283,144.936
121,0.19995,145.108
122,0.201617,145.108
123,0.203283,144.921
124,0.20495,144.839
125,0.206617,144.839
126,0.208283,144.936
127,0.20995,144.765
128,0.211617,144.623
129,0.213283,144.623
130,0.21495,144.556
131,0.216617,144.564
132,0.218283,144.72
133,0.219967,144.72
134,0.221617,145.078
135,0.223333,145.376
136,0.225033,145.473
137,0.226617,145.473
138,0.228283,145.212
139,0.22995,145.175
140,0.231617,145.175
141,0.233283,145.16
142,0.234933,145.122
143,0.236583,145.495
144,0.23825,145.495
145,0.239917,145.346
146,0.241583,145.204
147,0.24325,145.249
148,0.244917,145.249
149,0.246583,144.884
150,0.24825,144.809
151,0.249917,144.906
152,0.251583,144.906
153,0.253367,144.899
154,0.254917,144.817
155,0.256583,145.018
156,0.25825,145.018
157,0.259917,145.279
158,0.261583,145.197
159,0.26325,145.197
160,0.264917,145.391
161,0.266583,145.212
162,0.26825,144.869
163,0.269917,144.869
164,0.271583,144.996
165,0.27325,145.07
166,0.274917,145.279
167,0.276583,145.279
168,0.27825,145.391
169,0.279917,145.406
170,0.281583,145.659
171,0.28325,145.659
172,0.284917,146.039
173,0.286583,146.508
174,0.28825,146.508
175,0.289917,146.911
176,0.291583,146.94
177,0.293267,146.851
178,0.29495,146.851
179,0.29665,146.978
180,0.298233,147.164
181,0.2999,147.7
182,0.301567,147.7
183,0.303233,148.52
184,0.3049,149.429
185,0.306567,150.651
186,0.308233,150.651
187,0.3099,152.372
188,0.311567,155.188
189,0.313233,158.608
190,0.3149,158.608
191,0.316567,163.265
192,0.318233,168.808
193,0.3199,168.808
194,0.321567,174.999
195,0.323233,182.137
196,0.3249,189.297
197,0.326567,189.297
198,0.328233,196.703
199,0.3299,203.662
200,0.331567,209.853
201,0.333233,209.853
202,0.3349,215.381
203,0.336567,219.747
204,0.338233,222.817
205,0.3399,222.817
206,0.341567,225.037
207,0.343233,226.162
208,0.3449,226.162
209,0.346567,226.431
210,0.348233,227.101
211,0.3499,228.42
212,0.351567,228.42
213,0.353233,233.605
214,0.354883,249.386
215,0.35655,288.971
216,0.358217,288.971
217,0.359883,377.499
218,0.36155,551.499
219,0.363217,853.2329999999999
220,0.364883,853.2329999999999
221,0.366617,1322.635
222,0.36825,1984.358
223,0.369883,2840.236
224,0.37165,2840.236
225,0.373217,3868.364
226,0.374883,5028.166
227,0.37655,5028.166
228,0.378217,6270.163
229,0.379883,7543.035
230,0.38155,8800.819
231,0.383217,8800.819
232,0.384883,10004.245
233,0.38655,11121.921
234,0.388317,12129.918
235,0.389883,12129.918
236,0.39155,13011.321
237,0.393217,13756.723
238,0.394883,14361.821
239,0.39655,14361.821
240,0.398217,14827.751
241,0.399883,15160.359
242,0.40155,15160.359
243,0.403217,15368.425
244,0.404883,15463.486
245,0.40655,15459.493
246,0.408217,15459.493
247,0.409883,15371.546
248,0.41155,15212.968
249,0.413217,14996.573
250,0.414867,14996.573
251,0.416533,14733.493
252,0.4182,14432.482
253,0.419867,14102.728
254,0.421533,14102.728
255,0.4232,13751.895
256,0.424867,13386.733
257,0.426533,13386.733
258,0.4282,13013.058
259,0.429867,12635.47
260,0.431533,12258.604
261,0.433217,12258.604
262,0.434933,11885.435
263,0.436533,11518.195
264,0.4382,11159.264
265,0.439867,11159.264
266,0.441533,10809.794
267,0.4432,10470.904
268,0.444867,10143.519
269,0.446533,10143.519
270,0.4482,9827.665999999999
271,0.449867,9523.683000000001
272,0.451533,9231.582
273,0.4532,9231.582
274,0.454867,8950.933999999999
275,0.456533,8682.169
276,0.4582,8682.169
277,0.459867,8424.319
278,0.461533,8176.923
279,0.4632,7940.099
280,0.464867,7940.099
281,0.466533,7713.005
282,0.4682,7495.403
283,0.469867,7286.854
284,0.471533,7286.854
285,0.473267,7086.583
286,0.47485,6893.918
287,0.476517,6708.972
288,0.478183,6708.972
289,0.47985,6531.335
290,0.481517,6360.672
291,0.483183,6360.672
292,0.48485,6196.76
293,0.486517,6039.329
294,0.488183,5888.052
295,0.48985,5888.052
296,0.491517,5742.527
297,0.493183,5602.427
298,0.49485,5467.154
299,0.496517,5467.154
300,0.498183,5336.985
301,0.49985,5211.89
302,0.501517,5091.056
303,0.503183,5091.056
304,0.50485,4974.656
305,0.506617,4861.869
306,0.5081830000000001,4752.912
307,0.509867,4752.912
308,0.511517,4648.089
309,0.5132330000000001,4546.784
310,0.51485,4546.784
311,0.516517,4448.883
312,0.5181829999999999,4354.269
313,0.51985,4262.47
314,0.521517,4262.47
315,0.523183,4173.808
316,0.52485,4088.201
317,0.526517,4004.851
318,0.5281670000000001,4004.851
319,0.529833,3924.437
320,0.5315,3846.191
321,0.53315,3770.232
322,0.534817,3770.232
323,0.536483,3697.038
324,0.53815,3625.81
325,0.539817,3625.81
326,0.5415,3556.84
327,0.54315,3490.001
328,0.544817,3424.645
329,0.5464830000000001,3424.645
330,0.54815,3361.136
331,0.549817,3299.229
332,0.5514829999999999,3238.946
333,0.55315,3238.946
334,0.554817,3180.616
335,0.5564829999999999,3123.902
336,0.55815,3069.058
337,0.559817,3069.058
338,0.561483,3015.704
339,0.56315,2963.498
340,0.564817,2913.013
341,0.566483,2913.013
342,0.56815,2863.705
343,0.569817,2815.939
344,0.571483,2815.939
345,0.57315,2769.589
346,0.574867,2723.917
347,0.576483,2679.579
348,0.5781500000000001,2679.579
349,0.579817,2635.829
350,0.581483,2593.406
351,0.583167,2552.196
352,0.584817,2552.196
353,0.586483,2511.665
354,0.58815,2472.423
355,0.589817,2434.03
356,0.591533,2434.03
357,0.59315,2396.338
358,0.5948,2359.823
359,0.596467,2359.823
360,0.598133,2324.239
361,0.5998,2289.333
362,0.601467,2255.611
363,0.603133,2255.611
364,0.6048,2222.516
365,0.606467,2190.366
366,0.608183,2159.074
367,0.6098,2159.074
368,0.611467,2128.236
369,0.613133,2098.113
370,0.6148,2068.184
371,0.616467,2068.184
372,0.618133,2039.068
373,0.6198,2010.897
374,0.621467,2010.897
375,0.623133,1982.935
376,0.624883,1956.195
377,0.626467,1929.991
378,0.6281330000000001,1929.991
379,0.6298,1904.182
380,0.631467,1879.156
381,0.6331329999999999,1854.308
382,0.6348,1854.308
383,0.636467,1829.729
384,0.638133,1805.961
385,0.6398,1782.738
386,0.641467,1782.738
387,0.643133,1759.879
388,0.6448,1737.759
389,0.646467,1715.653
390,0.648133,1715.653
391,0.6498,1693.904
392,0.651467,1672.812
393,0.6531670000000001,1672.812
394,0.654783,1652.062
395,0.65645,1632.139
396,0.658117,1612.723
397,0.659783,1612.723
398,0.66145,1593.269
399,0.663117,1574.293
400,0.664783,1555.599
401,0.66645,1555.599
402,0.668117,1537.584
403,0.669783,1519.889
404,0.671467,1502.611
405,0.673117,1502.611
406,0.674783,1485.303
407,0.67645,1468.137
408,0.678117,1468.137
409,0.679783,1451.619
410,0.68145,1435.138
411,0.683117,1419.239
412,0.684783,1419.239
413,0.68645,1403.473
414,0.688117,1388.401
415,0.689783,1373.671
416,0.69145,1373.671
417,0.693117,1358.792
418,0.694783,1344.107
419,0.69645,1329.564
420,0.698117,1329.564
421,0.699783,1315.244
422,0.70145,1301.52
423,0.703117,1288.094
424,0.704783,1288.094
425,0.70645,1275.018
426,0.708117,1262.255
427,0.7097830000000001,1262.255
428,0.71145,1249.44
429,0.7131,1237.176
430,0.714767,1224.592
431,0.716433,1224.592
432,0.7181,1212.075
433,0.719817,1200.303
434,0.721433,1188.442
435,0.7231,1188.442
436,0.7247670000000001,1176.931
437,0.726433,1165.934
438,0.7281,1154.713
439,0.7297670000000001,1154.713
440,0.731433,1143.873
441,0.7331,1133.062
442,0.7347669999999999,1133.062
443,0.736433,1122.221
444,0.7381,1111.746
445,0.739767,1101.323
446,0.741433,1101.323
447,0.7432,1091.115
448,0.744767,1080.953
449,0.746433,1071.177
450,0.7481,1071.177
451,0.749767,1061.7
452,0.751433,1052.35
453,0.7531,1043.104
454,0.754767,1043.104
455,0.756433,1033.798
456,0.7581,1024.678
457,0.759767,1016.051
458,0.761467,1016.051
459,0.7631,1007.386
460,0.764767,999.13
461,0.766433,999.13
462,0.7681,990.9349999999999
463,0.769767,982.545
464,0.771433,974.424
465,0.7731,974.424
466,0.774767,965.923
467,0.776417,957.385
468,0.778083,949.085
469,0.7797500000000001,949.085
470,0.781417,941.5
471,0.783083,933.893
472,0.7847499999999999,926.845
473,0.786417,926.845
474,0.788083,919.67
475,0.78975,912.2190000000001
476,0.791483,912.2190000000001
477,0.793083,905.052
478,0.79475,897.646
479,0.796417,890.784
480,0.798083,890.784
481,0.79975,884.026
482,0.801417,877.514
483,0.803083,871.174
484,0.80475,871.174
485,0.8064170000000001,864.6319999999999
486,0.808083,858.158
487,0.80975,851.482
488,0.8114170000000001,851.482
489,0.813083,844.561
490,0.81475,838.011
491,0.8164169999999999,831.783
492,0.818083,831.783
493,0.819733,825.971
494,0.8214,820.175
495,0.823067,820.175
496,0.824733,814.4450000000001
497,0.8264,808.269
498,0.828133,802.241
499,0.8297330000000001,802.241
500,0.8314,796.72
501,0.83305,791.252
502,0.8347329999999999,786.111
503,0.836383,786.111
504,0.83805,780.627
505,0.839717,775.188
506,0.841383,769.965
507,0.843067,769.965
508,0.8447170000000001,764.4299999999999
509,0.846383,759.49
510,0.84805,759.49
511,0.8497169999999999,754.356
512,0.851383,749.104
513,0.85305,744.283
514,0.8547169999999999,744.283
515,0.856383,739.515
516,0.85805,734.933
517,0.859717,730.008
518,0.861417,730.008
519,0.86305,725.187
520,0.864717,720.128
521,0.866383,715.3
522,0.86805,715.3
523,0.869717,711.001
524,0.871383,706.859
525,0.87305,706.859
526,0.874717,702.545
527,0.876383,698.194
528,0.87805,693.895
529,0.879717,693.895
530,0.881383,689.335
531,0.88305,684.962
532,0.884717,680.678
533,0.886383,680.678
534,0.88805,676.371
535,0.889717,672.452
536,0.891383,668.623
537,0.89305,668.623
538,0.8947000000000001,664.86
539,0.896367,660.941
540,0.898033,656.977
541,0.8997000000000001,656.977
542,0.901367,653.215
543,0.903033,649.311
544,0.9046999999999999,649.311
545,0.906367,645.496
546,0.908033,641.756
547,0.9097,637.941
548,0.911367,637.941
549,0.913033,634.514
550,0.9147,630.952
551,0.916367,627.51
552,0.918033,627.51
553,0.9197,624.143
554,0.921367,620.4400000000001
555,0.923033,616.9160000000001
556,0.924733,616.9160000000001
557,0.9264,613.533
558,0.928033,610.232
559,0.9297,610.232
560,0.9313669999999999,607.096
561,0.933033,604.1079999999999
562,0.9347,600.897
563,0.9363669999999999,600.897
564,0.938033,597.604
565,0.9397,594.4589999999999
566,0.941367,591.211
567,0.943033,591.211
568,0.9447,588.0890000000001
569,0.946433,585.02
570,0.948033,581.8680000000001
571,0.9497,581.8680000000001
572,0.951367,578.746
573,0.953033,575.535
574,0.9547,572.607
575,0.95635,572.607
576,0.958017,569.8049999999999
577,0.959683,566.915
578,0.96135,566.915
579,0.963017,564.218
580,0.964683,561.386
581,0.96635,558.272
582,0.968017,558.272
583,0.969683,555.5599999999999
584,0.97135,552.535
585,0.973017,549.89
586,0.974683,549.89
587,0.9763500000000001,547.409
588,0.978017,544.801
589,0.9798,542.514
590,0.9813499999999999,542.514
591,0.983017,540.107
592,0.984683,537.693
593,0.9863499999999999,537.693
594,0.988017,535.361
595,0.989683,532.992
596,0.99135,530.414
597,0.993017,530.414
598,0.994683,528.03
599,0.99635,525.422
600,0.9980329999999999,522.5839999999999
601,0.999683,522.5839999999999
602,1.001367,520.1849999999999
603,1.003067,517.8150000000001
604,1.004683,515.58
605,1.00635,515.58
606,1.008017,513.271
607,1.009683,510.722
608,1.01135,510.722
609,1.013017,508.361
610,1.014667,506.051
611,1.016333,504.032
612,1.018,504.032
613,1.019667,501.737
614,1.021333,499.278
615,1.023,496.939
616,1.024667,496.939
617,1.026333,494.547
618,1.028,492.297
619,1.029667,490.077
620,1.031333,490.077
621,1.033,488.058
622,1.034667,486.307
623,1.036333,484.556
624,1.038,484.556
625,1.039667,482.768
626,1.041333,480.719
627,1.043,480.719
628,1.044667,478.521
629,1.046333,476.383
630,1.048,474.304
631,1.049667,474.304
632,1.051333,472.397
633,1.053,470.355
634,1.054667,468.381
635,1.056333,468.381
636,1.058,466.689
637,1.059667,464.812
638,1.061333,463.121
639,1.063,463.121
640,1.064717,461.355
641,1.066333,459.343
642,1.068,459.343
643,1.069667,457.376
644,1.07135,455.506
645,1.072983,453.696
646,1.074683,453.696
647,1.076367,451.989
648,1.077983,450.462
649,1.07965,448.778
650,1.081317,448.778
651,1.082983,447.176
652,1.08465,445.187
653,1.086317,443.302
654,1.087983,443.302
655,1.08965,441.454
656,1.091317,439.711
657,1.092983,438.429
658,1.09465,438.429
659,1.096317,437.178
660,1.098083,435.844
661,1.09965,435.844
662,1.101317,434.615
663,1.102983,433.184
664,1.10465,431.411
665,1.106317,431.411
666,1.107983,429.802
667,1.10965,428.11
668,1.1113,426.322
669,1.112967,426.322
670,1.114633,424.601
671,1.1163,422.835
672,1.117967,421.122
673,1.119633,421.122
674,1.1213,419.84
675,1.122967,418.678
676,1.124633,418.678
677,1.1263,417.24
678,1.127967,415.578
679,1.129633,413.977
680,1.1313,413.977
681,1.132967,412.107
682,1.134633,410.765
683,1.136283,409.715
684,1.13795,409.715
685,1.139617,408.322
686,1.141283,407.39
687,1.14295,406.332
688,1.144617,406.332
689,1.146283,404.984
690,1.147983,403.807
691,1.14965,402.473
692,1.151283,402.473
693,1.15295,401.057
694,1.154617,399.597
695,1.156283,399.597
696,1.15795,398.01
697,1.159617,396.639
698,1.161283,394.993
699,1.16295,394.993
700,1.164617,393.592
701,1.166283,392.444
702,1.16795,390.947
703,1.169617,390.947
704,1.171283,389.911
705,1.172967,388.794
706,1.174617,387.274
707,1.176283,387.274
708,1.17795,386.074
709,1.179617,384.919
710,1.181283,384.919
711,1.183,383.951
712,1.184617,383.019
713,1.186283,381.611
714,1.18795,381.611
715,1.189617,380.315
716,1.191283,378.832
717,1.19295,377.648
718,1.1946,377.648
719,1.196267,376.739
720,1.197933,375.621
721,1.199717,374.764
722,1.201267,374.764
723,1.202933,373.475
724,1.2046,372.387
725,1.206267,372.387
726,1.207933,371.158
727,1.2096,369.743
728,1.211267,368.759
729,1.212933,368.759
730,1.2146,367.559
731,1.216333,366.569
732,1.21795,365.719
733,1.219667,365.719
734,1.221267,364.617
735,1.222933,363.782
736,1.2246,362.545
737,1.226267,362.545
738,1.227933,361.51
739,1.2296,360.496
740,1.231267,359.543
741,1.232933,359.543
742,1.2346,358.723
743,1.236267,357.375
744,1.237933,357.375
745,1.2396,356.212
746,1.241267,354.983
747,1.242933,353.821
748,1.2446,353.821
749,1.246267,353.217
750,1.247933,352.45
751,1.2496,351.63
752,1.251267,351.63
753,1.252933,350.967
754,1.254583,349.82
755,1.25625,348.881
756,1.257917,348.881
757,1.259583,347.905
758,1.26125,346.839
759,1.262917,346.839
760,1.264583,345.975
761,1.26625,345.014
762,1.267917,344.314
763,1.269583,344.314
764,1.27125,343.74
765,1.272917,342.742
766,1.274583,341.713
767,1.27625,341.713
768,1.277917,340.432
769,1.279583,339.344
770,1.28125,338.733
771,1.282917,338.733
772,1.284583,338.063
773,1.28625,337.072
774,1.287933,336.051
775,1.289583,336.051
776,1.2913,335.03
777,1.292917,334.054
778,1.294583,334.054
779,1.29625,333.555
780,1.297917,333.086
781,1.299583,332.512
782,1.301283,332.512
783,1.302917,331.633
784,1.304583,330.709
785,1.30625,329.696
786,1.307917,329.696
787,1.309583,328.638
788,1.31125,328.302
789,1.3129,327.826
790,1.314567,327.826
791,1.316233,326.902
792,1.317983,326.015
793,1.319567,326.015
794,1.321233,324.845
795,1.3229,323.817
796,1.324567,323.035
797,1.326233,323.035
798,1.3279,322.431
799,1.329567,321.567
800,1.331233,320.546
801,1.3329,320.546
802,1.334633,319.831
803,1.336233,318.93
804,1.3379,318.311
805,1.339567,318.311
806,1.341233,317.849
807,1.3429,317.328
808,1.344567,316.747
809,1.346233,316.747
810,1.3479,315.89
811,1.349567,315.152
812,1.35135,314.333
813,1.3529,314.333
814,1.354567,313.431
815,1.356233,312.679
816,1.3579,312.679
817,1.359567,312.068
818,1.361233,311.412
819,1.3629,310.846
820,1.364567,310.846
821,1.366233,310.361
822,1.36795,309.393
823,1.369633,308.566
824,1.371233,308.566
825,1.3729,307.687
826,1.37455,307.262
827,1.376217,307.262
828,1.377883,306.666
829,1.37955,305.898
830,1.381217,305.325
831,1.382883,305.325
832,1.38455,304.274
833,1.386217,303.358
834,1.387883,302.657
835,1.38955,302.657
836,1.391217,301.89
837,1.392883,301.369
838,1.39455,301.279
839,1.396217,301.279
840,1.397883,300.854
841,1.39955,300.638
842,1.401233,299.916
843,1.402867,299.916
844,1.404533,298.85
845,1.4062,297.993
846,1.407867,297.993
847,1.409533,297.092
848,1.4112,296.645
849,1.412867,296.153
850,1.414533,296.153
851,1.4162,295.572
852,1.417867,294.939
853,1.419533,294.305
854,1.4212,294.305
855,1.422867,293.709
856,1.424533,293.106
857,1.4262,292.562
858,1.427867,292.562
859,1.429533,292.078
860,1.4312,291.921
861,1.432867,291.921
862,1.43455,291.474
863,1.43625,291.131
864,1.43785,290.416
865,1.439517,290.416
866,1.441183,289.619
867,1.44285,289.112
868,1.444517,288.285
869,1.446183,288.285
870,1.44785,287.667
871,1.449517,286.661
872,1.451183,286.058
873,1.4529,286.058
874,1.454517,285.7
875,1.456183,285.283
876,1.45785,285.283
877,1.459517,284.895
878,1.461183,284.441
879,1.46285,283.569
880,1.464517,283.569
881,1.466183,283.055
882,1.46785,282.645
883,1.469633,282.064
884,1.471183,282.064
885,1.47285,281.952
886,1.474517,281.505
887,1.476183,281.245
888,1.47785,281.245
889,1.479517,280.671
890,1.481183,280.052
891,1.48285,279.225
892,1.484517,279.225
893,1.486183,278.451
894,1.48785,277.996
895,1.489517,277.996
896,1.491183,277.326
897,1.49285,276.864
898,1.4945,276.089
899,1.496167,276.089
900,1.497833,275.515
901,1.4995,275.09
902,1.501167,274.763
903,1.502833,274.763
904,1.5045,274.763
905,1.506167,274.166
906,1.50785,273.6
907,1.5095,273.6
908,1.511167,273.004
909,1.512833,272.408
910,1.5145,272.408
911,1.516167,272.051
912,1.517833,271.425
913,1.519517,270.888
914,1.521167,270.888
915,1.522833,270.717
916,1.5245,270.322
917,1.526167,270.225
918,1.527833,270.225
919,1.5295,270.091
920,1.531167,269.48
921,1.532833,269.152
922,1.5345,269.152
923,1.536167,268.698
924,1.537833,268.258
925,1.5395,267.446
926,1.541167,267.446
927,1.542833,267.148
928,1.5445,266.626
929,1.546167,266.626
930,1.547833,265.844
931,1.5495,265.472
932,1.551167,264.779
933,1.552833,264.779
934,1.554533,264.16
935,1.55615,264.131
936,1.557817,263.713
937,1.559483,263.713
938,1.56115,263.438
939,1.562817,263.184
