"ID","sea_time","fid_signal"
1,0,38.4
2,0.001667,38.4
3,0.003333,38.407
4,0.005,38.395
5,0.006667,38.34
6,0.008333,38.34
7,0.01,38.175
8,0.011667,37.985
9,0.013333,37.869
10,0.015,37.869
11,0.016717,37.857
12,0.018333,38.014
13,0.02,38.197
14,0.02165,38.197
15,0.023317,38.277
16,0.024983,38.326
17,0.02665,38.326
18,0.028317,38.351
19,0.029983,38.324
20,0.03165,38.346
21,0.033317,38.346
22,0.034983,38.301
23,0.03665,38.271
24,0.038317,38.281
25,0.039983,38.281
26,0.04165,38.254
27,0.043317,38.28
28,0.044983,38.304
29,0.04665,38.304
30,0.048317,38.344
31,0.050083,38.368
32,0.05165,38.356
33,0.053317,38.356
34,0.054983,38.333
35,0.05665,38.314
36,0.058317,38.314
37,0.059983,38.328
38,0.06165,38.317
39,0.063317,38.315
40,0.064983,38.315
41,0.06665,38.328
42,0.068317,38.309
43,0.069983,38.318
44,0.07165000000000001,38.318
45,0.07331699999999999,38.304
46,0.07498299999999999,38.274
47,0.07665,38.271
48,0.078317,38.271
49,0.079983,38.222
50,0.081667,38.218
51,0.08334999999999999,38.226
52,0.084967,38.226
53,0.086633,38.258
54,0.0883,38.284
55,0.08996700000000001,38.284
56,0.09165,38.317
57,0.09336700000000001,38.33
58,0.094967,38.284
59,0.096633,38.284
60,0.0983,38.293
61,0.099967,38.265
62,0.101633,38.254
63,0.1033,38.254
64,0.104967,38.277
65,0.106633,38.292
66,0.1083,38.289
67,0.109967,38.289
68,0.111633,38.3
69,0.1133,38.277
70,0.114967,38.277
71,0.116633,38.238
72,0.1183,38.269
73,0.119967,38.236
74,0.121633,38.236
75,0.1233,38.231
76,0.124967,38.252
77,0.126633,38.195
78,0.1283,38.195
79,0.129967,38.205
80,0.131633,38.188
81,0.1333,38.213
82,0.135017,38.213
83,0.136633,38.264
84,0.1383,38.285
85,0.139967,38.285
86,0.141617,38.315
87,0.143283,38.359
88,0.14495,38.363
89,0.146617,38.363
90,0.148283,38.342
91,0.14995,38.327
92,0.151617,38.265
93,0.153283,38.265
94,0.15495,38.24
95,0.156617,38.259
96,0.158283,38.283
97,0.15995,38.283
98,0.161617,38.302
99,0.163283,38.312
100,0.164967,38.289
101,0.166683,38.289
102,0.1684,38.284
103,0.16995,38.3
104,0.171617,38.3
105,0.173283,38.285
106,0.17495,38.325
107,0.176617,38.347
108,0.178283,38.347
109,0.17995,38.336
110,0.181617,38.346
111,0.183283,38.323
112,0.184967,38.323
113,0.186617,38.333
114,0.188283,38.304
115,0.18995,38.289
116,0.1916,38.289
117,0.193267,38.328
118,0.194933,38.309
119,0.1966,38.309
120,0.198267,38.339
121,0.199917,38.376
122,0.201583,38.321
123,0.20325,38.321
124,0.204917,38.319
125,0.206583,38.293
126,0.20825,38.265
127,0.209917,38.265
128,0.211583,38.3
129,0.21325,38.289
130,0.214917,38.323
131,0.216583,38.323
132,0.21825,38.353
133,0.219917,38.335
134,0.221583,38.335
135,0.22325,38.321
136,0.224917,38.311
137,0.226583,38.32
138,0.22825,38.32
139,0.229917,38.343
140,0.2316,38.363
141,0.233283,38.341
142,0.234933,38.341
143,0.236583,38.311
144,0.23825,38.292
145,0.239917,38.319
146,0.241583,38.319
147,0.24325,38.354
148,0.244917,38.417
149,0.246583,38.439
150,0.24825,38.439
151,0.249917,38.419
152,0.251583,38.407
153,0.2533,38.407
154,0.254917,38.375
155,0.256583,38.414
156,0.25825,38.449
157,0.2599,38.449
158,0.261567,38.502
159,0.263233,38.538
160,0.2649,38.545
161,0.266567,38.545
162,0.268233,38.588
163,0.2699,38.6
164,0.271567,38.626
165,0.273233,38.626
166,0.2749,38.651
167,0.276567,38.692
168,0.278233,38.692
169,0.2799,38.78
170,0.281567,38.856
171,0.283233,38.95
172,0.2849,38.95
173,0.286667,39.032
174,0.288233,39.093
175,0.2899,39.2
176,0.291567,39.2
177,0.293233,39.335
178,0.2949,39.499
179,0.296567,39.66
180,0.298233,39.66
181,0.2999,39.845
182,0.301567,40.039
183,0.303233,40.324
184,0.3049,40.324
185,0.306567,40.711
186,0.308267,41.24
187,0.3099,41.24
188,0.311567,41.901
189,0.313233,42.71
190,0.3149,43.68
191,0.316567,43.68
192,0.318233,44.795
193,0.3199,46.165
194,0.321567,47.7
195,0.323233,47.7
196,0.324883,49.395
197,0.32655,51.155
198,0.328217,52.841
199,0.329883,52.841
200,0.33155,54.43
201,0.333217,55.818
202,0.334883,55.818
203,0.33655,57.005
204,0.338217,57.884
205,0.339883,58.389
206,0.34155,58.389
207,0.343217,58.609
208,0.344883,58.499
209,0.34655,58.17
210,0.348217,58.17
211,0.349883,57.677
212,0.35155,57.012
213,0.353217,56.24
214,0.354883,56.24
215,0.35655,55.38
216,0.358217,54.483
217,0.3599,53.556
218,0.36155,53.556
219,0.363217,52.656
220,0.364883,51.796
221,0.36655,51.796
222,0.368217,50.971
223,0.369883,50.249
224,0.3716,49.612
225,0.373217,49.612
226,0.374917,49.07
227,0.376567,48.706
228,0.378217,48.532
229,0.379883,48.532
230,0.38155,48.655
231,0.3832,49.236
232,0.384867,50.394
233,0.386533,50.394
234,0.3883,52.39
235,0.389867,55.476
236,0.391533,55.476
237,0.3932,60.043
238,0.394867,66.422
239,0.396533,74.907
240,0.3982,74.907
241,0.399867,85.866
242,0.401533,99.41800000000001
243,0.4032,115.822
244,0.404967,115.822
245,0.406533,135.13
246,0.4082,157.251
247,0.409867,182.03
248,0.411533,182.03
249,0.4132,209.014
250,0.414867,237.894
251,0.416533,237.894
252,0.4182,268.039
253,0.419867,299.016
254,0.421533,330.299
255,0.4232,330.299
256,0.424867,361.367
257,0.426533,391.901
258,0.4282,421.52
259,0.429867,421.52
260,0.431533,450.011
261,0.4332,477.129
262,0.434867,502.773
263,0.436533,502.773
264,0.4382,526.872
265,0.439867,549.379
266,0.441533,570.316
267,0.443183,570.316
268,0.44485,589.6900000000001
269,0.446517,607.543
270,0.448183,607.543
271,0.44985,624.048
272,0.451517,639.182
273,0.4532,653.048
274,0.454917,653.048
275,0.456517,665.7619999999999
276,0.458183,677.265
277,0.45985,687.716
278,0.461517,687.716
279,0.463183,697.203
280,0.46485,705.744
281,0.466517,713.465
282,0.468183,713.465
283,0.46985,720.443
284,0.471517,726.655
285,0.473183,726.655
286,0.47485,732.183
287,0.476517,737.096
288,0.478183,741.389
289,0.47985,741.389
290,0.481517,745.1319999999999
291,0.483167,748.412
292,0.484833,751.171
293,0.4865,751.171
294,0.488167,753.508
295,0.489833,755.457
296,0.4915,756.9690000000001
297,0.493167,756.9690000000001
298,0.494833,758.103
299,0.4965,758.899
300,0.498167,759.365
301,0.499833,759.365
302,0.5014999999999999,759.592
303,0.50315,759.6130000000001
304,0.504817,759.6130000000001
305,0.506567,759.354
306,0.50815,758.918
307,0.509817,758.2380000000001
308,0.511483,758.2380000000001
309,0.51315,757.343
310,0.514817,756.269
311,0.516483,754.968
312,0.51815,754.968
313,0.519817,753.485
314,0.521483,751.856
315,0.523183,750.1369999999999
316,0.524817,750.1369999999999
317,0.526483,748.301
318,0.52815,746.413
319,0.529817,746.413
320,0.531483,744.379
321,0.53315,742.206
322,0.534833,739.963
323,0.536483,739.963
324,0.53815,737.556
325,0.539933,735.079
326,0.541483,732.568
327,0.54315,732.568
328,0.544817,730.006
329,0.5464830000000001,727.402
330,0.54815,724.779
331,0.549817,724.779
332,0.5514829999999999,722.11
333,0.55315,719.331
334,0.554817,719.331
335,0.5564829999999999,716.503
336,0.55815,713.5700000000001
337,0.559817,710.612
338,0.561483,710.612
339,0.563133,707.6420000000001
340,0.5648,704.674
341,0.5664670000000001,701.723
342,0.568133,701.723
343,0.5698,698.7089999999999
344,0.5714669999999999,695.67
345,0.573133,692.577
346,0.5748,692.577
347,0.576467,689.437
348,0.578133,686.316
349,0.5798,683.221
350,0.581467,683.221
351,0.583133,680.102
352,0.5848,677.04
353,0.586467,677.04
354,0.588133,673.967
355,0.5898,670.849
356,0.591467,667.772
357,0.593133,667.772
358,0.5948329999999999,664.622
359,0.596467,661.478
360,0.598133,658.351
361,0.5998,658.351
362,0.601517,655.175
363,0.603133,652.044
364,0.6048,648.893
365,0.606467,648.893
366,0.608133,645.749
367,0.6098,642.651
368,0.611467,642.651
369,0.613133,639.556
370,0.6148,636.495
371,0.616467,633.451
372,0.618133,633.451
373,0.6198,630.372
374,0.621467,627.306
375,0.623117,624.198
376,0.62485,624.198
377,0.62645,621.099
378,0.628117,618.0170000000001
379,0.629783,614.946
380,0.63145,614.946
381,0.633117,611.896
382,0.634783,608.843
383,0.63645,605.836
384,0.638117,605.836
385,0.639783,602.819
386,0.6415,599.831
387,0.643117,599.831
388,0.644783,596.86
389,0.64645,593.8630000000001
390,0.6481170000000001,590.86
391,0.649783,590.86
392,0.65145,587.824
393,0.6531169999999999,584.8150000000001
394,0.654783,581.871
395,0.65645,581.871
396,0.658233,578.944
397,0.659783,576.0700000000001
398,0.66145,573.16
399,0.663117,573.16
400,0.664783,570.229
401,0.66645,567.324
402,0.668117,567.324
403,0.669783,564.427
404,0.671467,561.535
405,0.673117,558.674
406,0.674783,558.674
407,0.67645,555.829
408,0.678117,552.99
409,0.679783,550.228
410,0.68145,550.228
411,0.6831,547.448
412,0.684767,544.664
413,0.686433,541.879
414,0.6881,541.879
415,0.689767,539.078
416,0.691433,536.2859999999999
417,0.6931,533.5410000000001
418,0.694783,533.5410000000001
419,0.696433,530.8200000000001
420,0.6981000000000001,528.123
421,0.699767,528.123
422,0.701433,525.421
423,0.7030999999999999,522.698
424,0.704767,519.996
425,0.706433,519.996
426,0.7081,517.321
427,0.709767,514.668
428,0.711433,512.0599999999999
429,0.7131,512.0599999999999
430,0.714767,509.44
431,0.716433,506.811
432,0.7181,504.195
433,0.719767,504.195
434,0.721433,501.594
435,0.7231,499.026
436,0.7247670000000001,499.026
437,0.726433,496.455
438,0.7281,493.91
439,0.7297670000000001,491.346
440,0.731433,491.346
441,0.7331,488.823
442,0.7347669999999999,486.318
443,0.736467,483.815
444,0.7381,483.815
445,0.739767,481.351
446,0.741433,478.873
447,0.743117,476.415
448,0.74475,476.415
449,0.746417,474.001
450,0.7480830000000001,471.558
451,0.74975,469.114
452,0.751417,469.114
453,0.7530829999999999,466.727
454,0.75475,464.357
455,0.756417,464.357
456,0.758083,462.023
457,0.75975,459.69
458,0.761417,457.317
459,0.7631,457.317
460,0.76475,454.95
461,0.766417,452.629
462,0.768083,450.365
463,0.76975,450.365
464,0.771417,448.088
465,0.773083,445.797
466,0.774733,443.507
467,0.7765,443.507
468,0.778067,441.198
469,0.779733,438.939
470,0.7814,438.939
471,0.783117,436.728
472,0.784733,434.487
473,0.7864,432.292
474,0.788067,432.292
475,0.789733,430.093
476,0.7914,427.943
477,0.793067,425.849
478,0.794733,425.849
479,0.7964,423.716
480,0.798067,421.609
481,0.799733,419.443
482,0.801383,419.443
483,0.80305,417.293
484,0.804717,415.224
485,0.806383,415.224
486,0.80805,413.177
487,0.809733,411.147
488,0.811433,409.126
489,0.8130500000000001,409.126
490,0.814717,407.063
491,0.816383,405.021
492,0.8180500000000001,403.006
493,0.819717,403.006
494,0.821383,401.001
495,0.8230499999999999,399.005
496,0.824717,397.041
497,0.826383,397.041
498,0.82805,395.107
499,0.829717,393.172
500,0.831383,391.252
501,0.83305,391.252
502,0.834717,389.335
503,0.836383,387.407
504,0.83805,387.407
505,0.839717,385.507
506,0.841383,383.619
507,0.84305,381.722
508,0.8447170000000001,381.722
509,0.846383,379.877
510,0.84805,378.055
511,0.8497169999999999,376.249
512,0.851383,376.249
513,0.85305,374.459
514,0.8547169999999999,372.636
515,0.856383,370.824
516,0.858083,370.824
517,0.859717,369.028
518,0.861367,367.255
519,0.8630330000000001,367.255
520,0.8647,365.489
521,0.866367,363.736
522,0.8680330000000001,361.999
523,0.8697,361.999
524,0.871367,360.26
525,0.8730329999999999,358.556
526,0.8747,356.825
527,0.876367,356.825
528,0.878067,355.139
529,0.8797,353.484
530,0.881367,351.81
531,0.883033,351.81
532,0.8847,350.17
533,0.886367,348.525
534,0.888033,346.88
535,0.8897,346.88
536,0.891367,345.259
537,0.893033,343.643
538,0.894817,342.039
539,0.896367,342.039
540,0.898033,340.456
541,0.8997000000000001,338.905
542,0.901367,338.905
543,0.903033,337.373
544,0.9046999999999999,335.849
545,0.906367,334.305
546,0.908033,334.305
547,0.9097,332.757
548,0.911367,331.198
549,0.913033,329.658
550,0.9147,329.658
551,0.916367,328.161
552,0.918033,326.647
553,0.9197,326.647
554,0.92135,325.198
555,0.923017,323.719
556,0.924683,322.25
557,0.92635,322.25
558,0.928017,320.794
559,0.929683,319.345
560,0.93135,317.909
561,0.933017,317.909
562,0.934683,316.498
563,0.93635,315.118
564,0.938033,313.71
565,0.939683,313.71
566,0.94135,312.348
567,0.943017,310.958
568,0.9446830000000001,309.557
569,0.946383,309.557
570,0.948017,308.208
571,0.9496830000000001,306.85
572,0.9514,306.85
573,0.953017,305.503
574,0.9546829999999999,304.195
575,0.95635,302.859
576,0.958017,302.859
577,0.959683,301.539
578,0.96135,300.217
579,0.963017,298.889
580,0.964683,298.889
581,0.96635,297.595
582,0.968017,296.304
583,0.969683,295.033
584,0.97135,295.033
585,0.973017,293.761
586,0.974683,292.48
587,0.9763500000000001,292.48
588,0.978017,291.25
589,0.979733,290.003
590,0.9813499999999999,288.764
591,0.983017,288.764
592,0.984667,287.577
593,0.986333,286.344
594,0.988,285.132
595,0.989667,285.132
596,0.991333,283.951
597,0.993,282.735
598,0.994667,281.556
599,0.996333,281.556
600,0.998,280.395
601,0.999667,279.219
602,1.001333,279.219
603,1.003,278.055
604,1.004667,276.877
605,1.006333,275.723
606,1.008,275.723
607,1.009667,274.606
608,1.011333,273.496
609,1.0131,272.367
610,1.014667,272.367
611,1.016333,271.253
612,1.018,270.151
613,1.019667,269.052
614,1.021333,269.052
615,1.023,267.999
616,1.024667,266.907
617,1.026333,265.819
618,1.028033,265.819
619,1.029733,264.738
620,1.031333,263.668
621,1.033,263.668
622,1.034667,262.64
623,1.036333,261.588
624,1.038,260.545
625,1.039667,260.545
626,1.041333,259.462
627,1.042983,258.409
628,1.04465,257.371
629,1.046317,257.371
630,1.047983,256.33
631,1.04965,255.338
632,1.051317,254.325
633,1.052983,254.325
634,1.05465,253.344
635,1.056317,252.351
636,1.057983,252.351
637,1.05965,251.368
638,1.061317,250.388
639,1.062983,249.39
640,1.06465,249.39
641,1.0663,248.443
642,1.067967,247.468
643,1.069633,246.505
644,1.0713,246.505
645,1.072967,245.561
646,1.074633,244.636
647,1.0763,243.723
648,1.077967,243.723
649,1.079633,242.838
650,1.0813,241.937
651,1.082967,240.992
652,1.084633,240.992
653,1.0863,240.076
654,1.087967,239.159
655,1.089633,239.159
656,1.0913,238.241
657,1.093,237.326
658,1.094717,236.428
659,1.0963,236.428
660,1.098033,235.519
661,1.099633,234.645
662,1.1013,233.833
663,1.10295,233.833
664,1.104617,232.979
665,1.106283,232.125
666,1.10795,231.257
667,1.109617,231.257
668,1.111283,230.361
669,1.112967,229.514
670,1.114617,229.514
671,1.116283,228.66
672,1.11795,227.855
673,1.119617,227.047
674,1.121283,227.047
675,1.12295,226.2
676,1.124617,225.414
677,1.126283,224.602
678,1.12795,224.602
679,1.129617,223.789
680,1.1314,223.005
681,1.13295,222.194
682,1.134617,222.194
683,1.136283,221.394
684,1.13795,220.63
685,1.139617,219.848
686,1.141283,219.848
687,1.14295,219.058
688,1.144617,218.255
689,1.146283,218.255
690,1.14795,217.45
691,1.149617,216.667
692,1.151283,215.887
693,1.15295,215.887
694,1.154617,215.144
695,1.156283,214.408
696,1.15795,213.679
697,1.159617,213.679
698,1.161283,212.944
699,1.162933,212.195
700,1.1646,211.441
701,1.166267,211.441
702,1.167983,210.682
703,1.1696,209.954
704,1.171267,209.954
705,1.172933,209.262
706,1.1746,208.536
707,1.176267,207.829
708,1.177933,207.829
709,1.1796,207.122
710,1.181267,206.409
711,1.182933,205.714
712,1.1846,205.714
713,1.186267,205.037
714,1.187933,204.372
715,1.1896,203.688
716,1.191267,203.688
717,1.192933,203.018
718,1.1946,202.311
719,1.196267,202.311
720,1.197933,201.628
721,1.1996,200.944
722,1.201267,200.251
723,1.202933,200.251
724,1.2046,199.62
725,1.206267,198.965
726,1.207933,198.33
727,1.2096,198.33
728,1.211267,197.727
729,1.212933,197.092
730,1.2146,196.443
731,1.216317,196.443
732,1.217933,195.748
733,1.2196,195.062
734,1.221267,194.383
735,1.222917,194.383
736,1.224583,193.718
737,1.22625,193.127
738,1.227917,193.127
739,1.229583,192.512
740,1.23125,191.914
741,1.233,191.318
742,1.2346,191.318
743,1.236267,190.688
744,1.237917,190.105
745,1.239583,189.528
746,1.24125,189.528
747,1.242917,188.974
748,1.244583,188.454
749,1.24625,187.845
750,1.247917,187.845
751,1.2497,187.27
752,1.25125,186.645
753,1.252917,186.645
754,1.254583,185.957
755,1.25625,185.338
756,1.257917,184.686
757,1.259583,184.686
758,1.26125,184.095
759,1.262917,183.544
760,1.264583,183.005
761,1.26635,183.005
762,1.267917,182.456
763,1.269583,181.882
764,1.27125,181.33
765,1.272917,181.33
766,1.274583,180.789
767,1.27625,180.284
768,1.277917,179.757
769,1.279583,179.757
770,1.28125,179.204
771,1.2829,178.629
772,1.284567,178.629
773,1.286233,178.051
774,1.2879,177.471
775,1.289567,176.93
776,1.291233,176.93
777,1.2929,176.424
778,1.294567,175.916
779,1.296233,175.44
780,1.2979,175.44
781,1.299567,174.937
782,1.301233,174.398
783,1.3029,173.857
784,1.304567,173.857
785,1.30625,173.336
786,1.3079,172.853
787,1.309567,172.853
788,1.311233,172.376
789,1.3129,171.836
790,1.314567,171.343
791,1.316233,171.343
792,1.3179,170.845
793,1.319567,170.355
794,1.321267,169.882
795,1.3229,169.882
796,1.324567,169.384
797,1.326233,168.873
798,1.3279,168.36
799,1.329567,168.36
800,1.331233,167.913
801,1.3329,167.427
802,1.334567,166.928
803,1.336233,166.928
804,1.3379,166.467
805,1.339567,165.948
806,1.341233,165.948
807,1.342883,165.484
808,1.34455,165.027
809,1.346217,164.532
810,1.347883,164.532
811,1.34955,164.086
812,1.3513,163.62
813,1.352883,163.161
814,1.35455,163.161
815,1.356217,162.698
816,1.357867,162.245
817,1.359533,161.795
818,1.3612,161.795
819,1.362867,161.345
820,1.364533,160.907
821,1.3662,160.907
822,1.367967,160.459
823,1.369533,159.98
824,1.3712,159.512
825,1.372867,159.512
826,1.374533,159.081
827,1.3762,158.663
828,1.377867,158.226
829,1.37955,158.226
830,1.3812,157.783
831,1.382867,157.367
832,1.384617,156.923
833,1.3862,156.923
834,1.387867,156.5
835,1.389533,156.087
836,1.3912,156.087
837,1.392867,155.68
838,1.394533,155.264
839,1.3962,154.845
840,1.397867,154.845
841,1.399533,154.43
842,1.4012,153.99
843,1.40285,153.563
844,1.404517,153.563
845,1.406183,153.174
846,1.407867,152.776
847,1.409567,152.408
848,1.411183,152.408
849,1.41285,152.029
850,1.414517,151.622
851,1.416183,151.221
852,1.41785,151.221
853,1.419517,150.781
854,1.421183,150.391
855,1.42285,150.391
856,1.424517,150.015
857,1.426183,149.651
858,1.42785,149.301
859,1.429517,149.301
860,1.431183,148.896
861,1.43285,148.479
862,1.434517,148.047
863,1.436183,148.047
864,1.43785,147.588
865,1.439517,147.179
866,1.441183,146.836
867,1.44285,146.836
868,1.444517,146.515
869,1.446183,146.138
870,1.447867,146.138
871,1.449517,145.765
872,1.451183,145.37
873,1.45285,144.959
874,1.454517,144.959
875,1.456183,144.618
876,1.45785,144.258
877,1.459517,143.915
878,1.461183,143.915
879,1.462833,143.598
880,1.4645,143.243
881,1.466167,142.897
882,1.467833,142.897
883,1.469533,142.509
884,1.471167,142.095
885,1.472833,141.743
886,1.4745,141.743
887,1.476167,141.366
888,1.477833,141.016
889,1.4795,141.016
890,1.481167,140.686
891,1.482833,140.35
892,1.4845,140.048
893,1.48625,140.048
894,1.487833,139.721
895,1.4895,139.372
896,1.491167,139.011
897,1.492833,139.011
898,1.494533,138.663
899,1.496167,138.325
900,1.497833,137.979
901,1.4995,137.979
902,1.501167,137.659
903,1.502933,137.289
904,1.5045,137.289
905,1.506167,136.926
906,1.507833,136.582
907,1.5095,136.257
908,1.511167,136.257
909,1.512833,135.962
910,1.5145,135.661
911,1.516167,135.397
912,1.517833,135.397
913,1.5195,135.046
914,1.521167,134.721
915,1.522817,134.402
916,1.524483,134.402
917,1.526167,134.042
918,1.527867,133.76
919,1.529483,133.436
920,1.53115,133.436
921,1.532817,133.079
922,1.534483,132.743
923,1.53615,132.743
924,1.537817,132.418
925,1.539483,132.131
926,1.54115,131.886
927,1.542817,131.886
928,1.544483,131.623
929,1.54615,131.326
930,1.547817,131.013
931,1.549483,131.013
932,1.55115,130.698
933,1.552817,130.384
934,1.554483,130.092
935,1.55615,130.092
936,1.557817,129.807
937,1.559483,129.544
938,1.56115,129.544
939,1.562817,129.258
940,1.564483,128.984
941,1.56615,128.67
942,1.567817,128.67
943,1.5695,128.37
944,1.57115,128.129
945,1.57285,127.828
946,1.574483,127.828
947,1.57615,127.564
948,1.577817,127.299
949,1.579483,126.97
950,1.58115,126.97
951,1.5828,126.678
952,1.584467,126.389
953,1.586133,126.389
954,1.5878,126.016
955,1.589467,125.758
956,1.591133,125.444
957,1.5928,125.444
958,1.594467,125.161
959,1.59615,124.937
960,1.5978,124.644
961,1.599467,124.644
962,1.601133,124.395
963,1.6028,124.133
964,1.604467,123.855
965,1.606133,123.855
966,1.6078,123.61
