"ID","sea_time","fid_signal"
1,0,28.866
2,0.001667,28.863
3,0.003333,28.864
4,0.005,28.862
5,0.006667,28.862
6,0.008333,28.849
7,0.01,28.8
8,0.011667,28.727
9,0.013317,28.727
10,0.015,28.666
11,0.01665,28.64
12,0.018317,28.67
13,0.019983,28.67
14,0.02165,28.73
15,0.023317,28.789
16,0.024983,28.826
17,0.026767,28.826
18,0.028317,28.856
19,0.029983,28.874
20,0.03165,28.874
21,0.0333,28.882
22,0.034967,28.891
23,0.036633,28.897
24,0.0383,28.897
25,0.039967,28.901
26,0.041633,28.902
27,0.0433,28.904
28,0.044967,28.904
29,0.046633,28.9
30,0.0483,28.899
31,0.049967,28.899
32,0.05165,28.899
33,0.0533,28.898
34,0.054967,28.895
35,0.056633,28.895
36,0.058317,28.89
37,0.059967,28.885
38,0.061633,28.883
39,0.0633,28.883
40,0.064967,28.885
41,0.066633,28.885
42,0.0683,28.888
43,0.069967,28.888
44,0.071633,28.892
45,0.0733,28.888
46,0.07495,28.893
47,0.076617,28.893
48,0.07829999999999999,28.889
49,0.079983,28.885
50,0.081617,28.885
51,0.083283,28.882
52,0.08495,28.873
53,0.086617,28.877
54,0.088283,28.877
55,0.08995,28.884
56,0.091617,28.896
57,0.093283,28.895
58,0.09495000000000001,28.895
59,0.09661699999999999,28.892
60,0.098283,28.885
61,0.09995,28.872
62,0.101617,28.872
63,0.103283,28.874
64,0.10495,28.872
65,0.106617,28.877
66,0.108283,28.877
67,0.10995,28.884
68,0.111617,28.888
69,0.113283,28.888
70,0.11495,28.905
71,0.116617,28.912
72,0.118283,28.916
73,0.11995,28.916
74,0.12165,28.921
75,0.123283,28.907
76,0.12495,28.898
77,0.126617,28.898
78,0.128283,28.893
79,0.12995,28.891
80,0.1316,28.897
81,0.133267,28.897
82,0.134933,28.906
83,0.1366,28.91
84,0.138267,28.91
85,0.139933,28.909
86,0.1416,28.913
87,0.143267,28.909
88,0.145067,28.909
89,0.1466,28.906
90,0.148267,28.901
91,0.149933,28.897
92,0.1516,28.897
93,0.153267,28.9
94,0.154933,28.903
95,0.1566,28.909
96,0.158267,28.909
97,0.159933,28.904
98,0.1616,28.899
99,0.163267,28.899
100,0.164933,28.899
101,0.1666,28.893
102,0.1683,28.888
103,0.169933,28.888
104,0.1716,28.889
105,0.173267,28.889
106,0.174933,28.888
107,0.1766,28.888
108,0.178267,28.889
109,0.179933,28.885
110,0.1816,28.878
111,0.183267,28.878
112,0.184933,28.877
113,0.1866,28.879
114,0.188267,28.876
115,0.189933,28.876
116,0.191583,28.876
117,0.193267,28.881
118,0.19495,28.881
119,0.196583,28.881
120,0.19825,28.881
121,0.199917,28.881
122,0.201583,28.881
123,0.20325,28.88
124,0.204917,28.885
125,0.206583,28.888
126,0.20825,28.888
127,0.209917,28.895
128,0.211583,28.887
129,0.21325,28.879
130,0.214917,28.879
131,0.216583,28.876
132,0.21825,28.866
133,0.219917,28.875
134,0.221583,28.875
135,0.22325,28.876
136,0.224917,28.884
137,0.226583,28.884
138,0.22825,28.892
139,0.229983,28.892
140,0.231583,28.894
141,0.23325,28.894
142,0.234917,28.894
143,0.236583,28.888
144,0.23825,28.887
145,0.239917,28.887
146,0.241583,28.894
147,0.24325,28.896
148,0.244917,28.898
149,0.246583,28.898
150,0.248267,28.894
151,0.249917,28.894
152,0.251583,28.894
153,0.25325,28.896
154,0.2549,28.908
155,0.256567,28.916
156,0.258233,28.916
157,0.2599,28.927
158,0.261567,28.936
159,0.263283,28.944
160,0.2649,28.944
161,0.266567,28.952
162,0.268233,28.959
163,0.2699,28.967
164,0.271617,28.967
165,0.273233,28.975
166,0.2749,28.988
167,0.276567,28.995
168,0.278233,28.995
169,0.2799,29.009
170,0.281567,29.022
171,0.283233,29.022
172,0.2849,29.045
173,0.286583,29.072
174,0.288233,29.099
175,0.2899,29.099
176,0.291567,29.131
177,0.293233,29.165
178,0.2949,29.209
179,0.296567,29.209
180,0.298233,29.259
181,0.2999,29.311
182,0.301567,29.372
183,0.303233,29.372
184,0.3049,29.437
185,0.306567,29.514
186,0.308233,29.514
187,0.3099,29.606
188,0.311567,29.707
189,0.313233,29.827
190,0.314883,29.827
191,0.31655,29.965
192,0.318217,30.122
193,0.319883,30.311
194,0.32155,30.311
195,0.323217,30.523
196,0.324867,30.758
197,0.326533,31.018
198,0.3282,31.018
199,0.329867,31.29
200,0.331533,31.57
201,0.333233,31.853
202,0.334867,31.853
203,0.33655,32.12
204,0.3382,32.364
205,0.339867,32.364
206,0.341533,32.578
207,0.3432,32.749
208,0.344867,32.881
209,0.346533,32.881
210,0.348267,32.966
211,0.349867,33.012
212,0.351533,33.019
213,0.3532,33.019
214,0.354867,32.979
215,0.356533,32.906
216,0.3582,32.8
217,0.359867,32.8
218,0.361533,32.668
219,0.3632,32.523
220,0.364867,32.523
221,0.366533,32.365
222,0.3682,32.203
223,0.369867,32.037
224,0.371533,32.037
225,0.3732,31.868
226,0.37485,31.701
227,0.376517,31.535
228,0.378183,31.535
229,0.37985,31.378
230,0.3816,31.233
231,0.383183,31.09
232,0.38485,31.09
233,0.386517,30.955
234,0.388183,30.819
235,0.38985,30.819
236,0.391517,30.693
237,0.393183,30.575
238,0.39485,30.465
239,0.396517,30.465
240,0.398183,30.367
241,0.39985,30.266
242,0.401517,30.181
243,0.403183,30.181
244,0.40485,30.098
245,0.406517,30.02
246,0.408183,29.956
247,0.40985,29.956
248,0.411517,29.884
249,0.413233,29.818
250,0.414917,29.757
251,0.416517,29.757
252,0.418183,29.704
253,0.41985,29.66
254,0.421517,29.66
255,0.423183,29.624
256,0.42485,29.596
257,0.426517,29.568
258,0.428183,29.568
259,0.42985,29.548
260,0.431517,29.53
261,0.433167,29.504
262,0.434833,29.504
263,0.4365,29.479
264,0.438167,29.467
265,0.439833,29.46
266,0.4415,29.46
267,0.443167,29.465
268,0.444833,29.477
269,0.4465,29.477
270,0.448167,29.488
271,0.449833,29.508
272,0.4515,29.535
273,0.453167,29.535
274,0.454833,29.573
275,0.4565,29.607
276,0.458167,29.648
277,0.459833,29.648
278,0.461517,29.695
279,0.463167,29.744
280,0.464833,29.814
281,0.46655,29.814
282,0.468167,29.887
283,0.469833,29.971
284,0.4715,30.067
285,0.473167,30.067
286,0.474833,30.173
287,0.4765,30.282
288,0.478167,30.282
289,0.479833,30.399
290,0.4815,30.522
291,0.483217,30.653
292,0.484833,30.653
293,0.486533,30.801
294,0.488167,30.966
295,0.489833,31.14
296,0.4915,31.14
297,0.49315,31.313
298,0.494817,31.499
299,0.496483,31.687
300,0.49815,31.687
301,0.499917,31.888
302,0.501483,32.1
303,0.50315,32.1
304,0.504817,32.325
305,0.506483,32.555
306,0.50815,32.802
307,0.509817,32.802
308,0.511483,33.061
309,0.51315,33.324
310,0.514817,33.604
311,0.516583,33.604
312,0.51815,33.886
313,0.519817,34.171
314,0.521483,34.467
315,0.52315,34.467
316,0.524817,34.769
317,0.526483,35.08
318,0.52815,35.08
319,0.529817,35.4
320,0.531483,35.731
321,0.53315,36.06
322,0.534817,36.06
323,0.536483,36.393
324,0.53815,36.743
325,0.539817,37.09
326,0.541483,37.09
327,0.54315,37.445
328,0.544817,37.802
329,0.5464830000000001,38.162
330,0.54815,38.162
331,0.549817,38.529
332,0.5514829999999999,38.903
333,0.55315,39.284
334,0.5548,39.284
335,0.556467,39.665
336,0.558167,40.044
337,0.55985,40.044
338,0.561467,40.42
339,0.563133,40.799
340,0.5648,41.178
341,0.5664670000000001,41.178
342,0.568133,41.561
343,0.569833,41.946
344,0.5714669999999999,42.325
345,0.573133,42.325
346,0.5748,42.705
347,0.576467,43.084
348,0.578133,43.47
349,0.5798,43.47
350,0.581467,43.858
351,0.583133,44.243
352,0.584833,44.243
353,0.586467,44.626
354,0.588133,45.007
355,0.5898,45.38
356,0.591467,45.38
357,0.593133,45.75
358,0.5948,46.12
359,0.596467,46.486
360,0.598133,46.486
361,0.5998,46.854
362,0.601533,47.222
363,0.603133,47.588
364,0.6048,47.588
365,0.606467,47.948
366,0.608133,48.309
367,0.6098,48.659
368,0.611467,48.659
369,0.613133,48.998
370,0.614767,49.34
371,0.616433,49.34
372,0.6182,49.669
373,0.619767,49.998
374,0.621433,50.329
375,0.6231,50.329
376,0.624767,50.648
377,0.626433,50.969
378,0.6281,51.29
379,0.629767,51.29
380,0.63145,51.604
381,0.63315,51.909
382,0.634883,52.215
383,0.63645,52.215
384,0.6381,52.506
385,0.639767,52.801
386,0.641433,52.801
387,0.6431,53.097
388,0.644767,53.382
389,0.646433,53.671
390,0.6481,53.671
391,0.649767,53.943
392,0.651433,54.217
393,0.6531,54.487
394,0.654767,54.487
395,0.65645,54.744
396,0.6581,55.009
397,0.659767,55.26
398,0.661433,55.26
399,0.6631,55.504
400,0.664767,55.75
401,0.6664330000000001,55.75
402,0.6681,55.989
403,0.669767,56.216
404,0.6714329999999999,56.45
405,0.6731,56.45
406,0.67475,56.676
407,0.676417,56.902
408,0.678083,57.127
409,0.67975,57.127
410,0.6814170000000001,57.347
411,0.683083,57.56
412,0.68475,57.764
413,0.6864170000000001,57.764
414,0.688083,57.973
415,0.68975,58.163
416,0.6914169999999999,58.352
417,0.693083,58.352
418,0.69475,58.544
419,0.696417,58.729
420,0.698117,58.729
421,0.69975,58.918
422,0.701417,59.103
423,0.7030999999999999,59.278
424,0.70475,59.278
425,0.706417,59.452
426,0.708083,59.623
427,0.70975,59.789
428,0.711417,59.789
429,0.713083,59.956
430,0.71475,60.108
431,0.716417,60.256
432,0.718083,60.256
433,0.71985,60.402
434,0.721417,60.545
435,0.723083,60.545
436,0.72475,60.693
437,0.726417,60.839
438,0.728083,60.977
439,0.72975,60.977
440,0.731417,61.112
441,0.733083,61.244
442,0.734733,61.371
443,0.736483,61.371
444,0.738067,61.498
445,0.739733,61.62
446,0.7413999999999999,61.739
447,0.743083,61.739
448,0.744733,61.855
449,0.7464,61.971
450,0.748067,62.083
451,0.749733,62.083
452,0.7514,62.192
453,0.753183,62.297
454,0.754733,62.297
455,0.7564,62.4
456,0.758067,62.501
457,0.759733,62.6
458,0.7614,62.6
459,0.7630670000000001,62.693
460,0.764733,62.778
461,0.7664,62.858
462,0.7680670000000001,62.858
463,0.769733,62.939
464,0.7714,63.022
465,0.7730669999999999,63.101
466,0.774733,63.101
467,0.776433,63.176
468,0.778067,63.252
469,0.779733,63.252
470,0.7814,63.329
471,0.783067,63.408
472,0.784733,63.488
473,0.7864,63.488
474,0.788067,63.558
475,0.789733,63.622
476,0.7914,63.684
477,0.793067,63.684
478,0.794717,63.745
479,0.796383,63.802
480,0.79805,63.865
481,0.799717,63.865
482,0.801383,63.926
483,0.80305,63.989
484,0.804717,64.05200000000001
485,0.806383,64.05200000000001
486,0.80805,64.10599999999999
487,0.809717,64.16
488,0.811383,64.16
489,0.8130500000000001,64.20699999999999
490,0.814717,64.249
491,0.816383,64.29000000000001
492,0.8180500000000001,64.29000000000001
493,0.81975,64.32599999999999
494,0.821383,64.364
495,0.8230499999999999,64.40600000000001
496,0.824717,64.40600000000001
497,0.826383,64.443
498,0.82805,64.483
499,0.829717,64.51600000000001
500,0.831383,64.51600000000001
501,0.83305,64.54900000000001
502,0.834717,64.58499999999999
503,0.836383,64.58499999999999
504,0.83805,64.611
505,0.839717,64.639
506,0.841383,64.667
507,0.84305,64.667
508,0.8447170000000001,64.694
509,0.846417,64.727
510,0.84805,64.752
511,0.8497169999999999,64.752
512,0.851383,64.773
513,0.85305,64.797
514,0.8547169999999999,64.81100000000001
515,0.856367,64.81100000000001
516,0.858033,64.827
517,0.8597,64.851
518,0.861367,64.864
519,0.8630330000000001,64.864
520,0.864717,64.881
521,0.866367,64.896
522,0.8680330000000001,64.896
523,0.8697,64.91200000000001
524,0.871367,64.926
525,0.8730329999999999,64.93600000000001
526,0.8747,64.93600000000001
527,0.876367,64.94499999999999
528,0.878033,64.947
529,0.8797,64.95399999999999
530,0.881367,64.95399999999999
531,0.883033,64.964
532,0.8847,64.97499999999999
533,0.886367,64.98099999999999
534,0.888033,64.98099999999999
535,0.8897,64.986
536,0.891367,64.988
537,0.893033,64.988
538,0.8947000000000001,64.992
539,0.896367,64.98999999999999
540,0.898033,64.985
541,0.8997000000000001,64.985
542,0.901367,64.982
543,0.903033,64.97799999999999
544,0.9046999999999999,64.979
545,0.906367,64.979
546,0.908017,64.97799999999999
547,0.909683,64.974
548,0.91135,64.967
549,0.913017,64.967
550,0.914667,64.95699999999999
551,0.916333,64.94499999999999
552,0.918033,64.94499999999999
553,0.919717,64.934
554,0.921333,64.91800000000001
555,0.923,64.90900000000001
556,0.924667,64.90900000000001
557,0.926333,64.899
558,0.928,64.88800000000001
559,0.929667,64.887
560,0.931333,64.887
561,0.9330000000000001,64.877
562,0.934667,64.86799999999999
563,0.936333,64.857
564,0.9379999999999999,64.857
565,0.939667,64.84
566,0.941333,64.825
567,0.9429999999999999,64.81399999999999
568,0.944667,64.81399999999999
569,0.946333,64.798
570,0.948,64.782
571,0.949667,64.782
572,0.951333,64.764
573,0.953,64.74299999999999
574,0.954667,64.72499999999999
575,0.956333,64.72499999999999
576,0.958,64.7
577,0.959667,64.673
578,0.961333,64.648
579,0.963,64.648
580,0.9646670000000001,64.626
581,0.966333,64.60599999999999
582,0.968,64.587
583,0.9696669999999999,64.587
584,0.971333,64.56999999999999
585,0.972983,64.548
586,0.974667,64.548
587,0.976317,64.52800000000001
588,0.977983,64.502
589,0.97965,64.477
590,0.981317,64.477
591,0.9829830000000001,64.45
592,0.98465,64.423
593,0.986317,64.39700000000001
594,0.9879829999999999,64.39700000000001
595,0.989767,64.371
596,0.991317,64.35299999999999
597,0.993017,64.327
598,0.994733,64.327
599,0.996317,64.303
600,0.997983,64.27500000000001
601,0.99965,64.241
602,1.001317,64.241
603,1.002983,64.20999999999999
604,1.00465,64.18300000000001
605,1.006317,64.18300000000001
606,1.007983,64.155
607,1.00965,64.128
608,1.011317,64.104
609,1.012983,64.104
610,1.01465,64.072
611,1.016317,64.04000000000001
612,1.017983,64.009
613,1.01965,64.009
614,1.021317,63.972
615,1.022983,63.942
616,1.02465,63.91
617,1.026317,63.91
618,1.027983,63.873
619,1.02965,63.84
620,1.031317,63.84
621,1.032967,63.806
622,1.03465,63.769
623,1.0363,63.738
624,1.037967,63.738
625,1.03965,63.702
626,1.0413,63.669
627,1.042967,63.64
628,1.044633,63.64
629,1.0463,63.608
630,1.047967,63.584
631,1.049633,63.553
632,1.0513,63.553
633,1.052967,63.526
634,1.054633,63.497
635,1.0563,63.455
636,1.057967,63.455
637,1.059633,63.416
638,1.061333,63.373
639,1.062983,63.373
640,1.064633,63.334
641,1.0663,63.304
642,1.067967,63.274
643,1.069633,63.274
644,1.0713,63.236
645,1.072967,63.195
646,1.074633,63.151
647,1.0763,63.151
648,1.077967,63.109
649,1.079633,63.071
650,1.0813,63.038
651,1.082967,63.038
652,1.084633,63.006
653,1.0863,62.971
654,1.087967,62.971
655,1.089633,62.94
656,1.091283,62.9
657,1.092967,62.869
658,1.094617,62.869
659,1.096283,62.832
660,1.09795,62.797
661,1.099617,62.759
662,1.101283,62.759
663,1.10295,62.714
664,1.104617,62.671
665,1.106283,62.625
666,1.108083,62.625
667,1.109617,62.588
668,1.111283,62.547
669,1.11295,62.547
670,1.114617,62.508
671,1.116283,62.466
672,1.11795,62.426
673,1.119617,62.426
674,1.121283,62.393
675,1.12295,62.356
676,1.124617,62.321
677,1.126283,62.321
678,1.12795,62.277
679,1.129617,62.233
680,1.131283,62.195
681,1.13295,62.195
682,1.134617,62.154
683,1.136283,62.12
684,1.13795,62.079
685,1.139617,62.079
686,1.141283,62.032
687,1.142983,61.992
688,1.144683,61.992
689,1.146283,61.949
690,1.14795,61.908
691,1.149617,61.865
692,1.151283,61.865
693,1.15295,61.825
694,1.1546,61.785
695,1.156267,61.748
696,1.157933,61.748
697,1.1596,61.713
698,1.161267,61.672
699,1.162933,61.63
700,1.1646,61.63
701,1.166267,61.579
702,1.167933,61.537
703,1.1696,61.537
704,1.171267,61.498
705,1.172933,61.454
706,1.1746,61.417
707,1.176267,61.417
708,1.177933,61.371
709,1.1796,61.331
710,1.181267,61.287
711,1.182933,61.287
712,1.1846,61.247
713,1.186267,61.205
714,1.187933,61.166
715,1.1896,61.166
716,1.191267,61.128
717,1.193,61.085
718,1.1946,61.043
719,1.196267,61.043
720,1.197917,60.987
721,1.199583,60.94
722,1.20125,60.94
723,1.202917,60.89
724,1.204583,60.841
725,1.20625,60.796
726,1.207917,60.796
727,1.209583,60.749
728,1.211283,60.699
729,1.212933,60.651
730,1.214583,60.651
731,1.216233,60.607
732,1.2179,60.567
733,1.219567,60.53
734,1.221233,60.53
735,1.2229,60.488
736,1.224567,60.444
737,1.226317,60.39
738,1.2279,60.39
739,1.229567,60.344
740,1.231233,60.297
741,1.2329,60.297
742,1.234567,60.249
743,1.236233,60.205
744,1.2379,60.162
745,1.239567,60.162
746,1.241233,60.121
747,1.2429,60.083
748,1.244567,60.049
749,1.246233,60.049
750,1.2479,60.013
751,1.249567,59.977
752,1.251233,59.939
753,1.2529,59.939
754,1.254567,59.899
755,1.256233,59.857
756,1.2579,59.857
757,1.259567,59.812
758,1.261233,59.762
759,1.2629,59.708
760,1.264567,59.708
761,1.266233,59.654
762,1.2679,59.608
763,1.269567,59.564
764,1.271233,59.564
765,1.272883,59.529
766,1.27455,59.491
767,1.276217,59.452
768,1.277883,59.452
769,1.27955,59.415
770,1.281217,59.37
771,1.282883,59.37
772,1.284583,59.323
773,1.286217,59.276
774,1.287883,59.226
775,1.28955,59.226
776,1.291217,59.185
777,1.292883,59.149
778,1.29455,59.11
779,1.296217,59.11
780,1.297883,59.067
781,1.299567,59.02
782,1.301217,58.973
783,1.302883,58.973
784,1.30455,58.93
785,1.306217,58.887
786,1.307883,58.887
787,1.30955,58.842
788,1.311267,58.796
789,1.312883,58.751
790,1.31455,58.751
791,1.316217,58.709
792,1.317883,58.665
793,1.31955,58.616
794,1.321217,58.616
795,1.322883,58.563
796,1.32455,58.516
797,1.326217,58.474
798,1.327883,58.474
799,1.32955,58.43
800,1.331217,58.393
801,1.332883,58.354
802,1.334533,58.354
803,1.3362,58.312
804,1.337867,58.268
805,1.339533,58.268
806,1.3412,58.228
807,1.342867,58.183
808,1.344667,58.136
809,1.3462,58.136
810,1.347867,58.097
811,1.349533,58.046
812,1.3512,57.994
813,1.352867,57.994
814,1.354533,57.95
815,1.3562,57.907
816,1.357867,57.867
817,1.359567,57.867
818,1.3612,57.831
819,1.362867,57.79
820,1.364533,57.79
821,1.3662,57.746
822,1.367867,57.705
823,1.369533,57.659
824,1.3712,57.659
825,1.372867,57.617
826,1.374533,57.575
827,1.3762,57.53
828,1.377867,57.53
829,1.379533,57.488
830,1.3812,57.436
831,1.382867,57.396
832,1.384533,57.396
833,1.3862,57.353
834,1.387883,57.309
835,1.389533,57.277
836,1.3912,57.277
837,1.392867,57.233
838,1.394517,57.196
839,1.396183,57.196
840,1.39785,57.158
841,1.399517,57.111
842,1.401183,57.064
843,1.40285,57.064
844,1.404517,57.015
845,1.406183,56.969
846,1.40785,56.925
847,1.409517,56.925
848,1.411183,56.886
849,1.41285,56.846
850,1.414517,56.807
851,1.416183,56.807
852,1.41785,56.775
853,1.419517,56.737
854,1.421183,56.737
855,1.4229,56.698
856,1.424517,56.656
857,1.426183,56.605
858,1.42785,56.605
859,1.429517,56.558
860,1.431183,56.514
861,1.43285,56.468
862,1.434517,56.468
863,1.436183,56.424
864,1.43785,56.386
865,1.439517,56.343
866,1.441183,56.343
867,1.44285,56.305
868,1.444517,56.262
869,1.44625,56.22
870,1.44785,56.22
871,1.449517,56.18
872,1.451183,56.139
873,1.452833,56.139
874,1.4545,56.094
875,1.456167,56.051
876,1.457833,56.006
877,1.4595,56.006
878,1.461167,55.967
879,1.4629,55.929
880,1.4645,55.888
881,1.466167,55.888
882,1.467833,55.841
883,1.4695,55.788
884,1.471167,55.746
885,1.472833,55.746
886,1.4745,55.698
887,1.476167,55.66
888,1.47785,55.66
889,1.479617,55.623
890,1.481167,55.575
891,1.482833,55.531
892,1.4845,55.531
893,1.486167,55.486
894,1.487833,55.448
895,1.489483,55.416
896,1.49115,55.416
897,1.492817,55.378
898,1.4945,55.336
899,1.49615,55.29
900,1.497817,55.29
901,1.499483,55.242
902,1.50115,55.196
903,1.502817,55.196
904,1.504483,55.153
905,1.50615,55.109
906,1.507817,55.067
907,1.509483,55.067
908,1.51115,55.026
909,1.5128,54.985
910,1.514467,54.945
911,1.516133,54.945
912,1.5178,54.903
913,1.519467,54.863
914,1.521133,54.82
915,1.5228,54.82
916,1.524467,54.78
917,1.526133,54.743
918,1.5278,54.703
919,1.529467,54.703
920,1.531133,54.662
921,1.5328,54.617
922,1.534467,54.617
923,1.536133,54.572
924,1.5378,54.536
925,1.539467,54.496
926,1.541133,54.496
927,1.5428,54.457
928,1.544467,54.416
929,1.546133,54.371
930,1.54785,54.371
931,1.549517,54.332
932,1.551133,54.291
933,1.5528,54.25
934,1.554467,54.25
935,1.556133,54.214
936,1.5578,54.175
937,1.559467,54.175
938,1.561133,54.138
939,1.5628,54.102
940,1.564517,54.062
941,1.566133,54.062
942,1.5678,54.026
943,1.569467,53.983
944,1.571133,53.94
945,1.572783,53.94
946,1.57445,53.897
947,1.576117,53.853
948,1.577783,53.818
949,1.57945,53.818
950,1.581167,53.779
951,1.582783,53.74
952,1.58445,53.701
953,1.586117,53.701
954,1.587783,53.658
955,1.58945,53.622
956,1.591117,53.622
957,1.592783,53.584
958,1.59445,53.544
959,1.596117,53.51
960,1.5979,53.51
961,1.59945,53.468
962,1.601117,53.426
963,1.602783,53.386
964,1.60445,53.386
965,1.606117,53.347
966,1.607783,53.316
967,1.60945,53.282
968,1.611117,53.282
969,1.612783,53.239
970,1.61445,53.194
971,1.616117,53.194
972,1.617783,53.145
973,1.61945,53.107
974,1.621117,53.078
975,1.622783,53.078
976,1.62445,53.043
977,1.626117,53.006
978,1.627783,52.968
979,1.62945,52.968
980,1.631117,52.924
981,1.632783,52.89
982,1.634483,52.854
983,1.636183,52.854
984,1.637767,52.808
985,1.639433,52.765
986,1.6411,52.716
987,1.642767,52.716
