"ID","sea_time","fid_signal"
1,0,1191.348
2,0.001667,1191.348
3,0.003333,1190.975
4,0.005,1187.176
5,0.006667,1187.176
6,0.008333,1186.877
7,0.01,1187.548
8,0.011667,1184.568
9,0.013333,1184.568
10,0.015,1184.493
11,0.016683,1186.505
12,0.018317,1188.442
13,0.019983,1188.442
14,0.02165,1188.442
15,0.023317,1189.113
16,0.024983,1189.485
17,0.026667,1189.485
18,0.028317,1185.909
19,0.029983,1186.207
20,0.03165,1186.207
21,0.033367,1184.493
22,0.034983,1180.843
23,0.03665,1182.035
24,0.038317,1182.035
25,0.039983,1184.419
26,0.04165,1186.058
27,0.043317,1187.399
28,0.044983,1187.399
29,0.04665,1185.313
30,0.048317,1184.046
31,0.05005,1185.462
32,0.05165,1185.462
33,0.053317,1184.94
34,0.054983,1185.387
35,0.0567,1185.313
36,0.058317,1185.313
37,0.059983,1184.27
38,0.06165,1184.419
39,0.063317,1184.419
40,0.064983,1187.921
41,0.0667,1190.603
42,0.068317,1190.156
43,0.069983,1190.156
44,0.07165000000000001,1191.05
45,0.07331699999999999,1186.505
46,0.07496700000000001,1183.599
47,0.07663300000000001,1183.599
48,0.07829999999999999,1185.536
49,0.079967,1185.089
50,0.081633,1187.324
51,0.0833,1187.324
52,0.084967,1185.015
53,0.086633,1184.642
54,0.0883,1184.642
55,0.08996700000000001,1184.419
56,0.09165,1183.823
57,0.09329999999999999,1188.964
58,0.094967,1188.964
59,0.096633,1189.411
60,0.0983,1189.858
61,0.099967,1189.709
62,0.101633,1189.709
63,0.1033,1184.791
64,0.104967,1182.258
65,0.106633,1179.874
66,0.1083,1179.874
67,0.109967,1179.725
68,0.111617,1181.662
69,0.113283,1181.662
70,0.11495,1182.109
71,0.116617,1184.195
72,0.118283,1184.195
73,0.11995,1184.195
74,0.121617,1185.238
75,0.123283,1185.089
76,0.12495,1183.674
77,0.126617,1183.674
78,0.128283,1186.281
79,0.12995,1184.866
80,0.131617,1188.591
81,0.133333,1188.591
82,0.134933,1191.199
83,0.1366,1191.124
84,0.138267,1190.081
85,0.139933,1190.081
86,0.1416,1187.697
87,0.143267,1186.43
88,0.144933,1186.43
89,0.1466,1184.568
90,0.148267,1187.399
91,0.149933,1185.76
92,0.151617,1185.76
93,0.153267,1185.387
94,0.154933,1185.313
95,0.1566,1183.823
96,0.158283,1183.823
97,0.159933,1187.101
98,0.1616,1186.356
99,0.163267,1187.474
100,0.164933,1187.474
101,0.1666,1186.505
102,0.1683,1185.76
103,0.169933,1185.76
104,0.1716,1186.803
105,0.173267,1185.611
106,0.174933,1184.493
107,0.1766,1184.493
108,0.178267,1182.78
109,0.179933,1182.184
110,0.1816,1181.737
111,0.183267,1181.737
112,0.185033,1183.897
113,0.1866,1184.121
114,0.188267,1185.089
115,0.189933,1185.089
116,0.1916,1185.238
117,0.193267,1184.568
118,0.194917,1186.132
119,0.196583,1186.132
120,0.19825,1188.144
121,0.199917,1188.591
122,0.2016,1188.591
123,0.20325,1189.113
124,0.204917,1186.207
125,0.206583,1183.897
126,0.20825,1183.897
127,0.209917,1186.579
128,0.211583,1187.772
129,0.21325,1189.858
130,0.214917,1189.858
131,0.216583,1189.113
132,0.21825,1187.399
133,0.219917,1187.548
134,0.221583,1187.548
135,0.223267,1187.623
136,0.224917,1189.336
137,0.226583,1189.336
138,0.22825,1187.623
139,0.229917,1184.642
140,0.231617,1183.227
141,0.23325,1183.227
142,0.234917,1182.333
143,0.236583,1183.227
144,0.23825,1186.132
145,0.239917,1186.132
146,0.241583,1189.262
147,0.24325,1190.156
148,0.244917,1191.571
149,0.246583,1191.571
150,0.24825,1191.348
151,0.249917,1189.411
152,0.251583,1189.411
153,0.25325,1189.411
154,0.254917,1187.846
155,0.256567,1184.94
156,0.258233,1184.94
157,0.2599,1182.929
158,0.261567,1181.737
159,0.263233,1181.811
160,0.2649,1181.811
161,0.266567,1184.568
162,0.268233,1184.94
163,0.269983,1185.536
164,0.271567,1185.536
165,0.273233,1185.536
166,0.2749,1184.195
167,0.276567,1187.101
168,0.278233,1187.101
169,0.2799,1188.442
170,0.281567,1188.889
171,0.283233,1188.889
172,0.2849,1187.995
173,0.286567,1185.387
174,0.288233,1182.333
175,0.2899,1182.333
176,0.291567,1182.109
177,0.293233,1183.599
178,0.2949,1183.45
179,0.296567,1183.45
180,0.298233,1186.505
181,0.2999,1185.76
182,0.301567,1186.132
183,0.303333,1186.132
184,0.3049,1189.485
185,0.306567,1190.528
186,0.308233,1190.528
187,0.309933,1195.371
188,0.311567,1202.151
189,0.313233,1206.994
190,0.314883,1206.994
191,0.31655,1215.339
192,0.318217,1224.428
193,0.319883,1232.624
194,0.32155,1232.624
195,0.323217,1243.278
196,0.324883,1253.486
197,0.32655,1260.936
198,0.328217,1260.936
199,0.329883,1271.442
200,0.33155,1277.477
201,0.333217,1285.374
202,0.334883,1285.374
203,0.33655,1291.931
204,0.338217,1294.613
205,0.339883,1294.613
206,0.34155,1299.53
207,0.343217,1302.66
208,0.344883,1308.62
209,0.34655,1308.62
210,0.348217,1318.529
211,0.349883,1336.634
212,0.35155,1375.75
213,0.353217,1375.75
214,0.354883,1474.246
215,0.35655,1678.169
216,0.358217,2063.513
217,0.359883,2063.513
218,0.36155,2699.047
219,0.363217,3640.428
220,0.364883,3640.428
221,0.36655,4914.775
222,0.368217,6504.059
223,0.369883,8371.994000000001
224,0.37155,8371.994000000001
225,0.373217,10453.687
226,0.374883,12683.57
227,0.3766,15006.438
228,0.3782,15006.438
229,0.379867,17364.322
230,0.381533,19707.979
231,0.3832,21999.404
232,0.384867,21999.404
233,0.386533,24197.996
234,0.388283,26267.842
235,0.389867,28178.99
236,0.391533,28178.99
237,0.3932,29894.859
238,0.394867,31385.645
239,0.396533,31385.645
240,0.3982,32623.783
241,0.399867,33588.113
242,0.401517,34263.73
243,0.403183,34263.73
244,0.40485,34635.441
245,0.406517,34705.625
246,0.408183,34480.914
247,0.40985,34480.914
248,0.411517,33981.949
249,0.413183,33245.234
250,0.41485,32306.09
251,0.416517,32306.09
252,0.418183,31210.035
253,0.41985,30006.916
254,0.421617,28740.316
255,0.423183,28740.316
256,0.42485,27454.645
257,0.426517,26181.414
258,0.428183,26181.414
259,0.42985,24944.469
260,0.431517,23757.518
261,0.433183,22630.393
262,0.43485,22630.393
263,0.4365,21571.74
264,0.438167,20575.746
265,0.439833,19644.201
266,0.4415,19644.201
267,0.443167,18773.078
268,0.444833,17957.836
269,0.4465,17957.836
270,0.448167,17202.123
271,0.449833,16498.938
272,0.4515,15843.958
273,0.45325,15843.958
274,0.454833,15234.724
275,0.4565,14665.648
276,0.458167,14135.391
277,0.459833,14135.391
278,0.4615,13637.691
279,0.463167,13168.976
280,0.464833,12728.273
281,0.4665,12728.273
282,0.468167,12312.084
283,0.469833,11919.141
284,0.4715,11549.667
285,0.473167,11549.667
286,0.474833,11197.925
287,0.4765,10866.522
288,0.478167,10866.522
289,0.479833,10555.387
290,0.4815,10254.681
291,0.483167,9969.397999999999
292,0.484833,9969.397999999999
293,0.4865,9700.507
294,0.488167,9442.344999999999
295,0.489833,9201.169
296,0.4915,9201.169
297,0.493167,8969.083000000001
298,0.494833,8742.512000000001
299,0.496483,8528.977999999999
300,0.49815,8528.977999999999
301,0.499817,8322.522000000001
302,0.501483,8126.497
303,0.50315,8126.497
304,0.504817,7941.052
305,0.506533,7761.046
306,0.50815,7590.95
307,0.509817,7590.95
308,0.511483,7425.1
309,0.51315,7264.391
310,0.514817,7108.822
311,0.5165,7108.822
312,0.518167,6957.128
313,0.519817,6813.481
314,0.521483,6676.987
315,0.52315,6676.987
316,0.524817,6544.59
317,0.526483,6417.11
318,0.52815,6296.858
319,0.529817,6296.858
320,0.531483,6177.649
321,0.53315,6062.165
322,0.534817,6062.165
323,0.536483,5953.61
324,0.53815,5845.726
325,0.539917,5743.131
326,0.541483,5743.131
327,0.54315,5644.485
328,0.544817,5547.106
329,0.5464830000000001,5453.453
330,0.54815,5453.453
331,0.549817,5360.842
332,0.5514829999999999,5270.094
333,0.55315,5181.655
334,0.554817,5181.655
335,0.5564829999999999,5096.42
336,0.558133,5016.178
337,0.5598,5016.178
338,0.561467,4943.013
339,0.563133,4870.743
340,0.5648,4799.068
341,0.5664670000000001,4799.068
342,0.568133,4728.139
343,0.5698,4655.346
344,0.5714669999999999,4586.056
345,0.573133,4586.056
346,0.5748,4519.895
347,0.576467,4454.479
348,0.578133,4392.862
349,0.5798,4392.862
350,0.581467,4333.407
351,0.583133,4273.057
352,0.5848,4213.974
353,0.5865,4213.974
354,0.588133,4156.083
355,0.589867,4098.788
356,0.591467,4098.788
357,0.593133,4044.473
358,0.5948,3992.543
359,0.596467,3942.475
360,0.598133,3942.475
361,0.5998,3895.536
362,0.601467,3850.535
363,0.603133,3805.011
364,0.6048,3805.011
365,0.606467,3761.426
366,0.608133,3717.169
367,0.6098,3671.646
368,0.611467,3671.646
369,0.613133,3629.774
370,0.6148,3589.019
371,0.6164500000000001,3589.019
372,0.618117,3548.414
373,0.619783,3513.396
374,0.6214499999999999,3480.39
375,0.623117,3480.39
376,0.624817,3445.074
377,0.62645,3408.194
378,0.628117,3368.482
379,0.629783,3368.482
380,0.63145,3329.515
381,0.633117,3292.635
382,0.634783,3261.268
383,0.63645,3261.268
384,0.638117,3230.348
385,0.639783,3201.142
386,0.64145,3173.053
387,0.643117,3173.053
388,0.644783,3142.431
389,0.64645,3112.257
390,0.6481170000000001,3112.257
391,0.649783,3081.039
392,0.65145,3053.993
393,0.6531169999999999,3029.033
394,0.654783,3029.033
395,0.65645,3007.054
396,0.6581669999999999,2984.479
397,0.6598000000000001,2959.147
398,0.66145,2959.147
399,0.663117,2933.815
400,0.664783,2907.813
401,0.66645,2882.928
402,0.668117,2882.928
403,0.669783,2859.235
404,0.67145,2833.903
405,0.673117,2833.903
406,0.674883,2808.049
407,0.676433,2783.537
408,0.6781,2756.715
409,0.679767,2756.715
410,0.681433,2732.724
411,0.6831,2712.011
412,0.684767,2691.671
413,0.686433,2691.671
414,0.6881,2674.162
415,0.689767,2656.579
416,0.691433,2638.623
417,0.693083,2638.623
418,0.69475,2620.071
419,0.696417,2601.966
420,0.698083,2601.966
421,0.69975,2586.469
422,0.701417,2570.45
423,0.703083,2550.781
424,0.70475,2550.781
425,0.706417,2533.793
426,0.708083,2518.147
427,0.70975,2503.172
428,0.711417,2503.172
429,0.713083,2490.431
430,0.71475,2475.753
431,0.716417,2460.107
432,0.718083,2460.107
433,0.71975,2441.481
434,0.721417,2424.792
435,0.723083,2407.581
436,0.72475,2407.581
437,0.726417,2390.295
438,0.7281,2376.661
439,0.72975,2376.661
440,0.731417,2364.069
441,0.733117,2349.69
442,0.734733,2336.726
443,0.7364000000000001,2336.726
444,0.738067,2325.252
445,0.739733,2313.033
446,0.7413999999999999,2305.359
447,0.743083,2305.359
448,0.744733,2291.203
449,0.7464,2278.313
450,0.748067,2265.647
451,0.749733,2265.647
452,0.7514,2248.883
453,0.753067,2236.59
454,0.754733,2236.59
455,0.7564,2223.328
456,0.758067,2211.407
457,0.759817,2202.019
458,0.7614,2202.019
459,0.7630670000000001,2190.471
460,0.764733,2177.954
461,0.7664,2165.437
462,0.7680670000000001,2165.437
463,0.769733,2154.782
464,0.7714,2147.183
465,0.7730669999999999,2137.423
466,0.774733,2137.423
467,0.776483,2128.78
468,0.778067,2118.051
469,0.779733,2106.428
470,0.7814,2106.428
471,0.783067,2096.444
472,0.784733,2085.194
473,0.7864,2085.194
474,0.788067,2076.477
475,0.789733,2070.218
476,0.7914,2062.246
477,0.793183,2062.246
478,0.794733,2056.584
479,0.796383,2048.314
480,0.79805,2038.404
481,0.799717,2038.404
482,0.801383,2030.432
483,0.80305,2020.15
484,0.804717,2011.061
485,0.8064,2011.061
486,0.808117,2004.951
487,0.809717,1996.83
488,0.811383,1996.83
489,0.8130500000000001,1987.591
490,0.814717,1979.545
491,0.816383,1973.435
492,0.8180500000000001,1973.435
493,0.819717,1968.443
494,0.821383,1962.483
495,0.823083,1955.703
496,0.824717,1955.703
497,0.826383,1945.868
498,0.82805,1936.033
499,0.829717,1929.03
500,0.831383,1929.03
501,0.833067,1923.218
502,0.834717,1918.078
503,0.836383,1914.054
504,0.83805,1914.054
505,0.839717,1909.286
506,0.841383,1903.325
507,0.84305,1903.325
508,0.8447170000000001,1893.789
509,0.846383,1887.679
510,0.84805,1879.707
511,0.8497169999999999,1879.707
512,0.851383,1874.045
513,0.85305,1869.649
514,0.8547,1865.551
515,0.856367,1865.551
516,0.858033,1862.198
517,0.8597,1856.983
518,0.861367,1848.191
519,0.8630330000000001,1848.191
520,0.8647,1841.635
521,0.866367,1832.917
522,0.8680330000000001,1832.917
523,0.8697,1825.914
524,0.871367,1821.816
525,0.8730329999999999,1811.832
526,0.8747,1811.832
527,0.876417,1807.883
528,0.878067,1802.817
529,0.8797,1796.633
530,0.881367,1796.633
531,0.883033,1793.429
532,0.8847,1789.331
533,0.886367,1784.712
534,0.888033,1784.712
535,0.8897,1781.21
536,0.891367,1773.611
537,0.893033,1773.611
538,0.89475,1766.16
539,0.896367,1758.859
540,0.898033,1754.388
541,0.8997000000000001,1754.388
542,0.901367,1754.761
543,0.903033,1751.483
544,0.9046999999999999,1746.193
545,0.906367,1746.193
546,0.908033,1738.444
547,0.9097,1729.801
548,0.911517,1723.17
549,0.913033,1723.17
550,0.9147,1719.818
551,0.91635,1717.135
552,0.918017,1715.645
553,0.919683,1715.645
554,0.92135,1712.74
555,0.923017,1708.344
556,0.924683,1708.344
557,0.92635,1706.332
558,0.928017,1702.383
559,0.929683,1698.881
560,0.93135,1698.881
561,0.933017,1693.666
562,0.934683,1690.239
563,0.93635,1687.333
564,0.938017,1687.333
565,0.939683,1683.906
566,0.94135,1682.714
567,0.943017,1679.584
568,0.9446830000000001,1679.584
569,0.946383,1675.561
570,0.948017,1673.028
571,0.9496830000000001,1673.028
572,0.95135,1670.346
573,0.953017,1665.205
574,0.9546829999999999,1660.436
575,0.95635,1660.436
576,0.958017,1654.625
577,0.959683,1649.111
578,0.96135,1647.323
579,0.963017,1647.323
580,0.964683,1644.269
581,0.96635,1642.853
582,0.968017,1640.99
583,0.969683,1640.99
584,0.97135,1635.626
585,0.973017,1633.167
586,0.974683,1630.783
587,0.976333,1630.783
588,0.978,1626.536
589,0.979667,1623.109
590,0.981333,1623.109
591,0.983,1615.956
592,0.98465,1611.263
593,0.986317,1607.91
594,0.9879829999999999,1607.91
595,0.98965,1606.494
596,0.991317,1605.824
597,0.9929829999999999,1602.396
598,0.99465,1602.396
599,0.996367,1601.055
600,0.997983,1595.691
601,0.99965,1594.275
602,1.001317,1594.275
603,1.002983,1591.593
604,1.00465,1588.762
605,1.006317,1588.762
606,1.008,1587.793
607,1.00965,1583.546
608,1.011317,1581.46
609,1.01305,1581.46
610,1.01465,1580.045
611,1.01635,1578.182
612,1.017983,1578.256
613,1.01965,1578.256
614,1.021317,1578.107
615,1.022983,1575.723
616,1.02465,1573.19
617,1.026317,1573.19
618,1.027983,1570.135
619,1.02975,1569.018
620,1.031317,1569.018
621,1.032983,1568.124
622,1.03465,1567.23
623,1.0363,1564.473
624,1.037967,1564.473
625,1.039633,1557.097
626,1.0413,1551.285
627,1.042967,1546.592
628,1.044633,1546.592
629,1.0463,1543.164
630,1.047967,1542.941
631,1.049633,1541.376
632,1.0513,1541.376
633,1.052967,1538.098
634,1.054633,1536.757
635,1.0563,1535.192
636,1.057967,1535.192
637,1.059633,1533.031
638,1.0613,1533.702
639,1.062967,1533.702
640,1.064633,1533.851
641,1.0663,1528.487
642,1.067967,1524.165
643,1.069633,1524.165
644,1.0713,1522.899
645,1.072983,1519.471
646,1.074633,1519.769
647,1.0763,1519.769
648,1.077967,1518.577
649,1.079633,1518.13
650,1.0813,1516.342
651,1.082967,1516.342
652,1.084633,1514.331
653,1.0863,1513.734
654,1.087967,1513.734
655,1.089667,1507.625
656,1.0913,1503.751
657,1.092967,1503.676
658,1.094617,1503.676
659,1.096283,1500.696
660,1.09795,1498.088
661,1.099617,1495.257
662,1.101283,1495.257
663,1.10295,1492.202
664,1.104617,1490.489
665,1.106283,1490.712
666,1.10795,1490.712
667,1.109617,1490.191
668,1.111283,1489.967
669,1.11295,1490.861
670,1.114617,1490.861
671,1.116283,1490.042
672,1.11795,1486.391
673,1.119617,1486.391
674,1.121283,1482.815
675,1.12295,1479.611
676,1.124617,1475.438
677,1.126283,1475.438
678,1.12795,1472.98
679,1.129617,1471.415
680,1.131283,1470.223
681,1.13295,1470.223
682,1.134617,1469.478
683,1.136283,1470.67
684,1.13795,1468.658
685,1.139617,1468.658
686,1.141283,1468.658
687,1.14295,1468.062
688,1.144617,1468.062
689,1.146283,1466.498
690,1.14805,1464.784
691,1.149617,1461.729
692,1.151283,1461.729
693,1.15295,1458.451
694,1.154617,1458.004
695,1.156267,1456.589
696,1.157933,1456.589
697,1.1596,1453.236
698,1.161267,1452.714
699,1.162933,1450.106
700,1.1646,1450.106
701,1.1663,1447.797
702,1.167933,1445.04
703,1.1696,1442.73
704,1.171267,1442.73
705,1.172933,1442.432
706,1.1746,1445.115
707,1.176267,1445.115
708,1.177933,1445.636
709,1.1796,1444.295
710,1.181267,1441.315
711,1.182933,1441.315
712,1.1846,1438.484
713,1.186267,1439.154
714,1.187933,1440.942
715,1.1896,1440.942
716,1.191267,1439.825
717,1.192933,1435.354
718,1.1946,1431.555
719,1.196267,1431.555
720,1.197933,1427.755
721,1.1996,1425.967
722,1.201267,1425.967
723,1.202933,1426.637
724,1.2046,1426.339
725,1.206267,1424.328
726,1.207933,1424.328
727,1.2096,1421.496
728,1.211267,1418.814
729,1.212933,1421.794
730,1.2146,1421.794
731,1.21625,1420.975
732,1.217917,1420.23
733,1.219583,1419.932
734,1.22125,1419.932
735,1.222917,1411.885
736,1.224583,1414.195
737,1.22625,1414.865
738,1.227933,1414.865
739,1.229583,1413.822
740,1.23125,1416.281
741,1.232917,1416.281
742,1.234583,1410.469
743,1.2363,1408.309
744,1.237917,1405.999
745,1.239583,1405.999
746,1.24125,1404.285
747,1.242917,1405.701
748,1.244583,1405.999
749,1.24625,1405.999
750,1.247917,1405.552
751,1.249583,1405.552
752,1.25125,1405.328
753,1.252917,1405.328
754,1.254583,1404.732
755,1.25625,1404.732
756,1.257917,1404.732
757,1.259583,1401.231
758,1.26125,1397.431
759,1.262917,1394.153
760,1.264583,1394.153
761,1.266367,1393.408
762,1.267917,1391.247
763,1.269583,1389.98
764,1.27125,1389.98
765,1.272917,1389.384
766,1.274583,1389.384
767,1.276217,1392.067
768,1.277883,1392.067
769,1.27955,1394.525
770,1.281217,1394.376
771,1.282883,1394.376
772,1.28455,1391.619
773,1.286217,1389.533
774,1.287883,1386.255
775,1.28955,1386.255
776,1.291217,1385.286
777,1.292883,1386.628
778,1.29455,1387.149
779,1.296217,1387.149
780,1.297883,1386.553
781,1.29955,1385.212
782,1.301233,1380.816
783,1.302883,1380.816
784,1.30455,1379.922
785,1.306217,1377.538
786,1.307883,1376.569
787,1.30955,1376.569
788,1.311217,1378.283
789,1.312883,1374.334
790,1.31455,1374.334
791,1.316217,1372.844
792,1.317883,1372.397
793,1.31955,1370.832
794,1.321233,1370.832
795,1.322883,1371.205
796,1.32455,1370.013
797,1.326217,1370.46
798,1.327883,1370.46
799,1.32955,1370.683
800,1.331217,1370.013
801,1.332883,1372.844
802,1.33455,1372.844
803,1.3362,1371.13
804,1.337867,1367.629
805,1.339533,1367.629
806,1.3412,1369.044
807,1.342867,1366.064
808,1.344533,1363.158
809,1.3462,1363.158
810,1.347867,1364.574
811,1.349533,1361.221
812,1.351267,1363.158
813,1.352867,1363.158
814,1.354533,1364.35
815,1.3562,1361.966
816,1.357883,1360.551
817,1.359533,1360.551
818,1.3612,1356.527
819,1.362867,1354.516
820,1.364533,1352.653
821,1.3662,1352.653
822,1.367867,1351.61
823,1.369533,1352.057
824,1.3712,1352.057
825,1.372867,1352.653
826,1.374567,1353.398
827,1.3762,1352.206
828,1.377867,1352.206
829,1.379533,1351.386
830,1.3812,1351.014
831,1.382867,1350.343
832,1.38465,1350.343
833,1.3862,1350.343
834,1.387867,1350.492
835,1.389533,1349.3
836,1.3912,1349.3
837,1.392867,1346.99
838,1.394533,1349.3
839,1.3962,1349.3
840,1.39785,1346.171
841,1.399517,1345.575
842,1.401183,1345.202
843,1.40285,1345.202
844,1.404517,1343.861
845,1.406183,1345.947
846,1.40785,1345.724
847,1.409517,1345.724
848,1.4112,1345.277
849,1.412883,1341.552
850,1.414517,1338.05
851,1.416183,1338.05
852,1.41785,1335.442
853,1.419517,1331.717
854,1.421183,1329.78
855,1.42285,1329.78
856,1.424517,1330.748
857,1.426183,1329.482
858,1.42785,1329.482
859,1.429517,1330.078
860,1.431183,1332.76
861,1.43285,1330.674
862,1.434517,1330.674
863,1.436183,1333.877
864,1.43785,1337.305
865,1.439517,1335.144
866,1.441183,1335.144
867,1.44285,1334.548
868,1.444517,1329.78
869,1.446183,1327.768
870,1.447867,1327.768
871,1.449517,1328.215
872,1.451183,1328.96
873,1.45285,1328.96
874,1.454517,1331.046
875,1.456167,1329.109
876,1.457833,1326.352
877,1.4595,1326.352
878,1.461167,1324.266
879,1.462833,1322.478
880,1.4645,1324.341
881,1.466167,1324.341
882,1.467833,1325.905
883,1.469533,1325.011
884,1.471167,1325.533
885,1.472833,1325.533
886,1.4745,1323.372
887,1.476167,1323.074
888,1.477833,1323.074
889,1.4795,1325.16
890,1.481167,1326.576
891,1.482833,1327.693
892,1.4845,1327.693
893,1.486267,1328.364
894,1.487833,1328.29
895,1.4895,1323.819
896,1.491167,1323.819
897,1.492867,1320.466
898,1.4945,1319.647
899,1.496167,1316.816
900,1.497833,1316.816
901,1.4995,1318.157
902,1.501167,1315.177
903,1.502833,1312.196
904,1.5045,1312.196
905,1.506167,1312.047
906,1.507833,1310.036
907,1.5095,1310.036
908,1.511167,1313.463
909,1.512833,1314.878
910,1.5145,1316.89
911,1.516167,1316.89
912,1.517817,1317.412
913,1.519583,1314.58
