"ID","sea_time","fid_signal"
1,0,1175.553
2,0.001667,1177.415
3,0.003333,1176.894
4,0.005,1176.894
5,0.006667,1177.788
6,0.008333,1177.788
7,0.01,1177.788
8,0.011667,1172.945
9,0.013333,1169.816
10,0.014983,1169.816
11,0.01665,1169.816
12,0.018383,1168.027
13,0.02,1170.635
14,0.02165,1171.604
15,0.023317,1171.604
16,0.024983,1172.572
17,0.026633,1174.51
18,0.0283,1174.286
19,0.029967,1174.286
20,0.031633,1178.235
21,0.0333,1177.117
22,0.034967,1177.117
23,0.036633,1174.435
24,0.0383,1175.553
25,0.039967,1176.074
26,0.041633,1176.074
27,0.0433,1176.819
28,0.044967,1182.556
29,0.046633,1179.054
30,0.0483,1179.054
31,0.049967,1175.776
32,0.05175,1176.67
33,0.0533,1173.988
34,0.054967,1173.988
35,0.056633,1176.596
36,0.0583,1180.023
37,0.059967,1176.447
38,0.061633,1176.447
39,0.0633,1177.564
40,0.064967,1177.713
41,0.066633,1177.713
42,0.0683,1173.541
43,0.069967,1176.149
44,0.071633,1172.796
45,0.0733,1172.796
46,0.07495,1172.2
47,0.07663300000000001,1174.51
48,0.07828300000000001,1173.019
49,0.07994999999999999,1173.019
50,0.081617,1174.36
51,0.083283,1176.372
52,0.08495,1176.968
53,0.086617,1176.968
54,0.088283,1176.596
55,0.08995,1174.063
56,0.091617,1174.063
57,0.09329999999999999,1168.475
58,0.09495000000000001,1167.804
59,0.09661699999999999,1171.827
60,0.098283,1171.827
61,0.09995,1174.659
62,0.101617,1176.223
63,0.103283,1177.266
64,0.10495,1177.266
65,0.106617,1174.36
66,0.108283,1172.796
67,0.10995,1173.466
68,0.111617,1173.466
69,0.113283,1170.859
70,0.11495,1172.2
71,0.116617,1174.137
72,0.118283,1174.137
73,0.11995,1175.925
74,0.121617,1174.212
75,0.123283,1174.212
76,0.12495,1173.466
77,0.126617,1173.541
78,0.128283,1173.541
79,0.12995,1173.541
80,0.131617,1176.968
81,0.133283,1176.819
82,0.13495,1173.243
83,0.136683,1173.243
84,0.138283,1170.412
85,0.139933,1168.4
86,0.1416,1169.443
87,0.143267,1169.443
88,0.144933,1175.329
89,0.1466,1177.564
90,0.148267,1177.564
91,0.149933,1180.097
92,0.1516,1176.67
93,0.153267,1172.349
94,0.154933,1172.349
95,0.1566,1169.071
96,0.158267,1165.718
97,0.159933,1167.357
98,0.1616,1167.357
99,0.163267,1169.741
100,0.164933,1170.412
101,0.1666,1171.827
102,0.168267,1171.827
103,0.170033,1171.008
104,0.1716,1170.635
105,0.173267,1170.635
106,0.174933,1172.498
107,0.1766,1170.114
108,0.178267,1169.22
109,0.179933,1169.22
110,0.1816,1167.208
111,0.183267,1167.282
112,0.184933,1171.455
113,0.1866,1171.455
114,0.188267,1172.125
115,0.189933,1171.827
116,0.1916,1173.839
117,0.193267,1173.839
118,0.194933,1173.168
119,0.196617,1173.615
120,0.19825,1174.957
121,0.199917,1174.957
122,0.201583,1171.38
123,0.20325,1169.518
124,0.204917,1169.518
125,0.206583,1171.753
126,0.20825,1172.572
127,0.209917,1172.125
128,0.211583,1172.125
129,0.213283,1170.635
130,0.214917,1170.933
131,0.216583,1170.486
132,0.21825,1170.486
133,0.219917,1173.541
134,0.221583,1177.266
135,0.22325,1174.733
136,0.224917,1174.733
137,0.226583,1176.894
138,0.22825,1173.765
139,0.229917,1173.765
140,0.231583,1171.678
141,0.23325,1171.604
142,0.234917,1168.549
143,0.236583,1168.549
144,0.23825,1169.816
145,0.239917,1168.251
146,0.241583,1170.784
147,0.24325,1170.784
148,0.244917,1171.082
149,0.246583,1172.572
150,0.24825,1176.521
151,0.249917,1176.521
152,0.251583,1178.086
153,0.25325,1176.521
154,0.254933,1176.223
155,0.256567,1176.223
156,0.258233,1175.18
157,0.2599,1171.976
158,0.261567,1171.976
159,0.263233,1174.212
160,0.2649,1175.106
161,0.266567,1173.988
162,0.268233,1173.988
163,0.2699,1174.212
164,0.271567,1174.584
165,0.273233,1175.18
166,0.2749,1175.18
167,0.276567,1177.192
168,0.278233,1178.682
169,0.279917,1178.011
170,0.281567,1178.011
171,0.283233,1175.553
172,0.2849,1174.063
173,0.286567,1174.063
174,0.28835,1173.69
175,0.2899,1174.51
176,0.291567,1175.329
177,0.293233,1175.329
178,0.2949,1174.659
179,0.296567,1173.541
180,0.298233,1174.733
181,0.2999,1174.733
182,0.301567,1176.968
183,0.303233,1177.043
184,0.3049,1175.255
185,0.306567,1175.255
186,0.308233,1172.051
187,0.3099,1166.835
188,0.311567,1164.749
189,0.313233,1164.749
190,0.3149,1166.388
191,0.316533,1166.463
192,0.3182,1166.463
193,0.319867,1169.369
194,0.321533,1174.063
195,0.3232,1174.212
196,0.324867,1174.212
197,0.326533,1175.553
198,0.3282,1176.298
199,0.329867,1173.988
200,0.331533,1173.988
201,0.3332,1173.094
202,0.334867,1172.2
203,0.336533,1171.455
204,0.3382,1171.455
205,0.339867,1173.317
206,0.341533,1175.478
207,0.3432,1175.478
208,0.344867,1176.67
209,0.346533,1176.521
210,0.3482,1176.894
211,0.349867,1176.894
212,0.351533,1176.819
213,0.353217,1177.266
214,0.354867,1178.384
215,0.356533,1178.384
216,0.3582,1176.819
217,0.359867,1176.149
218,0.361533,1178.011
219,0.3632,1178.011
220,0.364867,1178.607
221,0.366533,1183.525
222,0.3682,1183.525
223,0.369867,1189.634
224,0.371533,1191.05
225,0.373233,1194.104
226,0.374867,1194.104
227,0.376533,1195.222
228,0.378183,1194.924
229,0.37985,1197.308
230,0.381517,1197.308
231,0.383183,1203.939
232,0.38485,1206.622
233,0.386517,1212.88
234,0.388183,1212.88
235,0.389933,1222.342
236,0.391517,1225.248
237,0.393183,1232.177
238,0.39485,1232.177
239,0.396517,1239.777
240,0.398183,1243.8
241,0.39985,1243.8
242,0.401517,1251.623
243,0.403183,1259.67
244,0.40485,1268.163
245,0.406617,1268.163
246,0.408183,1275.912
247,0.40985,1284.48
248,0.411517,1295.283
249,0.413183,1295.283
250,0.41485,1303.107
251,0.416517,1312.271
252,0.418183,1318.678
253,0.41985,1318.678
254,0.421517,1323.67
255,0.4233,1324.937
256,0.42485,1324.937
257,0.426517,1329.109
258,0.428183,1335.591
259,0.42985,1339.242
260,0.43155,1339.242
261,0.433233,1345.5
262,0.43485,1345.575
263,0.436517,1348.63
264,0.438167,1348.63
265,0.439833,1348.257
266,0.4415,1349.077
267,0.443167,1350.716
268,0.444833,1350.716
269,0.4465,1345.351
270,0.448167,1342.222
271,0.449833,1339.614
272,0.4515,1339.614
273,0.453167,1336.038
274,0.454833,1333.058
275,0.4565,1333.058
276,0.458167,1330.152
277,0.459833,1325.16
278,0.4615,1322.553
279,0.463167,1322.553
280,0.464833,1318.306
281,0.4665,1315.996
282,0.468167,1312.047
283,0.469833,1312.047
284,0.4715,1305.789
285,0.473167,1303.479
286,0.474833,1302.51
287,0.4765,1302.51
288,0.478167,1298.338
289,0.479833,1298.04
290,0.4815,1298.04
291,0.483167,1295.805
292,0.484833,1288.727
293,0.4865,1288.876
294,0.488167,1288.876
295,0.489833,1292.229
296,0.49155,1295.88
297,0.493167,1301.989
298,0.494817,1301.989
299,0.4965,1306.087
300,0.49815,1308.918
301,0.499817,1311.973
302,0.5014999999999999,1311.973
303,0.503217,1317.412
304,0.504817,1324.937
305,0.506483,1333.132
306,0.5082,1333.132
307,0.509817,1347.363
308,0.511483,1368.597
309,0.51315,1368.597
310,0.514817,1398.772
311,0.516483,1442.879
312,0.51815,1511.797
313,0.519817,1511.797
314,0.521483,1607.984
315,0.52315,1740.083
316,0.524867,1923.516
317,0.526483,1923.516
318,0.52815,2160.743
319,0.529817,2463.237
320,0.531483,2838.597
321,0.53315,2838.597
322,0.534817,3293.604
323,0.536483,3833.771
324,0.53815,3833.771
325,0.539817,4460.663
326,0.5416,5178.377
327,0.54315,5979.538
328,0.544817,5979.538
329,0.5464830000000001,6860.718
330,0.54815,7817.149
331,0.549817,8845.627
332,0.5514829999999999,8845.627
333,0.55315,9934.231
334,0.554817,11079.609
335,0.556467,12278.482
336,0.558133,12278.482
337,0.5598,13520.047
338,0.561467,14805.645
339,0.563133,14805.645
340,0.5648,16125.068
341,0.5664670000000001,17473.25
342,0.568133,18847.287
343,0.5698,18847.287
344,0.5714669999999999,20244.346
345,0.573133,21660.029
346,0.5748,23093.447
347,0.576467,23093.447
348,0.578133,24541.914
349,0.5798,25996.641
350,0.581467,27459.115
351,0.583133,27459.115
352,0.5848,28925.537
353,0.586467,30392.482
354,0.588133,31859.502
355,0.5898,31859.502
356,0.591467,33321.379
357,0.593133,34771.113
358,0.5948,34771.113
359,0.596467,36212.578
360,0.598133,37639.664
361,0.5998,39055.867
362,0.601467,39055.867
363,0.603133,40460.078
364,0.6048,41843.43
365,0.606467,43210.758
366,0.608117,43210.758
367,0.609783,44556.707
368,0.61145,45879.781
369,0.613117,47178.043
370,0.614783,47178.043
371,0.616433,48449.785
372,0.6181,49694.031
373,0.619767,49694.031
374,0.621433,50913.691
375,0.6231,52107.648
376,0.624767,53271.277
377,0.626467,53271.277
378,0.6281,54399.148
379,0.629767,55492.52
380,0.631433,56548.715
381,0.6331,56548.715
382,0.634767,57570.859
383,0.636433,58555.602
384,0.6381,59495.719
385,0.639767,59495.719
386,0.641433,60394.555
387,0.64315,61239.152
388,0.6448,62033.609
389,0.64645,62033.609
390,0.6481,62774.941
391,0.649767,63454.957
392,0.651433,63454.957
393,0.6531,64074.992
394,0.654767,64622.836
395,0.656433,65083.43
396,0.6581,65083.43
397,0.659867,65440.016
398,0.661433,65672.69500000001
399,0.6631,65753.31299999999
400,0.664767,65753.31299999999
401,0.6664330000000001,65650.04700000001
402,0.6681,65320.359
403,0.669767,64705.91
404,0.6714329999999999,64705.91
405,0.6731,63746.496
406,0.674767,62388.555
407,0.676417,62388.555
408,0.678083,60585.289
409,0.67975,58330.52
410,0.6814170000000001,55669.473
411,0.683083,55669.473
412,0.68475,52685.738
413,0.6864170000000001,49510.82
414,0.688083,46284.945
415,0.68975,46284.945
416,0.6914169999999999,43138.563
417,0.693083,40174.5
418,0.69475,37448.629
419,0.696417,37448.629
420,0.698083,34988.746
421,0.69975,32791.867
422,0.701417,30834.004
423,0.703083,30834.004
424,0.70475,29096.23
425,0.706417,27548
426,0.708083,27548
427,0.70975,26165.322
428,0.711417,24921.895
429,0.713083,23796.633
430,0.71475,23796.633
431,0.716417,22772.551
432,0.7181,21834.746
433,0.71975,20972.191
434,0.721417,20972.191
435,0.723083,20177.289
436,0.7247670000000001,19441.918
437,0.726417,18757.73
438,0.728083,18757.73
439,0.72975,18121.451
440,0.731417,17528.385
441,0.733083,17528.385
442,0.73475,16973.615
443,0.7364000000000001,16449.988
444,0.738067,15961.975
445,0.739733,15961.975
446,0.7413999999999999,15496.687
447,0.743067,15060.827
448,0.744733,14649.778
449,0.7464,14649.778
450,0.748067,14258.549
451,0.749733,13890.714
452,0.7514,13541.431
453,0.753067,13541.431
454,0.754733,13206.899
455,0.7564,12887.716
456,0.758067,12887.716
457,0.759733,12583.807
458,0.7614,12293.011
459,0.7630670000000001,12016.967
460,0.764733,12016.967
461,0.7664,11754.036
462,0.7680670000000001,11504.516
463,0.769733,11263.862
464,0.7714,11263.862
465,0.7730669999999999,11036.098
466,0.774733,10818.169
467,0.7764,10607.764
468,0.7781670000000001,10607.764
469,0.779733,10406.896
470,0.7814,10210.127
471,0.783067,10018.722
472,0.784733,10018.722
473,0.7864,9833.5
474,0.788067,9656.697
475,0.789733,9656.697
476,0.7914,9488.017
477,0.793067,9331.107
478,0.794733,9176.656000000001
479,0.7964329999999999,9176.656000000001
480,0.79805,9024.367
481,0.799717,8880.868
482,0.801383,8738.413
483,0.80305,8738.413
484,0.804717,8604.601000000001
485,0.806383,8474.216
486,0.80805,8345.321
487,0.809717,8345.321
488,0.811383,8219.406000000001
489,0.8130500000000001,8097.44
490,0.814717,8097.44
491,0.816383,7983.744
492,0.8180500000000001,7873.401
493,0.819717,7766.56
494,0.821383,7766.56
495,0.8230499999999999,7661.805
496,0.824717,7554.516
497,0.826383,7450.059
498,0.82805,7450.059
499,0.829717,7353.723
500,0.831383,7256.195
501,0.83305,7167.235
502,0.834717,7167.235
503,0.836383,7081.628
504,0.83805,6992.742
505,0.839717,6908.923
506,0.841383,6908.923
507,0.84305,6823.316
508,0.8447170000000001,6739.199
509,0.846383,6739.199
510,0.84805,6659.329
511,0.8497169999999999,6582.29
512,0.851383,6511.211
513,0.85305,6511.211
514,0.8547169999999999,6441.921
515,0.856383,6369.65
516,0.858033,6303.191
517,0.8597,6303.191
518,0.861367,6233.156
519,0.863083,6166.473
520,0.864717,6103.068
521,0.866367,6103.068
522,0.8680330000000001,6036.088
523,0.8697,5974.397
524,0.871367,5974.397
525,0.8730329999999999,5913.973
526,0.8747,5858.019
527,0.876367,5805.269
528,0.878033,5805.269
529,0.8797,5747.154
530,0.881367,5692.169
531,0.883033,5638.152
532,0.8847,5638.152
533,0.886367,5581.603
534,0.888033,5534.292
535,0.8897,5481.839
536,0.891367,5481.839
537,0.893033,5428.195
538,0.8947000000000001,5382.299
539,0.89645,5336.702
540,0.898033,5336.702
541,0.8997000000000001,5291.179
542,0.90135,5250.052
543,0.903017,5250.052
544,0.904683,5205.199
545,0.90635,5156.547
546,0.908017,5116.537
547,0.909683,5116.537
548,0.91135,5070.791
549,0.913017,5032.122
550,0.914683,4991.368
551,0.916333,4991.368
552,0.918,4948.825
553,0.919667,4911.87
554,0.921333,4870.444
555,0.923,4870.444
556,0.924667,4835.353
557,0.926333,4797.801
558,0.928,4797.801
559,0.929667,4760.847
560,0.931333,4723.519
561,0.9330000000000001,4686.713
562,0.934667,4686.713
563,0.936333,4654.825
564,0.938017,4621.669
565,0.939683,4588.366
566,0.941333,4588.366
567,0.9429999999999999,4557.222
568,0.944667,4523.322
569,0.946333,4491.88
570,0.948,4491.88
571,0.949667,4463.419
572,0.951333,4431.605
573,0.953,4431.605
574,0.954667,4401.281
575,0.956333,4372.299
576,0.958,4343.092
577,0.959667,4343.092
578,0.961333,4319.027
579,0.963,4293.397
580,0.9646670000000001,4262.104
581,0.966333,4262.104
582,0.968,4236.475
583,0.9696669999999999,4205.033
584,0.971333,4177.913
585,0.973,4177.913
586,0.974667,4155.04
587,0.976333,4129.708
588,0.977983,4104.897
589,0.97965,4104.897
590,0.981383,4080.311
591,0.9829830000000001,4057.139
592,0.98465,4057.139
593,0.986317,4033.521
594,0.9879829999999999,4013.255
595,0.98965,3988.892
596,0.991317,3988.892
597,0.9929829999999999,3964.528
598,0.99465,3940.165
599,0.996317,3913.269
600,0.998,3913.269
601,0.99965,3889.278
602,1.001317,3869.385
603,1.002983,3850.609
604,1.00465,3850.609
605,1.006317,3831.61
606,1.007983,3812.686
607,1.00965,3812.686
608,1.011317,3790.93
609,1.012983,3768.653
610,1.014783,3748.685
611,1.016317,3748.685
612,1.017983,3727.153
613,1.01965,3708.527
614,1.021317,3687.814
615,1.022983,3687.814
616,1.02465,3669.783
617,1.026317,3653.02
618,1.027983,3632.009
619,1.02965,3632.009
620,1.031317,3613.606
621,1.032983,3595.278
622,1.03465,3577.024
623,1.0363,3577.024
624,1.037967,3559.366
625,1.039633,3541.335
626,1.0413,3541.335
627,1.042967,3522.709
628,1.044633,3507.063
629,1.0463,3493.503
630,1.047967,3493.503
631,1.049633,3480.166
632,1.0513,3463.7
633,1.052967,3446.564
634,1.054633,3446.564
635,1.0563,3430.992
636,1.057967,3411.77
637,1.059633,3396.496
638,1.0613,3396.496
639,1.062967,3382.787
640,1.064633,3367.29
641,1.0663,3367.29
642,1.067967,3355.667
643,1.069633,3342.331
644,1.0713,3327.057
645,1.072967,3327.057
646,1.074633,3308.579
647,1.0763,3290.847
648,1.077967,3275.573
649,1.079633,3275.573
650,1.0813,3260.896
651,1.082967,3248.677
652,1.084633,3239.736
653,1.0863,3239.736
654,1.087967,3225.356
655,1.089633,3216.267
656,1.0913,3206.134
657,1.092983,3206.134
658,1.094633,3192.425
659,1.096283,3183.41
660,1.09795,3183.41
661,1.099667,3170.147
662,1.101283,3159.195
663,1.10295,3146.082
664,1.104617,3146.082
665,1.106283,3133.565
666,1.10795,3121.197
667,1.109617,3104.806
668,1.111283,3104.806
669,1.11295,3093.556
670,1.114617,3080.592
671,1.116367,3068.522
672,1.11795,3068.522
673,1.119617,3062.04
674,1.121283,3050.044
675,1.12295,3050.044
676,1.124617,3040.955
677,1.126283,3027.543
678,1.127967,3012.121
679,1.129617,3012.121
680,1.131283,2999.976
681,1.133067,2987.385
682,1.134617,2978.891
683,1.136283,2978.891
684,1.13795,2970.546
685,1.139617,2963.766
686,1.141283,2956.018
687,1.14295,2956.018
688,1.144617,2944.991
689,1.146283,2936.274
690,1.14795,2936.274
691,1.149617,2926.886
692,1.1513,2916.157
693,1.15295,2908.185
694,1.154617,2908.185
695,1.156267,2898.946
696,1.157933,2887.398
697,1.1596,2877.116
698,1.161267,2877.116
699,1.162933,2866.387
700,1.1646,2854.317
701,1.166267,2844.93
702,1.167933,2844.93
703,1.1696,2838.448
704,1.171267,2830.177
705,1.172933,2823.696
706,1.1746,2823.696
707,1.176267,2817.661
708,1.177933,2809.912
709,1.1796,2809.912
710,1.181267,2804.473
711,1.182933,2794.564
712,1.184617,2784.58
713,1.186267,2784.58
714,1.187933,2776.31
715,1.1896,2766.848
716,1.19125,2762.154
717,1.192917,2762.154
718,1.194583,2752.691
719,1.19625,2744.272
720,1.197917,2736.375
721,1.199583,2736.375
722,1.20125,2724.528
723,1.202917,2719.834
724,1.204583,2719.834
725,1.20625,2710.968
726,1.207917,2700.016
727,1.209583,2693.757
728,1.21125,2693.757
729,1.212917,2680.495
730,1.214583,2670.735
731,1.216233,2664.551
732,1.217983,2664.551
733,1.219567,2655.313
734,1.221233,2648.309
735,1.2229,2643.019
736,1.224567,2643.019
737,1.226233,2635.792
738,1.2279,2629.161
739,1.229567,2625.287
740,1.231233,2625.287
741,1.2329,2617.761
742,1.234633,2610.311
743,1.236233,2610.311
744,1.2379,2603.382
745,1.239567,2596.08
746,1.241233,2589.375
747,1.2429,2589.375
748,1.244567,2584.979
749,1.246233,2577.007
750,1.2479,2570.674
751,1.249567,2570.674
752,1.251333,2563.521
753,1.2529,2557.114
754,1.254567,2554.282
755,1.256233,2554.282
756,1.2579,2547.055
757,1.259567,2540.499
758,1.261233,2540.499
759,1.2629,2532.676
760,1.264567,2525.97
761,1.266233,2521.351
762,1.268,2521.351
763,1.269567,2517.7
764,1.271233,2511.367
765,1.2729,2504.215
766,1.27455,2504.215
767,1.276217,2497.509
768,1.277883,2487.898
769,1.27955,2482.086
770,1.281217,2482.086
771,1.282883,2477.318
772,1.28455,2470.538
773,1.286217,2469.122
774,1.287883,2469.122
775,1.289567,2462.864
776,1.291217,2457.201
777,1.292883,2457.201
778,1.29455,2451.986
779,1.296217,2443.567
780,1.297883,2437.681
781,1.29955,2437.681
782,1.301217,2430.901
783,1.3029,2426.133
784,1.30455,2419.129
785,1.306217,2419.129
786,1.307883,2414.882
787,1.30955,2407.804
788,1.311217,2402.142
789,1.312883,2402.142
790,1.31455,2398.789
791,1.316217,2393.872
792,1.317883,2393.872
793,1.31955,2391.338
794,1.321217,2387.539
795,1.322883,2381.28
796,1.32455,2381.28
797,1.326217,2373.531
798,1.327883,2368.241
799,1.32955,2362.952
800,1.331217,2362.952
801,1.332883,2359.971
802,1.33455,2357.215
803,1.3362,2350.36
804,1.337867,2350.36
805,1.339533,2345.741
806,1.3412,2340.078
807,1.342867,2340.078
808,1.344533,2335.31
809,1.3462,2331.287
810,1.347867,2325.848
811,1.349533,2325.848
812,1.3512,2320.707
813,1.352917,2317.131
814,1.354533,2312.735
815,1.3562,2312.735
816,1.357867,2309.605
817,1.359533,2306.774
818,1.3612,2303.719
819,1.362867,2303.719
820,1.364533,2300.59
821,1.3662,2297.089
822,1.367867,2291.203
823,1.369583,2291.203
824,1.3712,2282.336
825,1.372867,2279.505
826,1.374533,2279.505
827,1.3762,2275.705
828,1.377867,2271.31
829,1.379533,2267.808
830,1.3812,2267.808
831,1.382867,2261.4
832,1.384533,2256.11
833,1.386317,2251.417
834,1.387867,2251.417
835,1.389533,2248.511
836,1.3912,2243.966
837,1.392867,2236.664
838,1.394533,2236.664
839,1.396183,2233.684
840,1.39785,2231.374
841,1.399517,2231.374
842,1.401183,2228.469
843,1.40285,2228.022
844,1.404517,2223.477
845,1.406183,2223.477
846,1.40785,2216.026
847,1.409517,2213.344
848,1.411183,2210.96
849,1.41285,2210.96
850,1.414517,2207.235
851,1.416183,2204.105
852,1.41785,2199.784
853,1.419517,2199.784
854,1.421183,2195.612
855,1.42285,2192.557
856,1.424517,2188.608
857,1.4262,2188.608
858,1.42785,2183.765
859,1.429517,2179.22
860,1.431183,2179.22
861,1.43285,2176.091
862,1.434517,2171.397
863,1.436183,2168.64
864,1.43785,2168.64
865,1.439517,2163.127
866,1.441183,2160.072
867,1.44285,2162.829
868,1.444517,2162.829
869,1.446183,2162.68
870,1.44785,2161.711
871,1.449517,2158.135
872,1.451183,2158.135
873,1.45285,2152.845
874,1.4545,2146.512
875,1.456183,2146.512
876,1.457833,2144.277
877,1.4595,2141.52
878,1.461167,2138.242
879,1.462833,2138.242
880,1.4645,2134.144
881,1.466167,2128.78
882,1.467833,2124.682
883,1.4695,2124.682
884,1.471217,2121.627
885,1.472833,2119.169
886,1.4745,2116.114
887,1.476167,2116.114
888,1.477833,2112.24
889,1.4795,2109.408
890,1.481167,2107.248
891,1.482817,2107.248
892,1.484483,2103.895
893,1.48615,2102.33
894,1.487883,2102.33
895,1.489483,2097.413
896,1.49115,2094.433
897,1.492817,2093.315
898,1.494483,2093.315
899,1.49615,2088.77
900,1.497817,2085.194
901,1.499483,2080.575
902,1.50115,2080.575
903,1.502833,2076.849
904,1.504617,2075.285
905,1.50615,2072.379
906,1.507817,2072.379
907,1.509483,2070.144
908,1.51115,2064.63
909,1.512817,2064.63
910,1.514483,2058.744
911,1.51615,2058.595
