"ID","sea_time","fid_signal"
1,0,1315.996
2,0.001667,1315.996
3,0.003333,1317.039
4,0.005,1317.263
5,0.006667,1314.878
6,0.008333,1314.878
7,0.01,1298.86
8,0.011667,1283.81
9,0.013333,1283.81
10,0.015,1271.889
11,0.0167,1267.716
12,0.018333,1278.073
13,0.02,1278.073
14,0.021667,1290.143
15,0.023333,1299.679
16,0.025,1305.938
17,0.026667,1305.938
18,0.028333,1311.004
19,0.03,1312.122
20,0.03165,1315.549
21,0.033433,1315.549
22,0.034983,1316.667
23,0.03665,1314.431
24,0.038317,1314.431
25,0.039983,1316.369
26,0.04165,1314.58
27,0.043317,1316.965
28,0.044983,1316.965
29,0.04665,1319.423
30,0.048317,1315.698
31,0.049983,1314.506
32,0.05165,1314.506
33,0.053317,1309.067
34,0.054983,1305.789
35,0.05665,1306.534
36,0.058317,1306.534
37,0.059983,1307.8
38,0.061667,1310.706
39,0.063317,1311.824
40,0.065,1311.824
41,0.06675,1314.58
42,0.068317,1316.518
43,0.069983,1316.518
44,0.07165000000000001,1318.008
45,0.07331699999999999,1320.317
46,0.07498299999999999,1318.455
47,0.07665,1318.455
48,0.078317,1315.4
49,0.079983,1315.624
50,0.08165,1314.58
51,0.083317,1314.58
52,0.084983,1315.325
53,0.08665,1316.369
54,0.0883,1313.09
55,0.08996700000000001,1313.09
56,0.09163300000000001,1314.059
57,0.09329999999999999,1314.431
58,0.094967,1314.431
59,0.096633,1317.188
60,0.0983,1320.839
61,0.099967,1320.392
62,0.101633,1320.392
63,0.1033,1316.369
64,0.104967,1312.941
65,0.106633,1313.612
66,0.1083,1313.612
67,0.109967,1311.824
68,0.111633,1314.133
69,0.1133,1314.804
70,0.114967,1314.804
71,0.116633,1309.663
72,0.1183,1310.632
73,0.119967,1309.961
74,0.121633,1309.961
75,0.1233,1309.365
76,0.124967,1312.271
77,0.126633,1312.271
78,0.1283,1315.549
79,0.129983,1317.784
80,0.131633,1317.039
81,0.1333,1317.039
82,0.134967,1316.369
83,0.136633,1313.91
84,0.1383,1315.325
85,0.139967,1315.325
86,0.141633,1316.667
87,0.1433,1314.878
88,0.144967,1314.431
89,0.146633,1314.431
90,0.1483,1312.792
91,0.14995,1313.09
92,0.151717,1315.996
93,0.153283,1315.996
94,0.15495,1319.647
95,0.156617,1318.231
96,0.158283,1318.231
97,0.15995,1316.965
98,0.161617,1317.561
99,0.163283,1313.388
100,0.16495,1313.388
101,0.166617,1313.165
102,0.168283,1313.612
103,0.16995,1313.537
104,0.171617,1313.537
105,0.173283,1316.667
106,0.17495,1316.518
107,0.176617,1319.349
108,0.178283,1319.349
109,0.17995,1318.008
110,0.181617,1317.635
111,0.183283,1317.635
112,0.18505,1318.902
113,0.186617,1313.537
114,0.188283,1312.867
115,0.18995,1312.867
116,0.191617,1307.651
117,0.193283,1305.342
118,0.19495,1308.844
119,0.196617,1308.844
120,0.198283,1310.557
121,0.19995,1312.867
122,0.201617,1315.624
123,0.203283,1315.624
124,0.20495,1314.58
125,0.206617,1314.208
126,0.208283,1314.208
127,0.20995,1314.878
128,0.2116,1313.314
129,0.213267,1313.835
130,0.214933,1313.835
131,0.2166,1313.239
132,0.218267,1313.463
133,0.219933,1314.357
134,0.2216,1314.357
135,0.223267,1313.388
136,0.224933,1312.718
137,0.2266,1312.42
138,0.228267,1312.42
139,0.229933,1311.228
140,0.2316,1310.036
141,0.233267,1309.291
142,0.234933,1309.291
143,0.2366,1311.228
144,0.238267,1312.643
145,0.239933,1312.643
146,0.2416,1314.431
147,0.243267,1317.188
148,0.244933,1318.306
149,0.2466,1318.306
150,0.248267,1317.635
151,0.249933,1317.859
152,0.251583,1317.263
153,0.25325,1317.263
154,0.254917,1311.824
155,0.256583,1311.526
156,0.25825,1307.726
157,0.259917,1307.726
158,0.261583,1308.024
159,0.26325,1311.824
160,0.264917,1311.824
161,0.266583,1311.898
162,0.26825,1314.357
163,0.269983,1311.824
164,0.271567,1311.824
165,0.273233,1312.345
166,0.2749,1313.91
167,0.276567,1313.09
168,0.278233,1313.09
169,0.2799,1314.953
170,0.281567,1311.302
171,0.283233,1307.502
172,0.2849,1307.502
173,0.286567,1308.62
174,0.288233,1307.577
175,0.2899,1307.577
176,0.291567,1311.749
177,0.293233,1316.816
178,0.2949,1315.922
179,0.296567,1315.922
180,0.298233,1314.208
181,0.2999,1311.898
182,0.301567,1309.44
183,0.303333,1309.44
184,0.3049,1308.993
185,0.306567,1308.545
186,0.308233,1307.204
187,0.309933,1307.204
188,0.311567,1308.396
189,0.313233,1310.259
190,0.3149,1314.506
191,0.316567,1314.506
192,0.318233,1314.58
193,0.3199,1312.494
194,0.321567,1312.494
195,0.323233,1312.643
196,0.3249,1312.196
197,0.326567,1309.887
198,0.328233,1309.887
199,0.329883,1309.514
200,0.33155,1310.11
201,0.333217,1307.726
202,0.334883,1307.726
203,0.33655,1311.973
204,0.338217,1313.239
205,0.339883,1311.749
206,0.34155,1311.749
207,0.343233,1313.016
208,0.344883,1310.93
209,0.34655,1310.93
210,0.348217,1310.483
211,0.349883,1312.196
212,0.35155,1312.643
213,0.353217,1312.643
214,0.354883,1313.463
215,0.35655,1312.42
216,0.358217,1312.643
217,0.359883,1312.643
218,0.36155,1314.282
219,0.363217,1316.965
220,0.364883,1321.211
221,0.36655,1321.211
222,0.368217,1320.913
223,0.369883,1320.988
224,0.37155,1319.796
225,0.373217,1319.796
226,0.374883,1319.125
227,0.37655,1318.38
228,0.378217,1318.38
229,0.379883,1320.094
230,0.38155,1324.117
231,0.383233,1327.47
232,0.384883,1327.47
233,0.38655,1333.505
234,0.388217,1335.815
235,0.389867,1336.411
236,0.391533,1336.411
237,0.3932,1340.732
238,0.394867,1347.512
239,0.396533,1356.155
240,0.3982,1356.155
241,0.399867,1363.382
242,0.401533,1367.927
243,0.4032,1367.927
244,0.404933,1372.397
245,0.406533,1376.346
246,0.4082,1386.404
247,0.409867,1386.404
248,0.411533,1393.259
249,0.4132,1397.58
250,0.414867,1403.466
251,0.416533,1403.466
252,0.418233,1409.054
253,0.419867,1417.398
254,0.421633,1423.88
255,0.4232,1423.88
256,0.424867,1429.394
257,0.426533,1434.088
258,0.428217,1434.684
259,0.429867,1434.684
260,0.431533,1436.472
261,0.4332,1436.695
262,0.434867,1436.695
263,0.436533,1435.801
264,0.4382,1436.844
265,0.439867,1439.899
266,0.441533,1439.899
267,0.4432,1441.687
268,0.444867,1439.974
269,0.446533,1440.197
270,0.4482,1440.197
271,0.44985,1437.888
272,0.451517,1435.205
273,0.453183,1430.288
274,0.45485,1430.288
275,0.456517,1425.296
276,0.458183,1418.591
277,0.45985,1418.591
278,0.461517,1411.065
279,0.463183,1405.403
280,0.46485,1397.878
281,0.466517,1397.878
282,0.468183,1393.706
283,0.46985,1393.333
284,0.471517,1391.098
285,0.473183,1391.098
286,0.47485,1390.129
287,0.476517,1386.33
288,0.478183,1378.134
289,0.47985,1378.134
290,0.481517,1372.62
291,0.483183,1365.468
292,0.48485,1365.468
293,0.48655,1359.954
294,0.488183,1356.229
295,0.48985,1353.621
296,0.491517,1353.621
297,0.493183,1351.908
298,0.49485,1350.194
299,0.496517,1347.065
300,0.498183,1347.065
301,0.49985,1343.265
302,0.501517,1339.689
303,0.503183,1336.262
304,0.50485,1336.262
305,0.506533,1336.783
306,0.5081830000000001,1336.262
307,0.509833,1335.517
308,0.511517,1335.517
309,0.513167,1337.156
310,0.514833,1337.23
311,0.5165,1337.23
312,0.518167,1343.191
313,0.519833,1350.641
314,0.5215,1358.762
315,0.523167,1358.762
316,0.524833,1372.844
317,0.5265,1390.278
318,0.5281670000000001,1415.61
319,0.529833,1415.61
320,0.5315,1445.413
321,0.5331669999999999,1482.069
322,0.534833,1528.04
323,0.5365,1528.04
324,0.538167,1583.397
325,0.539933,1652.688
326,0.5415,1652.688
327,0.54315,1737.326
328,0.544817,1835.525
329,0.5464830000000001,1950.935
330,0.54815,1950.935
331,0.549817,2085.716
332,0.5514829999999999,2238.899
333,0.55315,2411.157
334,0.554817,2411.157
335,0.5565,2602.786
336,0.55815,2813.712
337,0.559817,3045.872
338,0.561483,3045.872
339,0.56315,3300.831
340,0.564817,3582.314
341,0.566483,3886.819
342,0.56815,3886.819
343,0.569817,4210.174
344,0.5714669999999999,4558.638
345,0.573133,4558.638
346,0.5748,4923.716
347,0.576467,5308.837
348,0.578133,5719.438
349,0.5798,5719.438
350,0.581467,6149.188
351,0.583133,6597.266
352,0.5848,7066.205
353,0.586467,7066.205
354,0.588133,7554.069
355,0.5898,8055.195
356,0.591467,8574.425999999999
357,0.593133,8574.425999999999
358,0.5948,9104.088
359,0.596467,9642.690000000001
360,0.598133,9642.690000000001
361,0.5998,10191.053
362,0.601467,10746.121
363,0.60315,11310.503
364,0.6048,11310.503
365,0.606467,11876.076
366,0.608133,12440.979
367,0.6098,13003.274
368,0.611467,13003.274
369,0.613133,13558.418
370,0.6148,14107.675
371,0.616467,14647.245
372,0.618133,14647.245
373,0.6198,15174.076
374,0.621467,15682.876
375,0.623133,15682.876
376,0.624833,16173.571
377,0.626467,16644.672
378,0.6281330000000001,17096.176
379,0.6298,17096.176
380,0.63145,17521.754
381,0.63315,17916.412
382,0.634783,18286.482
383,0.63645,18286.482
384,0.638117,18623.471
385,0.639783,18931.553
386,0.64145,19206.926
387,0.643117,19206.926
388,0.644783,19440.428
389,0.64645,19639.432
390,0.6481170000000001,19800.813
391,0.649783,19800.813
392,0.65145,19928.068
393,0.6531169999999999,20027.906
394,0.654783,20027.906
395,0.65645,20091.385
396,0.6582170000000001,20120.889
397,0.659783,20121.336
398,0.66145,20121.336
399,0.663117,20083.563
400,0.664783,20022.02
401,0.66645,19932.314
402,0.668117,19932.314
403,0.669783,19813.775
404,0.67145,19677.43
405,0.673117,19514.338
406,0.674783,19514.338
407,0.67645,19334.629
408,0.678117,19135.773
409,0.679783,19135.773
410,0.68145,18924.176
411,0.683117,18696.711
412,0.684783,18459.781
413,0.68645,18459.781
414,0.688117,18218.83
415,0.689767,17964.691
416,0.691433,17705.857
417,0.6931,17705.857
418,0.694767,17443.299
419,0.696433,17173.365
420,0.6981000000000001,16902.537
421,0.699767,16902.537
422,0.701433,16632.602
423,0.7030999999999999,16362.519
424,0.704767,16096.384
425,0.706433,16096.384
426,0.7081,15833.154
427,0.709767,15571.714
428,0.711433,15571.714
429,0.7131,15312.434
430,0.714767,15054.644
431,0.716433,14797.598
432,0.7181,14797.598
433,0.719767,14549.866
434,0.721433,14304.295
435,0.7231,14065.206
436,0.7247670000000001,14065.206
437,0.726433,13835.43
438,0.7281,13605.133
439,0.7297670000000001,13383.105
440,0.731433,13383.105
441,0.7331,13163.611
442,0.7347669999999999,12948.588
443,0.736433,12948.588
444,0.7381,12738.779
445,0.739767,12532.845
446,0.741433,12333.244
447,0.74315,12333.244
448,0.744767,12136.549
449,0.746433,11946.932
450,0.7481,11765.286
451,0.74975,11765.286
452,0.751417,11588.559
453,0.7530829999999999,11412.055
454,0.75475,11240.318
455,0.756417,11240.318
456,0.758083,11069.85
457,0.759883,10904.968
458,0.761417,10749.996
459,0.763083,10749.996
460,0.76475,10596.812
461,0.766417,10445.565
462,0.768083,10445.565
463,0.76975,10298.938
464,0.771417,10154.322
465,0.773083,10014.549
466,0.77475,10014.549
467,0.7765,9880.662
468,0.778083,9747.297
469,0.7797500000000001,9616.837
470,0.781417,9616.837
471,0.783083,9489.879000000001
472,0.7847499999999999,9364.858
473,0.786417,9242.669
474,0.788083,9242.669
475,0.78975,9126.736999999999
476,0.791417,9011.402
477,0.793083,9011.402
478,0.79475,8898.824000000001
479,0.796417,8792.504999999999
480,0.798083,8684.843999999999
481,0.79975,8684.843999999999
482,0.801417,8580.684999999999
483,0.803083,8478.537
484,0.80475,8376.241
485,0.8064170000000001,8376.241
486,0.808083,8278.713
487,0.809733,8184.91
488,0.8114,8095.727
489,0.813067,8095.727
490,0.814733,8009.15
491,0.8164,7920.265
492,0.818067,7830.933
493,0.819733,7830.933
494,0.8214,7743.761
495,0.823067,7658.229
496,0.824733,7658.229
497,0.8264,7577.39
498,0.828067,7500.127
499,0.8297330000000001,7420.257
500,0.831417,7420.257
501,0.833067,7342.771
502,0.834717,7265.583
503,0.836383,7193.014
504,0.83805,7193.014
505,0.839717,7123.127
506,0.841383,7053.763
507,0.84305,6984.398
508,0.8447170000000001,6984.398
509,0.8464,6913.394
510,0.84805,6846.562
511,0.8497169999999999,6846.562
512,0.851383,6778.985
513,0.85305,6715.357
514,0.8547169999999999,6653.592
515,0.856383,6653.592
516,0.85805,6593.689
517,0.859717,6536.022
518,0.861417,6476.492
519,0.86305,6476.492
520,0.864717,6417.558
521,0.866383,6360.188
522,0.86805,6304.011
523,0.869717,6304.011
524,0.871367,6252.006
525,0.8730329999999999,6198.585
526,0.8747,6198.585
527,0.876367,6142.333
528,0.87815,6089.732
529,0.8797,6036.609
530,0.881367,6036.609
531,0.883033,5987.212
532,0.8847,5938.56
533,0.886367,5888.194
534,0.888033,5888.194
535,0.8897,5842.671
536,0.891367,5797.446
537,0.893033,5752.668
538,0.894817,5752.668
539,0.896367,5711.764
540,0.898033,5666.315
541,0.8997000000000001,5622.208
542,0.901367,5622.208
543,0.903033,5578.101
544,0.9046999999999999,5532.875
545,0.906367,5532.875
546,0.908033,5493.089
547,0.9097,5452.111
548,0.911467,5414.113
549,0.913033,5414.113
550,0.9147,5376.041
551,0.916367,5336.627
552,0.918033,5301.237
553,0.9197,5301.237
554,0.921367,5262.494
555,0.92305,5227.551
556,0.924717,5189.627
557,0.9263670000000001,5189.627
558,0.928033,5151.332
559,0.929683,5116.016
560,0.93135,5116.016
561,0.933017,5080.327
562,0.934683,5046.949
563,0.93635,5010.59
564,0.938017,5010.59
565,0.939683,4976.466
566,0.94135,4941.598
567,0.943017,4911.274
568,0.9446830000000001,4911.274
569,0.94635,4884.824
570,0.948017,4857.704
571,0.9496830000000001,4829.988
572,0.95135,4829.988
573,0.953017,4801.005
574,0.9546829999999999,4769.266
575,0.95635,4739.24
576,0.958017,4739.24
577,0.959683,4705.936
578,0.96135,4675.388
579,0.963017,4675.388
580,0.964683,4649.46
581,0.96635,4624.054
582,0.968017,4600.063
583,0.969683,4600.063
584,0.97135,4572.347
585,0.973017,4542.917
586,0.974683,4512.221
587,0.9763500000000001,4512.221
588,0.978017,4485.324
589,0.9797,4461.408
590,0.9813499999999999,4437.119
591,0.983017,4437.119
592,0.984683,4414.916
593,0.9863499999999999,4393.384
594,0.988017,4393.384
595,0.989667,4367.903
596,0.991367,4342.198
597,0.993,4316.717
598,0.994683,4316.717
599,0.9964499999999999,4290.715
600,0.998,4267.395
601,0.999667,4246.16
602,1.001333,4246.16
603,1.003,4226.789
604,1.004667,4206.076
605,1.00635,4185.959
606,1.008,4185.959
607,1.009667,4163.683
608,1.011333,4141.629
609,1.0131,4122.332
610,1.014667,4122.332
611,1.016333,4103.035
612,1.018,4083.514
613,1.019667,4083.514
614,1.021333,4061.907
615,1.023,4039.928
616,1.024667,4016.459
617,1.026333,4016.459
618,1.028,3996.79
619,1.029767,3978.908
620,1.031333,3959.984
621,1.033,3959.984
622,1.034667,3942.996
623,1.036333,3927.648
624,1.038,3908.426
625,1.039667,3908.426
626,1.041333,3890.768
627,1.043,3872.439
628,1.044667,3872.439
629,1.046333,3853.217
630,1.048,3836.975
631,1.04965,3820.136
632,1.051317,3820.136
633,1.052983,3803.969
634,1.05465,3789.216
635,1.056317,3770.515
636,1.057983,3770.515
637,1.05965,3754.72
638,1.061317,3739.894
639,1.062983,3718.659
640,1.064683,3718.659
641,1.066317,3704.205
642,1.067983,3688.335
643,1.06965,3688.335
644,1.071317,3670.38
645,1.072983,3656.298
646,1.07465,3642.812
647,1.076317,3642.812
648,1.077983,3627.613
649,1.07965,3613.234
650,1.081317,3601.313
651,1.082983,3601.313
652,1.08465,3585.815
653,1.086317,3570.989
654,1.087983,3556.758
655,1.08965,3556.758
656,1.091317,3540.367
657,1.092983,3527.179
658,1.09465,3511.31
659,1.096317,3511.31
660,1.097983,3497.452
661,1.09965,3486.574
662,1.101317,3486.574
663,1.102983,3471.747
664,1.10465,3460.571
665,1.106317,3449.917
666,1.107983,3449.917
667,1.109633,3436.133
668,1.1113,3423.393
669,1.112967,3411.472
670,1.1147,3411.472
671,1.1163,3399.551
672,1.117967,3388.822
673,1.119633,3374.517
674,1.1213,3374.517
675,1.122967,3360.584
676,1.124633,3345.236
677,1.126283,3345.236
678,1.12795,3331.006
679,1.129617,3320.724
680,1.131383,3311.56
681,1.13295,3311.56
682,1.134633,3302.321
683,1.136283,3288.016
684,1.13795,3277.883
685,1.139617,3277.883
686,1.141283,3264.248
687,1.14295,3250.316
688,1.144617,3238.842
689,1.146283,3238.842
690,1.148067,3226.399
691,1.149617,3213.882
692,1.151283,3201.664
693,1.15295,3201.664
694,1.154617,3191.605
695,1.156283,3180.429
696,1.15795,3180.429
697,1.159617,3170.669
698,1.161283,3161.877
699,1.16295,3151.819
700,1.164617,3151.819
701,1.1663,3144.294
702,1.16795,3134.757
703,1.1696,3127.53
704,1.171267,3127.53
705,1.172933,3119.484
706,1.1746,3109.723
707,1.176267,3101.155
708,1.177933,3101.155
709,1.1796,3090.501
710,1.181283,3078.729
711,1.182933,3078.729
712,1.1846,3066.957
713,1.186267,3056.079
714,1.187933,3045.276
715,1.1896,3045.276
716,1.191267,3037.751
717,1.192933,3030.822
718,1.1946,3023.669
719,1.196267,3023.669
720,1.197933,3016.442
721,1.1996,3006.235
722,1.201267,2996.549
723,1.202933,2996.549
724,1.204617,2988.353
725,1.206267,2979.711
726,1.207933,2971.813
727,1.2096,2971.813
728,1.211267,2962.053
729,1.212933,2952.814
730,1.2146,2952.814
731,1.216267,2945.289
732,1.217933,2940.074
733,1.2196,2931.655
734,1.221267,2931.655
735,1.222933,2923.459
736,1.2246,2914.444
737,1.226267,2903.491
738,1.227933,2903.491
739,1.229583,2896.786
740,1.231267,2887.771
741,1.232933,2878.308
742,1.234583,2878.308
743,1.23625,2872.348
744,1.237917,2866.015
745,1.239583,2866.015
746,1.24125,2858.937
747,1.242917,2851.635
748,1.244583,2843.812
749,1.24625,2843.812
750,1.247917,2834.499
751,1.249617,2826.229
752,1.25125,2819.225
753,1.252917,2819.225
754,1.254583,2810.881
755,1.25625,2803.877
756,1.257917,2796.203
757,1.259583,2796.203
758,1.26125,2787.709
759,1.262917,2778.247
760,1.264583,2778.247
761,1.266367,2770.051
762,1.267917,2763.718
763,1.269583,2759.918
764,1.27125,2759.918
765,1.272917,2756.193
766,1.274583,2750.531
767,1.27625,2741.59
768,1.277917,2741.59
769,1.279583,2731.085
770,1.28125,2723.113
771,1.282917,2713.501
772,1.284583,2713.501
773,1.28625,2708.733
774,1.287917,2705.529
775,1.289567,2697.408
776,1.291233,2697.408
777,1.2929,2693.012
778,1.294567,2686.158
779,1.296233,2686.158
780,1.2979,2677.292
781,1.299567,2671.778
782,1.301233,2666.19
783,1.3029,2666.19
784,1.304567,2660.975
785,1.306233,2653.152
786,1.3079,2648.16
787,1.309567,2648.16
788,1.311233,2643.094
789,1.3129,2635.643
790,1.314567,2631.247
791,1.316233,2631.247
792,1.3179,2626.33
793,1.319567,2619.55
794,1.321233,2619.55
795,1.3229,2615.601
796,1.324567,2610.013
797,1.326233,2602.041
798,1.3279,2602.041
799,1.329567,2595.112
800,1.33125,2589.598
801,1.3329,2583.638
802,1.334567,2583.638
803,1.336233,2580.583
804,1.3379,2574.995
805,1.339567,2565.607
806,1.341233,2565.607
807,1.3429,2559.796
808,1.344567,2553.835
809,1.346233,2549.514
810,1.3479,2549.514
811,1.34955,2548.322
812,1.35125,2546.534
813,1.352883,2546.534
814,1.35455,2539.978
815,1.356217,2532.378
816,1.357883,2525.3
817,1.35955,2525.3
818,1.361217,2519.712
819,1.362883,2515.838
820,1.36455,2511.367
821,1.366217,2511.367
822,1.367883,2507.642
823,1.36955,2499.446
824,1.371217,2495.274
825,1.372883,2495.274
826,1.37455,2489.984
827,1.376217,2484.694
828,1.377883,2484.694
829,1.37955,2482.906
830,1.381217,2477.914
831,1.382883,2476.424
832,1.38465,2476.424
833,1.386217,2470.761
834,1.387883,2464.354
835,1.38955,2457.425
836,1.391217,2457.425
837,1.392883,2449.825
838,1.39455,2444.014
839,1.396217,2436.265
840,1.397883,2436.265
841,1.39955,2432.093
842,1.401217,2426.058
843,1.402883,2421.811
844,1.40455,2421.811
845,1.406217,2419.576
846,1.407867,2413.168
847,1.40955,2413.168
848,1.4112,2409.294
849,1.412867,2408.102
850,1.414533,2407.059
851,1.4162,2407.059
852,1.41785,2405.569
853,1.419517,2403.259
854,1.421183,2396.405
855,1.42285,2396.405
856,1.424517,2390.966
857,1.426183,2385.378
858,1.42785,2379.939
859,1.429517,2379.939
860,1.431183,2374.127
861,1.43285,2366.081
862,1.434517,2366.081
863,1.436183,2360.94
864,1.43785,2357.438
865,1.439517,2356.097
866,1.441183,2356.097
867,1.44285,2355.576
868,1.444517,2351.701
869,1.446183,2347.007
870,1.44785,2347.007
871,1.449517,2340.525
872,1.451183,2332.553
873,1.45285,2328.083
874,1.454517,2328.083
875,1.456183,2324.432
876,1.45785,2322.644
877,1.459517,2322.644
878,1.461183,2320.781
879,1.46285,2316.162
880,1.464517,2310.574
881,1.466183,2310.574
882,1.46785,2307.743
883,1.469583,2303.272
884,1.471167,2299.473
885,1.472833,2299.473
886,1.4745,2296.045
887,1.476167,2292.842
888,1.477833,2288.893
889,1.4795,2288.893
890,1.481167,2287.924
891,1.482833,2288.222
892,1.4845,2285.093
893,1.4862,2285.093
894,1.487833,2283.826
895,1.4895,2280.921
896,1.491183,2280.921
897,1.49285,2278.387
898,1.4945,2273.47
899,1.496167,2269.894
900,1.497833,2269.894
901,1.4995,2267.808
902,1.501167,2262.816
903,1.502933,2259.016
904,1.5045,2259.016
905,1.506167,2256.557
906,1.507833,2248.585
907,1.5095,2245.232
908,1.511167,2245.232
909,1.512833,2240.762
