"ID","sea_time","fid_signal"
1,0,1328.737
2,0.001667,1327.544
3,0.003333,1325.905
4,0.005,1325.905
5,0.0067,1323.67
6,0.008333,1312.494
7,0.01,1293.793
8,0.011667,1293.793
9,0.013333,1277.253
10,0.015,1270.995
11,0.016667,1270.995
12,0.018333,1274.347
13,0.02,1287.982
14,0.021667,1299.307
15,0.023317,1299.307
16,0.025017,1304.522
17,0.02665,1308.322
18,0.028317,1309.663
19,0.029983,1309.663
20,0.03165,1310.483
21,0.033317,1309.141
22,0.034983,1310.185
23,0.03665,1310.185
24,0.038317,1309.589
25,0.039983,1310.557
26,0.041717,1313.537
27,0.043317,1313.537
28,0.045,1316.369
29,0.04665,1320.392
30,0.048317,1320.392
31,0.049983,1324.639
32,0.05165,1324.564
33,0.053317,1322.18
34,0.054983,1322.18
35,0.05665,1321.137
36,0.058383,1322.329
37,0.059983,1323.819
38,0.061667,1323.819
39,0.063317,1326.725
40,0.064983,1326.129
41,0.06665,1321.063
42,0.068317,1321.063
43,0.069983,1321.882
44,0.07165000000000001,1317.933
45,0.07331699999999999,1317.933
46,0.07498299999999999,1317.412
47,0.07665,1320.168
48,0.078317,1319.945
49,0.079983,1319.945
50,0.081633,1318.902
51,0.083333,1316.369
52,0.084967,1313.612
53,0.086633,1313.612
54,0.0883,1312.569
55,0.08996700000000001,1314.655
56,0.09163300000000001,1317.859
57,0.09329999999999999,1317.859
58,0.094967,1318.753
59,0.096633,1317.859
60,0.0983,1317.859
61,0.099967,1316.667
62,0.101633,1316.443
63,0.1033,1317.114
64,0.104967,1317.114
65,0.106633,1317.635
66,0.1083,1319.125
67,0.109967,1318.38
68,0.111633,1318.38
69,0.1133,1316.741
70,0.114967,1316.518
71,0.116633,1316.369
72,0.1183,1316.369
73,0.119967,1316.816
74,0.121633,1319.349
75,0.1233,1319.051
76,0.124967,1319.051
77,0.126633,1319.423
78,0.1283,1319.274
79,0.129967,1319.274
80,0.131633,1319.051
81,0.1333,1318.976
82,0.134967,1320.541
83,0.136633,1320.541
84,0.1383,1323.298
85,0.139983,1321.658
86,0.141633,1325.384
87,0.14335,1325.384
88,0.14495,1323.521
89,0.146617,1321.807
90,0.148283,1321.211
91,0.14995,1321.211
92,0.151617,1318.976
93,0.153317,1320.764
94,0.15495,1320.764
95,0.156617,1320.019
96,0.158283,1323.819
97,0.15995,1323
98,0.161617,1323
99,0.163283,1319.87
100,0.16495,1320.541
101,0.166617,1319.647
102,0.168283,1319.647
103,0.16995,1320.094
104,0.171617,1322.329
105,0.173283,1323.745
106,0.17495,1323.745
107,0.176683,1321.658
108,0.178283,1320.317
109,0.17995,1318.753
110,0.181617,1318.753
111,0.183283,1316.965
112,0.18495,1317.784
113,0.186617,1317.784
114,0.188283,1318.082
115,0.18995,1320.913
116,0.191617,1323.521
117,0.193283,1323.521
118,0.19495,1322.776
119,0.196617,1324.341
120,0.198283,1322.702
121,0.19995,1322.702
122,0.201617,1316.667
123,0.203267,1315.251
124,0.20495,1313.537
125,0.2066,1313.537
126,0.208267,1310.706
127,0.209933,1315.922
128,0.2116,1315.922
129,0.213267,1316.294
130,0.214933,1315.624
131,0.2166,1317.784
132,0.218267,1317.784
133,0.219933,1316.369
134,0.2216,1316.592
135,0.223267,1320.094
136,0.224967,1320.094
137,0.226683,1319.945
138,0.228267,1319.498
139,0.229933,1322.329
140,0.2316,1322.329
141,0.233267,1321.733
142,0.234933,1324.713
143,0.2366,1325.384
144,0.238267,1325.384
145,0.239933,1323.596
146,0.2416,1320.466
147,0.243267,1320.466
148,0.244933,1318.082
149,0.2466,1316.667
150,0.248267,1315.698
151,0.249933,1315.698
152,0.2516,1316.145
153,0.253267,1315.474
154,0.254933,1314.059
155,0.2566,1314.059
156,0.258267,1313.09
157,0.259933,1313.463
158,0.26165,1312.643
159,0.26325,1312.643
160,0.2649,1315.4
161,0.266567,1316.369
162,0.268233,1316.369
163,0.2699,1316.965
164,0.271567,1315.027
165,0.273233,1311.749
166,0.2749,1311.749
167,0.276567,1311.526
168,0.278233,1313.165
169,0.2799,1316.816
170,0.281567,1316.816
171,0.283233,1317.188
172,0.2849,1317.188
173,0.286567,1315.251
174,0.288233,1315.251
175,0.2899,1314.506
176,0.291567,1317.039
177,0.293233,1317.039
178,0.29495,1317.486
179,0.296567,1316.667
180,0.298233,1317.188
181,0.2999,1317.188
182,0.3016,1315.847
183,0.303233,1315.922
184,0.3049,1319.572
185,0.306567,1319.572
186,0.308233,1320.988
187,0.3099,1320.764
188,0.311567,1316.592
189,0.313233,1316.592
190,0.3149,1312.718
191,0.316567,1310.93
192,0.318233,1312.867
193,0.3199,1312.867
194,0.321567,1318.678
195,0.323217,1320.243
196,0.324883,1320.243
197,0.32655,1319.423
198,0.328217,1320.243
199,0.329883,1317.71
200,0.33155,1317.71
201,0.333217,1315.922
202,0.334883,1317.412
203,0.33655,1314.506
204,0.338217,1314.506
205,0.339883,1312.941
206,0.34155,1309.961
207,0.343217,1309.291
208,0.344883,1309.291
209,0.34655,1309.44
210,0.348217,1311.749
211,0.349883,1311.749
212,0.35155,1315.474
213,0.353217,1318.753
214,0.354883,1322.851
215,0.35655,1322.851
216,0.358217,1322.776
217,0.359883,1324.862
218,0.36155,1323.819
219,0.363217,1323.819
220,0.364883,1321.807
221,0.366567,1326.352
222,0.368283,1328.588
223,0.369883,1328.588
224,0.37155,1331.046
225,0.373217,1335.964
226,0.374883,1337.826
227,0.37655,1337.826
228,0.378217,1341.179
229,0.379967,1347.065
230,0.38155,1347.065
231,0.383217,1350.939
232,0.384867,1357.943
233,0.386533,1364.499
234,0.3882,1364.499
235,0.389867,1369.715
236,0.391533,1377.389
237,0.3932,1385.882
238,0.394867,1385.882
239,0.396533,1392.812
240,0.3982,1403.168
241,0.399867,1412.63
242,0.401533,1412.63
243,0.4032,1420.975
244,0.404867,1434.013
245,0.406533,1434.013
246,0.4082,1442.954
247,0.409867,1452.714
248,0.411533,1460.91
249,0.4133,1460.91
250,0.414867,1466.796
251,0.416533,1475.811
252,0.4182,1484.081
253,0.419867,1484.081
254,0.421533,1494.065
255,0.4232,1504.794
256,0.424867,1509.562
257,0.426533,1509.562
258,0.4282,1515.523
259,0.429867,1520.887
260,0.431533,1522.526
261,0.4332,1522.526
262,0.434867,1526.177
263,0.436533,1529.977
264,0.4382,1529.977
265,0.439867,1528.561
266,0.441517,1527.816
267,0.443183,1525.953
268,0.444883,1525.953
269,0.446567,1522.005
270,0.4482,1521.036
271,0.44985,1519.471
272,0.451517,1519.471
273,0.453183,1516.789
274,0.45485,1509.264
275,0.456517,1503.08
276,0.458183,1503.08
277,0.45985,1495.853
278,0.461517,1485.571
279,0.463183,1485.571
280,0.46485,1478.046
281,0.466517,1467.168
282,0.468183,1457.632
283,0.46985,1457.632
284,0.471517,1449.063
285,0.473183,1441.166
286,0.47485,1435.429
287,0.476517,1435.429
288,0.478183,1429.245
289,0.47985,1426.861
290,0.481517,1421.049
291,0.483183,1421.049
292,0.48485,1414.418
293,0.486517,1409.575
294,0.488183,1400.56
295,0.48985,1400.56
296,0.491517,1395.866
297,0.493183,1392.662
298,0.49485,1392.662
299,0.496517,1389.906
300,0.49825,1387.671
301,0.49985,1386.33
302,0.501517,1386.33
303,0.503183,1385.957
304,0.504833,1386.851
305,0.5065,1394.823
306,0.508167,1394.823
307,0.509833,1407.713
308,0.5115,1423.21
309,0.513167,1443.774
310,0.5149,1443.774
311,0.516517,1470.447
312,0.518167,1503.825
313,0.519833,1503.825
314,0.521517,1553.073
315,0.523167,1617.67
316,0.524833,1700.67
317,0.5265,1700.67
318,0.5281670000000001,1806.84
319,0.529833,1935.288
320,0.531567,2095.252
321,0.5331669999999999,2095.252
322,0.534833,2290.905
323,0.5365,2525.821
324,0.538167,2803.579
325,0.539833,2803.579
326,0.5415,3132.075
327,0.543167,3515.556
328,0.544833,3515.556
329,0.5465,3955.364
330,0.548167,4453.659
331,0.549833,5013.347
332,0.5515,5013.347
333,0.553167,5635.619
334,0.554817,6317.646
335,0.5564829999999999,7064.938
336,0.55815,7064.938
337,0.559817,7866.621
338,0.561483,8725.523999999999
339,0.563133,9643.51
340,0.5648,9643.51
341,0.5664670000000001,10615.289
342,0.568133,11640.861
343,0.5698,12712.255
344,0.5714669999999999,12712.255
345,0.573133,13827.16
346,0.5748,14984.31
347,0.576467,14984.31
348,0.578133,16176.478
349,0.5798,17406.27
350,0.581467,18668.174
351,0.583133,18668.174
352,0.5848,19953.102
353,0.586467,21267.832
354,0.588133,22599.398
355,0.5898,22599.398
356,0.591467,23952.275
357,0.593133,25324.002
358,0.5948,26707.352
359,0.596467,26707.352
360,0.598133,28100.76
361,0.5998,29498.711
362,0.601483,29498.711
363,0.603133,30899.346
364,0.6048,32296.852
365,0.606467,33695.398
366,0.608133,33695.398
367,0.6098,35088.957
368,0.611467,36475.434
369,0.613133,37852.078
370,0.6148,37852.078
371,0.616483,39213.672
372,0.618133,40558.652
373,0.6198,41885.227
374,0.621467,41885.227
375,0.623133,43190.941
376,0.624783,44475.867
377,0.62645,45736.879
378,0.628117,45736.879
379,0.629783,46970.098
380,0.63145,48177.094
381,0.6332,48177.094
382,0.634783,49354.137
383,0.63645,50500.93
384,0.638117,51621.273
385,0.639783,51621.273
386,0.64145,52707.047
387,0.643117,53752.809
388,0.644783,54757.074
389,0.64645,54757.074
390,0.6481170000000001,55715.516
391,0.649867,56625.531
392,0.65145,57488.082
393,0.6531169999999999,57488.082
394,0.654783,58301.91
395,0.65645,59058.219
396,0.658117,59058.219
397,0.659783,59749.633
398,0.66145,60374.512
399,0.663117,60925.93
400,0.664783,60925.93
401,0.66645,61393.008
402,0.668117,61771.422
403,0.669783,62045.977
404,0.67145,62045.977
405,0.673117,62198.789
406,0.674783,62214.73
407,0.67645,62073.84
408,0.678117,62073.84
409,0.679783,61748.176
410,0.68145,61214.863
411,0.6831,61214.863
412,0.684767,60455.426
413,0.686433,59449.973
414,0.6881,58182.703
415,0.689767,58182.703
416,0.691433,56654.066
417,0.6931,54877.996
418,0.694767,52884.445
419,0.69645,52884.445
420,0.6981000000000001,50724.598
421,0.699767,48457.906
422,0.701433,46145.469
423,0.7030999999999999,46145.469
424,0.704767,43849.496
425,0.706433,41620.879
426,0.7081,39494.484
427,0.709767,39494.484
428,0.711433,37492.141
429,0.7131,35628.973
430,0.714767,35628.973
431,0.716433,33903.422
432,0.7181,32311.604
433,0.719767,30849.799
434,0.721433,30849.799
435,0.7231,29502.734
436,0.7247670000000001,28266.609
437,0.726433,27122.572
438,0.728117,27122.572
439,0.7297670000000001,26067.271
440,0.731433,25089.309
441,0.7331,24176.092
442,0.7348170000000001,24176.092
443,0.736433,23329.779
444,0.7381,22535.547
445,0.739767,22535.547
446,0.741433,21790.861
447,0.7431,21094.457
448,0.74475,20437.166
449,0.746417,20437.166
450,0.7480830000000001,19820.705
451,0.74975,19236.506
452,0.7514999999999999,18685.982
453,0.7530829999999999,18685.982
454,0.75475,18164.367
455,0.756417,17668.455
456,0.758083,17200.484
457,0.75975,17200.484
458,0.761417,16755.461
459,0.763083,16333.387
460,0.76475,15929.714
461,0.766417,15929.714
462,0.768167,15547.946
463,0.76975,15181.303
464,0.771417,15181.303
465,0.773083,14836.341
466,0.77475,14507.473
467,0.776417,14190.078
468,0.778083,14190.078
469,0.7797500000000001,13891.235
470,0.781417,13598.8
471,0.783083,13318.137
472,0.784867,13318.137
473,0.786417,13054.014
474,0.788083,12796
475,0.78975,12549.907
476,0.791417,12549.907
477,0.793083,12312.829
478,0.79475,12080.371
479,0.796417,12080.371
480,0.798083,11859.834
481,0.79975,11646.822
482,0.801417,11443.123
483,0.803067,11443.123
484,0.804767,11247.694
485,0.8064,11053.905
486,0.808067,10868.46
487,0.809733,10868.46
488,0.8114,10690.689
489,0.813067,10517.091
490,0.814733,10352.209
491,0.8164,10352.209
492,0.818067,10192.319
493,0.819733,10036.379
494,0.8214,9888.41
495,0.823067,9888.41
496,0.824733,9743.272999999999
497,0.8264,9602.531999999999
498,0.828067,9602.531999999999
499,0.8297330000000001,9467.08
500,0.8314,9335.353999999999
501,0.833067,9205.564
502,0.8347329999999999,9205.564
503,0.8364,9082.406999999999
504,0.838067,8959.994000000001
505,0.839733,8836.091
506,0.8414,8836.091
507,0.843067,8719.861000000001
508,0.844733,8606.835999999999
509,0.846383,8496.643
510,0.84805,8496.643
511,0.8497169999999999,8393.674999999999
512,0.8514,8289.591
513,0.85305,8289.591
514,0.8547169999999999,8186.698
515,0.856383,8089.691
516,0.85805,7992.61
517,0.859717,7992.61
518,0.8614000000000001,7898.435
519,0.8630330000000001,7808.208
520,0.8647,7718.354
521,0.866367,7718.354
522,0.8680330000000001,7632.822
523,0.869833,7551.685
524,0.871367,7469.505
525,0.8730329999999999,7469.505
526,0.8747,7386.431
527,0.876367,7308.796
528,0.878033,7308.796
529,0.8797,7230.267
530,0.881367,7153.377
531,0.883033,7082.075
532,0.8847,7082.075
533,0.886417,7006.973
534,0.888033,6937.459
535,0.8897,6870.776
536,0.891367,6870.776
537,0.893033,6804.69
538,0.8947000000000001,6741.211
539,0.896367,6677.21
540,0.898033,6677.21
541,0.8997000000000001,6614.774
542,0.901367,6552.264
543,0.903133,6492.585
544,0.9046999999999999,6492.585
545,0.906367,6432.98
546,0.908033,6371.513
547,0.9097,6371.513
548,0.911367,6314.665
549,0.913033,6255.656
550,0.9147,6199.255
551,0.916367,6199.255
552,0.918033,6146.059
553,0.9197,6093.458
554,0.921367,6043.091
555,0.923033,6043.091
556,0.924683,5996.972
557,0.92635,5947.873
558,0.928017,5896.091
559,0.929683,5896.091
560,0.93135,5846.172
561,0.933017,5796.477
562,0.934683,5796.477
563,0.93635,5751.699
564,0.938017,5711.168
565,0.939733,5670.19
566,0.94135,5670.19
567,0.943017,5625.635
568,0.9446830000000001,5581.528
569,0.94635,5537.868
570,0.948017,5537.868
571,0.9496830000000001,5496.07
572,0.95135,5457.848
573,0.953017,5417.764
574,0.9546829999999999,5417.764
575,0.95635,5380.437
576,0.958017,5339.31
577,0.959683,5298.182
578,0.96135,5298.182
579,0.963017,5261.376
580,0.964683,5221.144
581,0.96635,5221.144
582,0.968017,5183.667
583,0.969683,5146.787
584,0.97135,5109.757
585,0.973017,5109.757
586,0.974683,5076.826
587,0.9763500000000001,5047.396
588,0.978017,5016.625
589,0.979683,5016.625
590,0.9813499999999999,4982.352
591,0.983,4947.409
592,0.984683,4911.497
593,0.986333,4911.497
594,0.98805,4878.64
595,0.989667,4848.987
596,0.991333,4848.987
597,0.993,4817.993
598,0.994667,4788.488
599,0.996333,4757.568
600,0.998,4757.568
601,0.999667,4729.927
602,1.001333,4704.147
603,1.003,4679.486
604,1.004733,4679.486
605,1.006333,4653.26
606,1.008,4624.501
607,1.0097,4595.22
608,1.01135,4595.22
609,1.013,4566.833
610,1.014667,4540.384
611,1.016333,4515.499
612,1.018,4515.499
613,1.019667,4492.551
614,1.021433,4466.623
615,1.023,4466.623
616,1.024667,4441.664
617,1.026333,4416.183
618,1.028,4389.137
619,1.029667,4389.137
620,1.031333,4364.55
621,1.033,4344.583
622,1.034667,4326.626
623,1.036333,4326.626
624,1.038,4303.902
625,1.039667,4283.339
626,1.041333,4256.74
627,1.043,4256.74
628,1.04465,4230.439
629,1.046317,4208.609
630,1.047983,4208.609
631,1.04965,4184.544
632,1.051317,4164.577
633,1.052983,4144.609
634,1.05465,4144.609
635,1.056317,4125.982
636,1.057983,4106.164
637,1.05965,4086.867
638,1.061317,4086.867
639,1.062983,4067.421
640,1.06465,4047.23
641,1.066317,4029.199
642,1.067983,4029.199
643,1.06965,4010.424
644,1.071317,3988.37
645,1.072983,3966.019
646,1.07465,3966.019
647,1.076333,3946.945
648,1.077983,3928.468
649,1.079667,3928.468
650,1.081317,3912.672
651,1.082983,3899.708
652,1.08465,3879.741
653,1.086317,3879.741
654,1.087983,3860.667
655,1.089667,3842.786
656,1.091317,3822.595
657,1.092983,3822.595
658,1.09465,3804.266
659,1.096317,3783.405
660,1.097983,3766.194
661,1.09965,3766.194
662,1.101317,3748.76
663,1.102983,3732.219
664,1.104633,3732.219
665,1.106367,3719.479
666,1.107967,3703.609
667,1.109633,3687.367
668,1.1113,3687.367
669,1.112967,3675.595
670,1.114633,3660.843
671,1.1163,3645.793
672,1.117967,3645.793
673,1.119633,3630.966
674,1.1213,3615.916
675,1.122967,3603.175
676,1.124633,3603.175
677,1.1263,3588.274
678,1.127967,3578.141
679,1.129633,3578.141
680,1.1313,3562.57
681,1.132967,3545.21
682,1.134633,3532.544
683,1.136283,3532.544
684,1.13795,3515.854
685,1.1397,3501.251
686,1.141283,3489.554
687,1.14295,3489.554
688,1.144617,3474.802
689,1.146283,3464.371
690,1.14795,3455.132
691,1.149617,3455.132
692,1.151283,3442.168
693,1.152967,3429.502
694,1.154617,3413.781
695,1.156283,3413.781
696,1.15795,3398.806
697,1.159617,3385.991
698,1.161283,3385.991
699,1.16295,3373.921
700,1.1646,3361.031
701,1.166267,3349.93
702,1.167933,3349.93
703,1.1696,3338.531
704,1.171267,3327.355
705,1.172933,3318.414
706,1.1746,3318.414
707,1.176267,3306.642
708,1.177933,3296.509
709,1.1796,3284.141
710,1.181267,3284.141
711,1.182933,3272.444
712,1.1846,3258.437
713,1.186267,3258.437
714,1.187933,3244.43
715,1.1896,3233.254
716,1.191267,3221.333
717,1.192933,3221.333
718,1.1946,3214.031
719,1.196267,3202.632
720,1.197933,3191.903
721,1.1996,3191.903
722,1.201267,3180.355
723,1.202933,3168.881
724,1.2046,3161.132
725,1.206267,3161.132
726,1.207933,3152.49
727,1.2096,3144.667
728,1.211267,3137.588
729,1.212933,3137.588
730,1.2146,3125.295
731,1.216267,3115.162
732,1.217933,3115.162
733,1.2196,3105.402
734,1.221267,3092.662
735,1.222917,3084.838
736,1.224633,3084.838
737,1.22625,3075.451
738,1.227917,3067.851
739,1.229583,3061.369
740,1.23125,3061.369
741,1.232917,3052.354
742,1.234583,3044.978
743,1.23625,3033.951
744,1.237917,3033.951
745,1.239583,3022.552
746,1.24125,3011.525
747,1.242917,3011.525
748,1.244583,2999.827
749,1.24625,2991.11
750,1.247917,2985
751,1.249583,2985
752,1.25125,2979.636
753,1.252917,2974.197
754,1.2546,2964.213
755,1.25625,2964.213
756,1.258033,2954.602
757,1.259583,2944.917
758,1.26125,2935.529
759,1.262917,2935.529
760,1.264583,2927.557
761,1.26625,2917.722
762,1.267933,2911.687
763,1.269583,2911.687
764,1.27125,2905.354
765,1.272917,2901.852
766,1.274583,2901.852
767,1.27625,2896.86
768,1.277917,2890.304
769,1.279583,2879.724
770,1.28125,2879.724
771,1.282917,2865.493
772,1.284567,2854.243
773,1.286233,2842.844
774,1.2879,2842.844
775,1.289567,2836.212
776,1.291233,2833.903
777,1.2929,2827.793
778,1.294567,2827.793
779,1.296233,2821.46
780,1.297933,2816.841
781,1.299567,2816.841
782,1.301233,2807.826
783,1.3029,2798.438
784,1.304567,2790.466
785,1.306233,2790.466
786,1.3079,2780.11
787,1.309567,2773.181
788,1.311233,2770.424
789,1.3129,2770.424
790,1.314567,2767.22
791,1.316233,2762.899
792,1.3179,2758.205
793,1.319567,2758.205
794,1.321233,2750.233
795,1.3229,2739.728
796,1.324567,2739.728
797,1.326233,2732.277
798,1.3279,2722.144
799,1.329567,2713.725
800,1.331233,2713.725
801,1.3329,2708.957
802,1.334567,2701.059
803,1.336233,2695.844
804,1.3379,2695.844
805,1.339567,2692.64
806,1.341233,2686.232
807,1.342967,2680.197
808,1.34455,2680.197
809,1.346217,2674.088
810,1.347883,2668.053
811,1.34955,2659.261
812,1.351217,2659.261
813,1.352883,2654.12
814,1.35455,2646.372
815,1.356217,2646.372
816,1.357883,2638.176
817,1.35955,2633.631
818,1.361217,2625.734
819,1.362883,2625.734
820,1.36455,2621.189
821,1.366217,2616.271
822,1.3679,2612.546
823,1.36955,2612.546
824,1.371217,2611.801
825,1.372883,2606.362
826,1.37455,2601.072
827,1.376333,2601.072
828,1.377883,2592.504
829,1.37955,2585.128
830,1.381217,2585.128
831,1.382883,2583.191
832,1.38455,2578.572
833,1.386217,2573.729
834,1.387883,2573.729
835,1.38955,2566.203
836,1.391217,2558.008
837,1.392883,2552.941
838,1.39455,2552.941
839,1.396217,2549.589
840,1.397883,2542.809
841,1.39955,2536.476
842,1.401217,2536.476
843,1.402883,2531.26
844,1.404533,2526.566
845,1.4062,2524.48
846,1.407867,2524.48
847,1.409533,2522.021
848,1.4112,2514.646
849,1.412867,2514.646
850,1.414533,2507.791
851,1.4162,2500.787
852,1.417867,2497.36
853,1.419533,2497.36
854,1.4212,2495.274
855,1.422867,2493.709
856,1.424533,2488.345
857,1.4262,2488.345
858,1.42785,2480.671
859,1.429533,2477.542
860,1.431183,2473.146
861,1.43285,2473.146
862,1.434517,2471.208
863,1.436183,2469.197
864,1.43785,2469.197
865,1.439517,2463.907
866,1.441183,2457.351
867,1.44285,2450.198
868,1.444517,2450.198
869,1.446183,2441.853
870,1.44785,2432.466
871,1.449517,2428.517
872,1.451183,2428.517
873,1.45285,2426.431
874,1.454517,2423.748
875,1.456183,2421.215
876,1.45785,2421.215
877,1.459517,2417.937
878,1.461217,2415.106
879,1.46285,2415.106
880,1.4645,2411.231
881,1.466167,2408.4
882,1.467833,2400.652
883,1.4695,2400.652
884,1.471167,2393.275
885,1.472833,2389.327
886,1.4745,2386.198
887,1.476167,2386.198
888,1.47795,2383.888
889,1.4795,2379.492
890,1.481167,2372.786
891,1.482833,2372.786
892,1.4845,2368.018
893,1.486167,2362.952
894,1.487833,2360.418
895,1.4895,2360.418
896,1.491167,2356.395
897,1.492833,2349.913
898,1.494617,2344.996
899,1.496167,2344.996
900,1.497833,2339.408
901,1.4995,2337.992
902,1.501167,2337.992
903,1.502833,2334.49
904,1.5045,2330.318
905,1.506167,2326.071
906,1.507833,2326.071
907,1.5095,2321.899
908,1.511167,2319.44
909,1.512833,2316.087
910,1.5145,2316.087
