"ID","sea_time","fid_signal"
1,0,155.129
2,0.001667,155.002
3,0.003333,155.33
4,0.005,155.33
5,0.006667,155.501
6,0.008333,155.173
7,0.01,155.173
8,0.011733,154.324
9,0.013333,153.169
10,0.015,152.156
11,0.016667,152.156
12,0.018333,151.94
13,0.02,152.491
14,0.021667,152.767
15,0.023333,152.767
16,0.025,153.035
17,0.026667,153.08
18,0.028333,152.826
19,0.03,152.826
20,0.031667,153.117
21,0.033333,153.206
22,0.035,153.199
23,0.036717,153.199
24,0.038333,153.273
25,0.04,153.34
26,0.041683,153.34
27,0.043333,153.497
28,0.045,153.616
29,0.046667,153.452
30,0.048367,153.452
31,0.05,153.169
32,0.051667,152.923
33,0.053333,152.662
34,0.055,152.662
35,0.05665,153.005
36,0.058317,153.244
37,0.059983,153.571
38,0.06165,153.571
39,0.063317,153.542
40,0.064983,153.504
41,0.06665,153.504
42,0.068317,153.556
43,0.069983,153.646
44,0.07165000000000001,153.914
45,0.07331699999999999,153.914
46,0.07498299999999999,153.951
47,0.07665,153.691
48,0.078317,153.601
49,0.079983,153.601
50,0.08169999999999999,153.653
51,0.083317,153.489
52,0.084983,153.527
53,0.08665,153.527
54,0.08831700000000001,153.318
55,0.08998299999999999,153.288
56,0.09165,153.288
57,0.093317,153.497
58,0.094983,153.43
59,0.09665,153.556
60,0.098317,153.556
61,0.099983,153.75
62,0.10165,153.758
63,0.103317,153.951
64,0.104983,153.951
65,0.10665,154.264
66,0.108317,154.041
67,0.109983,154.033
68,0.11165,154.033
69,0.113317,154.108
70,0.114983,153.959
71,0.116633,154.011
72,0.1183,154.011
73,0.119967,154.003
74,0.121633,153.847
75,0.1233,153.847
76,0.124967,153.81
77,0.126633,153.825
78,0.1283,153.892
79,0.13,153.892
80,0.131633,154.175
81,0.1333,154.011
82,0.134967,153.936
83,0.136633,153.936
84,0.1383,153.549
85,0.139967,153.475
86,0.141633,153.527
87,0.1433,153.527
88,0.144967,153.475
89,0.146633,153.817
90,0.1483,153.817
91,0.14995,153.735
92,0.151617,153.959
93,0.153283,154.123
94,0.15495,154.123
95,0.156617,154.1
96,0.158283,153.854
97,0.15995,153.825
98,0.161617,153.825
99,0.163283,154.026
100,0.16495,154.093
101,0.166633,154.324
102,0.168283,154.324
103,0.16995,154.063
104,0.171617,153.825
105,0.173283,153.497
106,0.17495,153.497
107,0.176617,153.407
108,0.178267,153.653
109,0.179933,153.653
110,0.1816,153.817
111,0.183267,154.108
112,0.184933,154.458
113,0.1866,154.458
114,0.188267,154.406
115,0.189933,154.495
116,0.1916,154.756
117,0.193267,154.756
118,0.194933,154.696
119,0.1966,154.95
120,0.198267,154.816
121,0.20005,154.816
122,0.2016,154.51
123,0.203267,154.503
124,0.204933,154.503
125,0.2066,154.51
126,0.208267,154.309
127,0.209933,154.309
128,0.2116,154.309
129,0.213267,154.197
130,0.214933,153.817
131,0.216617,154.041
132,0.218267,154.041
133,0.219933,154.331
134,0.2216,154.473
135,0.223267,154.689
136,0.224933,154.689
137,0.226617,154.711
138,0.228267,154.57
139,0.229933,154.57
140,0.2316,154.421
141,0.233267,154.57
142,0.234933,154.547
143,0.2366,154.547
144,0.23825,154.547
145,0.239917,154.667
146,0.241583,154.592
147,0.24325,154.592
148,0.244917,154.659
149,0.246583,154.302
150,0.24825,154.227
151,0.249917,154.227
152,0.251583,154.003
153,0.25325,153.899
154,0.254917,154.167
155,0.256583,154.167
156,0.25825,154.495
157,0.259917,154.6
158,0.261583,154.6
159,0.26325,154.644
160,0.264917,154.801
161,0.266583,154.495
162,0.26825,154.495
163,0.269917,154.778
164,0.271583,154.771
165,0.27325,154.719
166,0.274917,154.719
167,0.276583,154.763
168,0.27825,154.57
169,0.279917,154.607
170,0.281583,154.607
171,0.28325,154.51
172,0.284983,154.585
173,0.286583,154.585
174,0.28825,154.495
175,0.289933,154.22
176,0.291583,154.153
177,0.29325,154.153
178,0.294917,154.22
179,0.296583,154.078
180,0.29825,154.331
181,0.29995,154.331
182,0.301633,154.421
183,0.303233,154.562
184,0.3049,154.793
185,0.306567,154.793
186,0.308233,155.024
187,0.3099,155.225
188,0.311567,154.905
189,0.313233,154.905
190,0.3149,154.741
191,0.316567,154.346
192,0.318333,154.145
193,0.3199,154.145
194,0.321567,154.175
195,0.323233,154.242
196,0.3249,154.242
197,0.326567,154.465
198,0.328233,154.458
199,0.3299,154.711
200,0.331567,154.711
201,0.333233,154.793
202,0.335,154.622
203,0.336567,154.331
204,0.338233,154.331
205,0.3399,153.892
206,0.341567,153.989
207,0.343233,153.989
208,0.3449,154.376
209,0.346567,154.741
210,0.348233,154.875
211,0.3499,154.875
212,0.351567,155.024
213,0.353233,155.091
214,0.3549,155.263
215,0.35655,155.263
216,0.358217,155.62
217,0.359883,155.672
218,0.36155,155.643
219,0.363217,155.643
220,0.364883,155.702
221,0.36655,155.65
222,0.368217,155.807
223,0.3699,155.807
224,0.371617,155.725
225,0.373217,155.821
226,0.374883,155.821
227,0.37655,156.052
228,0.378217,156.172
229,0.379883,156.902
230,0.38155,156.902
231,0.383217,157.289
232,0.384883,158.042
233,0.38655,158.623
234,0.388217,158.623
235,0.389883,159.293
236,0.39155,160.523
237,0.393217,161.603
238,0.394883,161.603
239,0.39655,163.332
240,0.398217,165.068
241,0.399883,165.068
242,0.40155,166.99
243,0.403217,169.232
244,0.404883,171.818
245,0.40655,171.818
246,0.408217,174.649
247,0.409883,177.592
248,0.41155,181.153
249,0.413217,181.153
250,0.414883,184.678
251,0.41655,188.708
252,0.4182,193.328
253,0.419933,193.328
254,0.421533,198.014
255,0.4232,202.954
256,0.424867,208.244
257,0.426533,208.244
258,0.4282,213.802
259,0.429867,219.494
260,0.431533,219.494
261,0.4332,225.663
262,0.434867,231.877
263,0.436583,238.106
264,0.4382,238.106
265,0.43985,244.61
266,0.441517,251.01
267,0.4432,257.283
268,0.444883,257.283
269,0.446533,263.505
270,0.448183,269.383
271,0.44985,275.202
272,0.451517,275.202
273,0.4533,280.581
274,0.45485,285.715
275,0.456517,285.715
276,0.458183,290.476
277,0.45985,294.715
278,0.461517,298.597
279,0.463183,298.597
280,0.46485,301.912
281,0.466517,304.841
282,0.468183,307.15
283,0.46985,307.15
284,0.471517,309.251
285,0.473183,310.436
286,0.47485,311.233
287,0.4765,311.233
288,0.478183,311.308
289,0.479833,310.719
290,0.4815,310.719
291,0.483167,310.071
292,0.484833,308.521
293,0.4865,306.39
294,0.488167,306.39
295,0.489833,303.648
296,0.4915,300.325
297,0.493167,297.144
298,0.494833,297.144
299,0.4965,293.65
300,0.498167,289.902
301,0.499833,285.707
302,0.5014999999999999,285.707
303,0.503167,280.559
304,0.504833,275.94
305,0.5065,270.978
306,0.508167,270.978
307,0.509833,265.777
308,0.5115,260.688
309,0.513217,260.688
310,0.51485,255.346
311,0.5165,249.945
312,0.518167,245.012
313,0.519833,245.012
314,0.5215,240.08
315,0.523167,234.909
316,0.524833,230.119
317,0.5265,230.119
318,0.5281670000000001,224.978
319,0.529833,220.299
320,0.5315,215.62
321,0.5331669999999999,215.62
322,0.534833,211.12
323,0.5365,207.178
324,0.5382,203.222
325,0.539817,203.222
326,0.541483,199.758
327,0.54315,196.256
328,0.544817,196.256
329,0.5464830000000001,193.022
330,0.54815,189.923
331,0.549817,187.069
332,0.5514829999999999,187.069
333,0.55315,184.424
334,0.55485,181.839
335,0.5564829999999999,179.544
336,0.55815,179.544
337,0.559817,176.981
338,0.561483,175.081
339,0.56315,173.33
340,0.564817,173.33
341,0.566483,171.55
342,0.56815,170.119
343,0.569817,170.119
344,0.57155,168.614
345,0.57315,167.087
346,0.574817,166.006
347,0.576483,166.006
348,0.5781500000000001,165.164
349,0.579817,164.226
350,0.581483,163.57
351,0.5831499999999999,163.57
352,0.584817,162.669
353,0.586483,161.655
354,0.58815,160.94
355,0.589817,160.94
356,0.5915,160.269
357,0.59315,159.666
358,0.59485,159.666
359,0.596467,159.144
360,0.598133,158.653
361,0.5998,158.556
362,0.601467,158.556
363,0.603133,158.437
364,0.6048,158.571
365,0.606467,158.414
366,0.608133,158.414
367,0.6098,158.34
368,0.611467,158.168
369,0.613133,157.803
370,0.6148,157.803
371,0.616467,157.595
372,0.618133,157.148
373,0.619817,157.058
374,0.621467,157.058
375,0.623133,157.073
376,0.6248,157.446
377,0.626467,157.446
378,0.6281330000000001,157.364
379,0.6298,157.498
380,0.631467,157.498
381,0.6331329999999999,157.498
382,0.6348,157.14
383,0.636467,156.976
384,0.638133,156.939
385,0.6398,156.939
386,0.641467,156.783
387,0.643133,156.701
388,0.6448,156.745
389,0.646467,156.745
390,0.648133,156.41
391,0.6498,156.44
392,0.651467,156.44
393,0.653133,156.477
394,0.6548,156.581
395,0.656483,156.805
396,0.658117,156.805
397,0.659783,156.76
398,0.66145,156.946
399,0.663133,157.051
400,0.6647999999999999,157.051
401,0.66645,156.879
402,0.668117,156.894
403,0.669783,156.797
404,0.67145,156.797
405,0.673117,156.917
406,0.674783,156.999
407,0.67645,156.999
408,0.678117,156.909
409,0.679783,156.663
410,0.68145,156.291
411,0.683117,156.291
412,0.684783,156.477
413,0.68645,156.648
414,0.688117,156.716
415,0.689883,156.716
416,0.69145,156.738
417,0.693117,156.634
418,0.694783,156.552
419,0.69645,156.552
420,0.698117,156.76
421,0.699783,157.006
422,0.70145,156.939
423,0.703117,156.939
424,0.704783,157.095
425,0.70645,156.999
426,0.708117,156.999
427,0.7097830000000001,156.663
428,0.71145,156.477
429,0.713117,156.537
430,0.7147829999999999,156.537
431,0.71645,156.805
432,0.7181,156.969
433,0.719767,157.043
434,0.721433,157.043
435,0.7231,156.857
436,0.7247670000000001,156.485
437,0.726433,156.38
438,0.7281,156.38
439,0.72975,156.477
440,0.731417,156.656
441,0.733083,156.656
442,0.73475,157.006
443,0.736433,157.326
444,0.738083,157.602
445,0.73975,157.602
446,0.741417,157.557
447,0.743083,157.386
448,0.74475,157.148
449,0.746417,157.148
450,0.748117,157.028
451,0.74975,156.894
452,0.751417,157.073
453,0.7530829999999999,157.073
454,0.75475,157.297
455,0.756417,157.081
456,0.758083,157.222
457,0.75975,157.222
458,0.761417,156.894
459,0.763083,156.671
460,0.76475,156.671
461,0.766417,156.812
462,0.768083,156.775
463,0.76975,156.79
464,0.771417,156.79
465,0.773083,156.857
466,0.774733,156.797
467,0.776417,156.835
468,0.778067,156.835
469,0.779733,157.118
470,0.7814,157.043
471,0.783067,157.207
472,0.784733,157.207
473,0.7864,157.215
474,0.788067,157.215
475,0.789733,157.215
476,0.7914,157.438
477,0.793067,157.177
478,0.79475,157.394
479,0.7964,157.394
480,0.798067,157.475
481,0.799733,157.662
482,0.8014,157.982
483,0.803067,157.982
484,0.804733,157.699
485,0.8064,157.289
486,0.808167,157.051
487,0.809733,157.051
488,0.8114,156.723
489,0.813067,156.581
490,0.814733,156.865
491,0.81645,156.865
492,0.818067,156.946
493,0.819733,157.237
494,0.8214,157.237
495,0.823067,157.349
496,0.824733,157.17
497,0.8264,157.2
498,0.828067,157.2
499,0.8297330000000001,157.237
500,0.8314,157.207
501,0.833067,157.468
502,0.834717,157.468
503,0.836383,157.319
504,0.838067,157.252
505,0.839767,157.706
506,0.841383,157.706
507,0.84305,157.729
508,0.8447170000000001,157.811
509,0.846383,157.811
510,0.84805,157.878
511,0.8497169999999999,157.572
512,0.851383,157.58
513,0.85305,157.58
514,0.8547169999999999,157.677
515,0.856383,157.744
516,0.85805,157.945
517,0.859717,157.945
518,0.861383,157.952
519,0.86305,157.803
520,0.864717,157.736
521,0.866383,157.736
522,0.86805,157.669
523,0.869717,157.513
524,0.871383,157.513
525,0.87305,157.662
526,0.874717,157.818
527,0.876383,157.893
528,0.87805,157.893
529,0.879717,157.99
530,0.881383,157.878
531,0.883083,157.543
532,0.884717,157.543
533,0.886383,157.431
534,0.88805,157.52
535,0.889717,157.52
536,0.891383,157.52
537,0.8931,157.565
538,0.894717,157.639
539,0.896367,157.61
540,0.898033,157.61
541,0.8997000000000001,157.595
542,0.901367,157.669
543,0.903033,157.669
544,0.9046999999999999,157.557
545,0.906367,157.729
546,0.908033,157.982
547,0.9097,157.982
548,0.911367,158.176
549,0.913033,158.317
550,0.9147,157.908
551,0.916367,157.908
552,0.918033,157.52
553,0.9197,157.468
554,0.921367,157.334
555,0.923033,157.334
556,0.9247,157.535
557,0.9263670000000001,157.736
558,0.928067,157.773
559,0.9297,157.773
560,0.9313669999999999,157.99
561,0.933033,158.191
562,0.9347,158.191
563,0.9363669999999999,158.302
564,0.938033,158.206
565,0.9397,158.25
566,0.941367,158.25
567,0.943033,158.37
568,0.9447,158.384
569,0.946367,158.504
570,0.948033,158.504
571,0.9497,158.384
572,0.951367,158.176
573,0.953033,158.25
574,0.9547,158.25
575,0.95635,158.198
576,0.958017,158.131
577,0.959683,158.131
578,0.961383,158.146
579,0.963017,158.049
580,0.964683,157.96
581,0.96635,157.96
582,0.968017,157.93
583,0.969683,157.751
584,0.97135,157.811
585,0.973017,157.811
586,0.974683,157.952
587,0.9763500000000001,157.997
588,0.978017,158.332
589,0.979683,158.332
590,0.9813499999999999,158.31
591,0.983017,158.206
592,0.984683,158.206
593,0.9863499999999999,158.444
594,0.988017,158.265
595,0.989683,158.25
596,0.99135,158.25
597,0.993017,158.325
598,0.994683,158.094
599,0.99635,157.982
600,0.998017,157.982
601,0.999683,158.221
602,1.00135,158.213
603,1.003017,158.235
604,1.0047,158.235
605,1.00635,158.414
606,1.008017,158.198
607,1.009683,158.079
608,1.01135,158.079
609,1.013017,157.967
610,1.014683,157.908
611,1.01635,157.908
612,1.018,157.796
613,1.019667,157.893
614,1.021317,158.153
615,1.022983,158.153
616,1.02465,158.243
617,1.026317,158.265
618,1.027983,158.198
619,1.029683,158.198
620,1.031317,158.019
621,1.032983,157.788
622,1.03465,158.086
623,1.036317,158.086
624,1.037983,158.288
625,1.03965,158.675
626,1.041317,158.675
627,1.042983,159.033
628,1.044767,158.839
629,1.046317,158.556
630,1.047983,158.556
631,1.04965,158.012
632,1.051317,157.632
633,1.052983,157.647
634,1.05465,157.647
635,1.056317,157.945
636,1.057983,158.198
637,1.05965,158.317
638,1.061317,158.317
639,1.062983,158.265
640,1.06465,158.131
641,1.066317,158.131
642,1.067983,158.086
643,1.06965,157.967
644,1.071317,158.191
645,1.072983,158.191
646,1.07465,158.265
647,1.0763,158.258
648,1.077967,158.384
649,1.079633,158.384
650,1.0813,157.885
651,1.082967,157.9
652,1.084633,158.191
653,1.0863,158.191
654,1.087967,158.399
655,1.089633,158.735
656,1.0913,158.526
657,1.092967,158.526
658,1.094633,158.25
659,1.0963,157.915
660,1.098,157.915
661,1.099633,157.781
662,1.1013,157.99
663,1.103,157.982
664,1.104633,157.982
665,1.1063,158.064
666,1.107967,158.191
667,1.109633,158.034
668,1.1113,158.034
669,1.112967,157.967
670,1.114633,158.101
671,1.1163,158.079
672,1.117967,158.079
673,1.119633,158.139
674,1.1213,158.034
675,1.122967,158.034
676,1.124633,157.937
677,1.1263,157.848
678,1.127967,157.841
679,1.129683,157.841
680,1.1313,157.997
681,1.132967,157.773
682,1.134633,157.587
683,1.136283,157.587
684,1.13795,157.52
685,1.139617,157.714
686,1.141283,158.258
687,1.14295,158.258
688,1.144617,158.548
689,1.146367,158.846
690,1.14795,158.727
691,1.149617,158.727
692,1.151283,158.347
693,1.15295,158.183
694,1.154617,158.183
695,1.156283,158.049
696,1.15795,157.878
697,1.159617,157.759
698,1.161283,157.759
699,1.16305,157.841
700,1.164617,157.766
701,1.166283,157.706
702,1.16795,157.706
703,1.169617,157.923
704,1.171283,157.878
705,1.17295,157.848
706,1.174617,157.848
707,1.176283,157.885
708,1.177967,157.706
709,1.179617,157.706
710,1.181317,157.967
711,1.18295,157.766
712,1.184617,157.841
713,1.186283,157.841
714,1.18795,158.004
715,1.189617,157.595
716,1.191283,157.692
717,1.19295,157.692
718,1.194617,157.55
719,1.196283,157.364
720,1.19795,157.49
721,1.1996,157.49
722,1.201267,157.349
723,1.202933,157.267
724,1.2046,157.215
725,1.206267,157.215
726,1.207933,157.237
727,1.2096,157.177
728,1.211267,157.177
729,1.212933,157.587
730,1.2146,157.736
731,1.216267,157.55
732,1.217933,157.55
733,1.2196,157.654
734,1.221267,157.207
735,1.222933,157.23
736,1.2246,157.23
737,1.226267,157.215
738,1.227933,157.095
739,1.2296,157.334
740,1.231267,157.334
741,1.232933,157.148
742,1.2346,157.267
743,1.236267,157.267
744,1.237933,157.304
745,1.2396,157.036
746,1.241267,157.103
747,1.242933,157.103
748,1.2446,157.237
749,1.246283,157.557
750,1.247983,157.87
751,1.2496,157.87
752,1.251267,157.915
753,1.252933,157.61
754,1.2546,157.185
755,1.25625,157.185
756,1.257917,156.932
757,1.259583,156.79
758,1.26125,156.79
759,1.262917,156.73
760,1.264667,156.976
761,1.26625,157.066
762,1.267917,157.066
763,1.269583,157.073
764,1.27125,157.468
765,1.272917,157.364
766,1.274583,157.364
767,1.27625,157.394
768,1.277917,157.543
769,1.279583,157.475
770,1.281283,157.475
771,1.282917,157.431
772,1.284583,157.341
773,1.28625,157.133
774,1.287917,157.133
775,1.289583,156.805
776,1.29125,156.835
777,1.292917,156.835
778,1.294583,157.088
779,1.29625,157.163
780,1.29795,157.408
781,1.299583,157.408
782,1.30125,157.416
783,1.302917,157.297
784,1.304583,157.669
785,1.30625,157.669
786,1.307917,157.49
787,1.309583,157.468
788,1.31125,157.423
789,1.3129,157.423
790,1.314567,157.014
791,1.316233,157.081
792,1.317883,157.081
793,1.31955,157.006
794,1.321217,156.812
795,1.322883,156.693
796,1.324617,156.693
797,1.326217,156.619
798,1.327883,156.552
799,1.32955,156.76
800,1.331217,156.76
801,1.332883,156.738
802,1.33455,156.909
803,1.336217,157.289
804,1.337883,157.289
805,1.33955,157.349
806,1.341217,157.729
807,1.342883,157.744
808,1.34455,157.744
809,1.346217,157.699
810,1.347883,157.394
811,1.34955,157.394
812,1.351217,157.394
813,1.352883,157.163
814,1.35455,157.014
815,1.356217,157.014
816,1.357883,157.081
817,1.35955,156.738
818,1.361217,156.805
819,1.362883,156.805
820,1.36455,156.656
821,1.366267,156.894
822,1.367883,157.177
823,1.36955,157.177
824,1.371217,157.2
825,1.372883,157.125
826,1.37455,157.125
827,1.376217,156.85
828,1.377867,156.79
829,1.379533,156.812
830,1.3812,156.812
831,1.3829,156.909
832,1.384533,156.857
833,1.3862,156.939
834,1.387867,156.939
835,1.389533,157.066
836,1.3912,157.17
837,1.392883,157.23
838,1.394617,157.23
839,1.3962,157.125
840,1.397867,157.155
841,1.3996,157.066
842,1.4012,157.066
843,1.402867,157.289
844,1.404533,157.163
845,1.4062,157.163
846,1.407867,157.148
847,1.409533,157.274
848,1.4112,156.984
849,1.412867,156.984
850,1.414533,156.835
851,1.4163,156.827
852,1.417867,156.827
853,1.419533,156.827
854,1.4212,156.976
855,1.422867,157.245
856,1.424533,157.066
857,1.426217,157.066
858,1.427867,156.961
859,1.429533,156.835
860,1.4312,156.835
861,1.432867,156.671
862,1.434533,156.596
863,1.436183,156.529
864,1.43785,156.529
865,1.439517,156.604
866,1.441183,156.775
867,1.44285,157.088
868,1.444517,157.088
869,1.446183,157.066
870,1.44785,156.976
871,1.449517,156.946
872,1.451183,156.946
873,1.45285,156.917
874,1.454517,157.058
875,1.456183,157.058
876,1.45785,157.192
877,1.459517,156.805
878,1.461183,156.492
879,1.46285,156.492
880,1.46455,156.216
881,1.4662,156.187
882,1.46785,156.358
883,1.469517,156.358
884,1.471183,156.499
885,1.47285,156.745
886,1.474517,156.671
887,1.476183,156.671
888,1.47785,156.887
889,1.479517,157.036
890,1.481183,157.319
891,1.48285,157.319
892,1.484517,157.461
893,1.486183,157.617
894,1.48785,157.617
895,1.489517,157.565
896,1.491183,157.14
897,1.49285,156.768
898,1.494517,156.768
899,1.496183,156.403
900,1.497833,156.283
901,1.4995,156.455
902,1.501217,156.455
903,1.502833,156.753
904,1.5045,156.805
905,1.506167,156.641
906,1.507833,156.641
907,1.5095,156.566
908,1.511167,156.499
909,1.512833,156.499
910,1.5145,156.432
911,1.516167,156.768
912,1.517867,156.932
913,1.5195,156.932
914,1.521167,157.237
915,1.522833,157.237
916,1.5245,157.028
917,1.526167,157.028
918,1.527833,156.827
919,1.5295,156.499
920,1.531167,156.626
921,1.532833,156.626
922,1.5346,156.581
923,1.536167,156.701
924,1.537833,156.708
925,1.5395,156.708
926,1.541167,156.589
927,1.542867,156.753
928,1.544517,156.753
929,1.546167,156.85
930,1.547833,157.177
931,1.5495,157.207
932,1.551167,157.207
933,1.552833,157.192
934,1.5545,156.932
935,1.556167,156.894
936,1.557817,156.894
937,1.559483,157.14
938,1.56115,157.021
939,1.562817,157.051
940,1.564483,157.051
941,1.56615,156.753
942,1.567817,156.544
943,1.569483,156.544
944,1.57115,156.797
945,1.572817,156.879
946,1.574483,156.805
947,1.57615,156.805
948,1.577817,156.768
949,1.579483,156.417
950,1.58115,156.663
951,1.582817,156.663
952,1.584483,157.058
953,1.58615,157.349
954,1.587817,157.364
955,1.589483,157.364
956,1.59115,157.371
957,1.592817,157.207
958,1.594483,156.79
959,1.59615,156.79
960,1.597817,156.775
961,1.599483,156.522
962,1.60115,156.522
963,1.602817,156.455
964,1.604467,156.775
965,1.606133,156.879
966,1.6078,156.879
967,1.609467,156.753
968,1.61115,156.671
969,1.6128,156.499
