"ID","sea_time","fid_signal"
1,0,30.277
2,0.001667,30.277
3,0.003333,30.273
4,0.005,30.27
5,0.006667,30.27
6,0.008333,30.265
7,0.01,30.228
8,0.011667,30.131
9,0.013333,30.131
10,0.015,30.014
11,0.016667,29.908
12,0.018333,29.856
13,0.02,29.856
14,0.021683,29.873
15,0.023333,29.912
16,0.025,29.944
17,0.026667,29.944
18,0.028367,29.964
19,0.03,29.976
20,0.031667,29.976
21,0.033333,29.983
22,0.035,29.998
23,0.036667,30.007
24,0.038317,30.007
25,0.039983,30.019
26,0.04165,30.027
27,0.043317,30.033
28,0.04505,30.033
29,0.04665,30.038
30,0.048317,30.044
31,0.049983,30.057
32,0.05165,30.057
33,0.053317,30.058
34,0.054983,30.062
35,0.056683,30.064
36,0.058317,30.064
37,0.059967,30.063
38,0.061733,30.067
39,0.0633,30.067
40,0.064967,30.076
41,0.066633,30.078
42,0.0683,30.08
43,0.069967,30.08
44,0.071633,30.084
45,0.0733,30.082
46,0.07496700000000001,30.088
47,0.07663300000000001,30.088
48,0.07829999999999999,30.087
49,0.079967,30.088
50,0.081633,30.09
51,0.0833,30.09
52,0.084967,30.084
53,0.086633,30.087
54,0.0883,30.087
55,0.08996700000000001,30.086
56,0.09163300000000001,30.087
57,0.09329999999999999,30.093
58,0.094967,30.093
59,0.096633,30.093
60,0.098283,30.097
61,0.09995,30.106
62,0.101617,30.106
63,0.103283,30.107
64,0.10495,30.108
65,0.106617,30.106
66,0.108283,30.106
67,0.10995,30.102
68,0.111617,30.104
69,0.113283,30.107
70,0.11495,30.107
71,0.11665,30.114
72,0.118283,30.119
73,0.11995,30.119
74,0.121617,30.118
75,0.123283,30.122
76,0.124967,30.124
77,0.126617,30.124
78,0.128283,30.127
79,0.12995,30.13
80,0.131617,30.126
81,0.133283,30.126
82,0.13495,30.126
83,0.136617,30.12
84,0.138283,30.12
85,0.13995,30.12
86,0.141617,30.12
87,0.143283,30.119
88,0.14495,30.119
89,0.146633,30.125
90,0.148283,30.12
91,0.14995,30.121
92,0.151617,30.121
93,0.153283,30.117
94,0.15495,30.115
95,0.156617,30.124
96,0.158267,30.124
97,0.159933,30.129
98,0.1616,30.137
99,0.163267,30.141
100,0.164933,30.141
101,0.1666,30.145
102,0.168267,30.155
103,0.169933,30.161
104,0.1716,30.161
105,0.173267,30.166
106,0.174933,30.165
107,0.1766,30.165
108,0.178267,30.159
109,0.18,30.151
110,0.1816,30.152
111,0.183267,30.152
112,0.184933,30.151
113,0.1866,30.155
114,0.188267,30.164
115,0.189933,30.164
116,0.1916,30.167
117,0.193267,30.17
118,0.194933,30.172
119,0.196717,30.172
120,0.198267,30.175
121,0.199933,30.18
122,0.201617,30.18
123,0.203317,30.18
124,0.204933,30.178
125,0.2066,30.175
126,0.208267,30.175
127,0.209933,30.168
128,0.2116,30.172
129,0.213267,30.176
130,0.214933,30.176
131,0.2166,30.181
132,0.21825,30.184
133,0.219917,30.188
134,0.221583,30.188
135,0.22325,30.185
136,0.224917,30.183
137,0.226583,30.183
138,0.22825,30.184
139,0.229917,30.181
140,0.231583,30.188
141,0.23325,30.188
142,0.234917,30.188
143,0.236583,30.186
144,0.23825,30.182
145,0.239917,30.182
146,0.241583,30.181
147,0.24325,30.185
148,0.244917,30.189
149,0.246583,30.189
150,0.24825,30.19
151,0.249917,30.189
152,0.251583,30.188
153,0.25325,30.188
154,0.254917,30.185
155,0.256583,30.182
156,0.25825,30.182
157,0.259917,30.179
158,0.261583,30.172
159,0.26325,30.168
160,0.26495,30.168
161,0.266583,30.169
162,0.26825,30.171
163,0.269917,30.175
164,0.271583,30.175
165,0.273267,30.177
166,0.274933,30.177
167,0.276583,30.175
168,0.278233,30.175
169,0.2799,30.179
170,0.2816,30.179
171,0.283233,30.179
172,0.2849,30.179
173,0.286567,30.183
174,0.288233,30.184
175,0.2899,30.184
176,0.291567,30.192
177,0.293233,30.206
178,0.2949,30.214
179,0.296567,30.214
180,0.298267,30.218
181,0.2999,30.221
182,0.301567,30.22
183,0.303233,30.22
184,0.3049,30.221
185,0.306567,30.222
186,0.308233,30.223
187,0.3099,30.223
188,0.311567,30.221
189,0.313233,30.214
190,0.315033,30.21
191,0.316567,30.21
192,0.318233,30.209
193,0.3199,30.211
194,0.321567,30.211
195,0.323233,30.213
196,0.3249,30.212
197,0.326567,30.209
198,0.328233,30.209
199,0.3299,30.207
200,0.331567,30.21
201,0.333233,30.219
202,0.3349,30.219
203,0.33655,30.227
204,0.338217,30.233
205,0.339883,30.233
206,0.34155,30.24
207,0.343217,30.243
208,0.344883,30.246
209,0.34655,30.246
210,0.348217,30.254
211,0.349883,30.26
212,0.351567,30.269
213,0.3532,30.269
214,0.354867,30.276
215,0.356533,30.288
216,0.3582,30.303
217,0.359867,30.303
218,0.361533,30.314
219,0.3632,30.326
220,0.364867,30.341
221,0.366533,30.341
222,0.3682,30.36
223,0.369867,30.387
224,0.371533,30.387
225,0.3732,30.424
226,0.374867,30.465
227,0.376533,30.506
228,0.3782,30.506
229,0.379867,30.555
230,0.381533,30.617
231,0.3832,30.696
232,0.384883,30.696
233,0.386533,30.794
234,0.3882,30.918
235,0.389867,31.063
236,0.391533,31.063
237,0.3932,31.245
238,0.394867,31.469
239,0.396533,31.469
240,0.398183,31.74
241,0.399917,32.075
242,0.401517,32.478
243,0.403183,32.478
244,0.40485,32.964
245,0.406517,33.544
246,0.408183,34.231
247,0.40985,34.231
248,0.411517,35.025
249,0.413183,35.952
250,0.41485,37.02
251,0.416617,37.02
252,0.4182,38.241
253,0.419867,39.624
254,0.421517,39.624
255,0.423183,41.174
256,0.42485,42.887
257,0.426517,44.773
258,0.428183,44.773
259,0.42985,46.834
260,0.431517,49.062
261,0.433283,51.455
262,0.43485,51.455
263,0.436517,53.988
264,0.438183,56.658
265,0.43985,59.437
266,0.441517,59.437
267,0.443183,62.31
268,0.44485,65.25
269,0.446517,68.218
270,0.448183,68.218
271,0.44985,71.197
272,0.451517,74.148
273,0.453183,74.148
274,0.45485,77.05200000000001
275,0.456517,79.877
276,0.458167,82.59
277,0.459833,82.59
278,0.4615,85.16200000000001
279,0.463167,87.556
280,0.464833,89.749
281,0.4665,89.749
282,0.468167,91.727
283,0.469833,93.464
284,0.4715,94.95099999999999
285,0.473167,94.95099999999999
286,0.474833,96.166
287,0.4765,97.09999999999999
288,0.478167,97.09999999999999
289,0.479833,97.74299999999999
290,0.4815,98.09699999999999
291,0.483167,98.16500000000001
292,0.484833,98.16500000000001
293,0.4865,97.953
294,0.4882,97.477
295,0.489867,96.74299999999999
296,0.4915,96.74299999999999
297,0.493167,95.768
298,0.494833,94.569
299,0.4965,93.158
300,0.498167,93.158
301,0.499833,91.556
302,0.5014999999999999,89.785
303,0.503167,87.86799999999999
304,0.504833,87.86799999999999
305,0.5065,85.833
306,0.508167,83.697
307,0.509833,83.697
308,0.5115,81.48699999999999
309,0.513167,79.21899999999999
310,0.514833,76.90900000000001
311,0.5165,76.90900000000001
312,0.518167,74.58199999999999
313,0.519817,72.23999999999999
314,0.521483,69.904
315,0.52315,69.904
316,0.524817,67.598
317,0.526483,65.32299999999999
318,0.52815,63.103
319,0.529817,63.103
320,0.531483,60.952
321,0.53315,58.868
322,0.534817,58.868
323,0.536483,56.86
324,0.53815,54.933
325,0.539817,53.088
326,0.541483,53.088
327,0.54315,51.332
328,0.544817,49.676
329,0.5464830000000001,48.122
330,0.54815,48.122
331,0.549817,46.651
332,0.5516,45.272
333,0.55315,43.979
334,0.554817,43.979
335,0.5564829999999999,42.769
336,0.55815,41.65
337,0.559817,40.614
338,0.561483,40.614
339,0.56315,39.657
340,0.564817,38.772
341,0.566483,38.772
342,0.56815,37.965
343,0.569817,37.225
344,0.571483,36.547
345,0.57315,36.547
346,0.574817,35.934
347,0.576467,35.364
348,0.578133,34.843
349,0.5798,34.843
350,0.581467,34.376
351,0.583133,33.95
352,0.5848,33.567
353,0.586467,33.567
354,0.588133,33.223
355,0.5898,32.912
356,0.591467,32.912
357,0.593133,32.633
358,0.5948,32.389
359,0.596467,32.173
360,0.598133,32.173
361,0.5998,31.987
362,0.601467,31.817
363,0.603133,31.664
364,0.6048,31.664
365,0.606467,31.523
366,0.608133,31.396
367,0.6098,31.291
368,0.611467,31.291
369,0.61315,31.2
370,0.6148,31.126
371,0.616467,31.052
372,0.618133,31.052
373,0.6198,30.985
374,0.621467,30.921
375,0.623133,30.921
376,0.6248,30.863
377,0.626467,30.817
378,0.6281330000000001,30.778
379,0.6298,30.778
380,0.631483,30.747
381,0.6331329999999999,30.722
382,0.6348,30.697
383,0.636533,30.697
384,0.638133,30.668
385,0.639817,30.646
386,0.641433,30.628
387,0.6431,30.628
388,0.644767,30.614
389,0.646433,30.617
390,0.6481,30.617
391,0.649767,30.612
392,0.651433,30.605
393,0.6531,30.604
394,0.654767,30.604
395,0.656433,30.588
396,0.6581,30.582
397,0.659767,30.577
398,0.661433,30.577
399,0.6631,30.572
400,0.664767,30.574
401,0.6664330000000001,30.57
402,0.6681,30.57
403,0.669867,30.571
404,0.6714329999999999,30.568
405,0.6731,30.568
406,0.674767,30.564
407,0.676433,30.563
408,0.6781,30.563
409,0.679767,30.563
410,0.681433,30.566
411,0.6831,30.571
412,0.684767,30.575
413,0.686433,30.575
414,0.6881,30.579
415,0.689767,30.573
416,0.691433,30.573
417,0.6931,30.573
418,0.694767,30.572
419,0.696433,30.572
420,0.698083,30.575
421,0.69975,30.575
422,0.701417,30.569
423,0.703083,30.566
424,0.70475,30.566
425,0.706417,30.56
426,0.708083,30.558
427,0.70975,30.563
428,0.71145,30.563
429,0.713083,30.563
430,0.71475,30.568
431,0.716417,30.573
432,0.718083,30.573
433,0.71975,30.575
434,0.721417,30.581
435,0.723083,30.578
436,0.72475,30.578
437,0.726417,30.572
438,0.7281,30.568
439,0.72975,30.568
440,0.731417,30.561
441,0.733083,30.565
442,0.73475,30.572
443,0.736417,30.572
444,0.738083,30.58
445,0.73975,30.585
446,0.741417,30.586
447,0.743083,30.586
448,0.74475,30.581
449,0.746417,30.575
450,0.7480830000000001,30.575
451,0.74975,30.575
452,0.751417,30.572
453,0.7530829999999999,30.57
454,0.754817,30.566
455,0.756417,30.566
456,0.758067,30.561
457,0.759733,30.569
458,0.7614,30.569
459,0.7630670000000001,30.574
460,0.764733,30.582
461,0.7664,30.586
462,0.7680670000000001,30.586
463,0.769733,30.584
464,0.7714,30.593
465,0.7730669999999999,30.598
466,0.774733,30.598
467,0.7764,30.602
468,0.778067,30.603
469,0.779733,30.598
470,0.7814,30.598
471,0.783067,30.592
472,0.784733,30.597
473,0.7864,30.597
474,0.788183,30.596
475,0.789733,30.594
476,0.7914,30.599
477,0.793067,30.599
478,0.794733,30.599
479,0.7964,30.61
480,0.798067,30.618
481,0.799733,30.618
482,0.8014,30.615
483,0.803067,30.615
484,0.804733,30.611
485,0.8064,30.611
486,0.808067,30.612
487,0.809733,30.62
488,0.8114,30.62
489,0.813067,30.62
490,0.814733,30.62
491,0.816433,30.612
492,0.8180500000000001,30.612
493,0.819717,30.606
494,0.821383,30.608
495,0.8230499999999999,30.609
496,0.824717,30.609
497,0.826383,30.608
498,0.82805,30.616
499,0.829717,30.613
500,0.831383,30.613
501,0.83305,30.612
502,0.834717,30.616
503,0.836383,30.613
504,0.83805,30.613
505,0.839717,30.617
506,0.841383,30.625
507,0.84305,30.625
508,0.8447170000000001,30.636
509,0.846383,30.644
510,0.84805,30.649
511,0.8497169999999999,30.649
512,0.851383,30.652
513,0.85305,30.652
514,0.8547670000000001,30.652
515,0.856383,30.652
516,0.85805,30.647
517,0.859717,30.643
518,0.861383,30.645
519,0.86305,30.645
520,0.864717,30.648
521,0.866383,30.649
522,0.86805,30.649
523,0.869717,30.647
524,0.871383,30.644
525,0.873117,30.639
526,0.874717,30.639
527,0.876367,30.645
528,0.878033,30.65
529,0.8797,30.655
530,0.881367,30.655
531,0.883033,30.664
532,0.8847,30.665
533,0.886367,30.668
534,0.888033,30.668
535,0.889767,30.674
536,0.891367,30.673
537,0.893033,30.673
538,0.8947000000000001,30.673
539,0.896367,30.673
540,0.89805,30.666
541,0.8997000000000001,30.666
542,0.901367,30.667
543,0.903033,30.669
544,0.9046999999999999,30.667
545,0.906467,30.667
546,0.908033,30.667
547,0.9097,30.67
548,0.911367,30.671
549,0.913033,30.671
550,0.9147,30.68
551,0.916367,30.688
552,0.918033,30.692
553,0.9197,30.692
554,0.921367,30.7
555,0.9231,30.703
556,0.9247,30.703
557,0.9263670000000001,30.704
558,0.928033,30.708
559,0.9297,30.714
560,0.9313669999999999,30.714
561,0.93305,30.716
562,0.934683,30.714
563,0.93635,30.711
564,0.9379999999999999,30.711
565,0.939667,30.711
566,0.941333,30.703
567,0.9429999999999999,30.706
568,0.944667,30.706
569,0.946333,30.706
570,0.948,30.7
571,0.949667,30.704
572,0.951333,30.704
573,0.953,30.707
574,0.954667,30.705
575,0.956333,30.705
576,0.958,30.703
577,0.959667,30.703
578,0.961333,30.701
579,0.963017,30.701
580,0.9646670000000001,30.709
581,0.966333,30.714
582,0.968,30.717
583,0.9696669999999999,30.717
584,0.971333,30.718
585,0.973,30.721
586,0.974667,30.727
587,0.976333,30.727
588,0.978017,30.73
589,0.979667,30.734
590,0.981333,30.734
591,0.983,30.736
592,0.984667,30.735
593,0.986333,30.734
594,0.988,30.734
595,0.989667,30.737
596,0.991367,30.734
597,0.993,30.731
598,0.994667,30.731
599,0.99635,30.736
600,0.9980329999999999,30.736
601,0.99965,30.741
602,1.001317,30.741
603,1.002983,30.744
604,1.00465,30.744
605,1.006317,30.744
606,1.008083,30.746
607,1.00965,30.741
608,1.011317,30.745
609,1.012983,30.745
610,1.01465,30.752
611,1.016317,30.759
612,1.017983,30.767
613,1.01965,30.767
614,1.021317,30.773
615,1.022983,30.773
616,1.02475,30.773
617,1.026317,30.773
618,1.027983,30.771
619,1.02965,30.77
620,1.031317,30.77
621,1.032983,30.77
622,1.03465,30.767
623,1.036317,30.767
624,1.037983,30.767
625,1.03965,30.766
626,1.041433,30.763
627,1.042983,30.766
628,1.04465,30.766
629,1.046317,30.77
630,1.047983,30.771
631,1.04965,30.777
632,1.051317,30.777
633,1.052983,30.774
634,1.05465,30.77
635,1.056317,30.767
636,1.057967,30.767
637,1.059633,30.766
638,1.0613,30.769
639,1.062967,30.769
640,1.064633,30.771
641,1.0663,30.774
642,1.067967,30.777
643,1.069633,30.777
644,1.0713,30.778
645,1.072967,30.78
646,1.074633,30.781
647,1.0763,30.781
648,1.077967,30.78
649,1.079633,30.779
650,1.0813,30.784
651,1.082967,30.784
652,1.084633,30.784
653,1.0863,30.781
654,1.087967,30.788
655,1.089633,30.788
656,1.0913,30.784
657,1.092967,30.783
658,1.094633,30.783
659,1.0963,30.792
660,1.097967,30.792
661,1.099633,30.791
662,1.1013,30.791
663,1.102967,30.793
664,1.104633,30.795
665,1.1063,30.791
666,1.107967,30.791
667,1.109633,30.799
668,1.1113,30.805
669,1.112967,30.804
670,1.114617,30.804
671,1.116283,30.807
672,1.11795,30.811
673,1.119617,30.811
674,1.121283,30.812
675,1.12295,30.813
676,1.124617,30.818
677,1.126367,30.818
678,1.12795,30.815
679,1.129617,30.815
680,1.131283,30.814
681,1.13295,30.814
682,1.134617,30.812
683,1.136283,30.81
684,1.13795,30.807
685,1.139617,30.807
686,1.1413,30.809
687,1.14305,30.811
688,1.144617,30.814
689,1.146283,30.814
690,1.14795,30.817
691,1.149617,30.817
692,1.151283,30.817
693,1.15295,30.812
694,1.154617,30.805
695,1.156283,30.803
696,1.15795,30.803
697,1.159733,30.805
698,1.161283,30.808
699,1.16295,30.813
700,1.164617,30.813
701,1.166283,30.812
702,1.16795,30.809
703,1.169617,30.806
704,1.171283,30.806
705,1.17295,30.811
706,1.174617,30.81
707,1.176283,30.81
708,1.177933,30.81
709,1.1796,30.813
710,1.181267,30.812
711,1.182933,30.812
712,1.1846,30.813
713,1.186267,30.814
714,1.187933,30.811
715,1.1896,30.811
716,1.191283,30.804
717,1.192933,30.803
718,1.1946,30.804
719,1.196267,30.804
720,1.197933,30.803
721,1.1996,30.797
722,1.201267,30.798
723,1.202933,30.798
724,1.2046,30.792
725,1.2063,30.792
726,1.20795,30.792
727,1.2096,30.8
728,1.211267,30.798
729,1.212933,30.804
730,1.2146,30.804
731,1.216267,30.805
732,1.217933,30.803
733,1.2196,30.807
734,1.221267,30.807
735,1.222933,30.804
736,1.224583,30.798
737,1.22625,30.793
738,1.227917,30.793
739,1.229583,30.79
740,1.23125,30.79
741,1.232917,30.79
742,1.234583,30.797
743,1.23625,30.803
744,1.2379,30.806
745,1.239567,30.806
746,1.241233,30.809
747,1.2429,30.807
748,1.244617,30.804
749,1.246233,30.804
750,1.2479,30.797
751,1.249567,30.795
752,1.251233,30.791
753,1.2529,30.791
754,1.254567,30.791
755,1.256233,30.797
756,1.2579,30.797
757,1.259567,30.798
758,1.261267,30.798
759,1.2629,30.802
760,1.264567,30.802
761,1.266233,30.797
762,1.2679,30.794
763,1.269567,30.798
764,1.271233,30.798
765,1.2729,30.797
766,1.274567,30.799
767,1.276233,30.799
768,1.278017,30.799
769,1.279567,30.794
770,1.281233,30.791
771,1.282917,30.789
772,1.284633,30.789
773,1.286233,30.787
774,1.2879,30.794
775,1.289567,30.794
776,1.291233,30.796
777,1.2929,30.801
778,1.294567,30.805
779,1.296233,30.805
780,1.297883,30.807
781,1.29955,30.805
782,1.301217,30.801
783,1.302883,30.801
784,1.30455,30.8
785,1.306217,30.802
786,1.307883,30.806
787,1.30955,30.806
788,1.311217,30.804
789,1.312883,30.798
790,1.31455,30.798
791,1.316217,30.785
792,1.317883,30.779
793,1.31955,30.783
794,1.321217,30.783
795,1.322883,30.785
796,1.32455,30.787
797,1.326217,30.792
798,1.327883,30.792
799,1.32955,30.794
800,1.331217,30.795
801,1.332883,30.801
802,1.33455,30.801
803,1.336217,30.802
804,1.337883,30.8
805,1.33955,30.8
806,1.341217,30.8
807,1.342883,30.797
808,1.34455,30.799
809,1.346217,30.799
810,1.347917,30.804
811,1.34955,30.801
812,1.351217,30.802
813,1.352883,30.802
814,1.35455,30.805
815,1.3562,30.8
816,1.3579,30.8
817,1.359533,30.8
818,1.3612,30.801
819,1.362867,30.797
820,1.364533,30.804
821,1.366217,30.804
822,1.367867,30.809
823,1.369533,30.807
824,1.3712,30.807
825,1.372867,30.807
826,1.374533,30.798
827,1.3762,30.8
828,1.377867,30.8
829,1.379533,30.805
830,1.3812,30.81
831,1.382867,30.814
832,1.384533,30.814
833,1.3862,30.809
834,1.387867,30.802
835,1.389533,30.8
836,1.3912,30.8
837,1.392867,30.802
838,1.394533,30.8
839,1.3963,30.803
840,1.397867,30.803
841,1.399533,30.797
842,1.4012,30.794
843,1.402867,30.794
844,1.404533,30.794
845,1.4062,30.795
846,1.407867,30.796
847,1.409533,30.796
848,1.4112,30.796
849,1.412867,30.799
850,1.414533,30.798
851,1.4162,30.798
852,1.41785,30.805
853,1.419517,30.807
854,1.421183,30.809
855,1.42285,30.809
856,1.424517,30.806
857,1.426183,30.802
858,1.427917,30.802
859,1.429517,30.803
860,1.431183,30.797
861,1.43285,30.8
862,1.434517,30.8
863,1.436183,30.802
864,1.43785,30.801
865,1.439517,30.807
866,1.441183,30.807
867,1.44285,30.803
868,1.444517,30.797
869,1.446183,30.796
870,1.447867,30.796
871,1.449517,30.791
872,1.451183,30.793
873,1.45285,30.793
874,1.454517,30.795
875,1.456183,30.793
876,1.45785,30.799
877,1.459517,30.799
878,1.461183,30.797
879,1.46285,30.796
880,1.464517,30.797
881,1.466183,30.797
882,1.46785,30.798
883,1.469517,30.804
884,1.471183,30.811
885,1.47285,30.811
886,1.474517,30.814
887,1.476183,30.815
888,1.477833,30.812
889,1.4795,30.812
890,1.481183,30.808
891,1.482833,30.805
892,1.4845,30.805
893,1.486167,30.803
894,1.487833,30.805
895,1.4895,30.801
896,1.491167,30.801
897,1.492833,30.795
898,1.4945,30.795
899,1.496167,30.798
900,1.497833,30.798
901,1.499533,30.802
902,1.501167,30.809
903,1.502833,30.8
904,1.5045,30.8
905,1.506167,30.792
906,1.507833,30.79
907,1.5095,30.79
908,1.511167,30.786
909,1.512833,30.787
910,1.514583,30.788
911,1.51615,30.788
912,1.517817,30.79
913,1.519483,30.788
914,1.52115,30.788
915,1.522817,30.788
916,1.524483,30.785
917,1.52615,30.781
918,1.527817,30.784
919,1.529483,30.784
920,1.53115,30.788
921,1.532817,30.792
922,1.534483,30.794
923,1.536167,30.794
924,1.5378,30.796
925,1.539467,30.797
926,1.54115,30.797
927,1.5428,30.799
928,1.544467,30.798
929,1.546133,30.797
930,1.5478,30.797
931,1.549467,30.793
932,1.551133,30.795
933,1.5528,30.791
934,1.554467,30.791
935,1.556133,30.789
936,1.5578,30.796
937,1.559467,30.791
938,1.561133,30.791
939,1.5628,30.79
940,1.564467,30.79
941,1.566133,30.79
942,1.5678,30.788
943,1.569467,30.788
944,1.571167,30.796
945,1.5728,30.796
946,1.574467,30.796
947,1.576133,30.798
948,1.5778,30.804
949,1.579467,30.804
950,1.581133,30.801
951,1.5828,30.803
952,1.584467,30.802
953,1.586133,30.802
954,1.5878,30.798
955,1.589467,30.793
956,1.591133,30.793
957,1.5928,30.787
958,1.594467,30.782
959,1.596133,30.778
960,1.597783,30.778
961,1.599533,30.783
962,1.601117,30.791
963,1.602783,30.797
964,1.60445,30.797
965,1.606117,30.797
966,1.607783,30.791
967,1.60945,30.778
968,1.611117,30.778
969,1.612783,30.772
970,1.61445,30.782
971,1.616117,30.783
972,1.617783,30.783
973,1.619483,30.789
974,1.621117,30.79
975,1.622783,30.79
976,1.62445,30.783
977,1.626117,30.783
978,1.627783,30.788
979,1.62945,30.788
980,1.631117,30.793
981,1.632883,30.795
982,1.63445,30.799
983,1.636117,30.799
984,1.637783,30.796
985,1.63945,30.796
986,1.641117,30.793
987,1.642783,30.793
988,1.64445,30.796
989,1.646117,30.801
990,1.647783,30.801
991,1.64945,30.8
992,1.65115,30.805
993,1.652783,30.803
994,1.65445,30.803
995,1.656117,30.801
996,1.657767,30.802
997,1.659433,30.804
998,1.6611,30.804
999,1.662767,30.81
1000,1.664433,30.812
1001,1.6661,30.811
1002,1.667767,30.811
1003,1.669433,30.811
1004,1.6711,30.807
1005,1.672767,30.804
1006,1.674433,30.804
1007,1.6761,30.802
