"ID","sea_time","fid_signal"
1,0,37.438
2,0.001667,37.438
3,0.003333,37.438
4,0.00505,37.432
5,0.006667,37.369
6,0.008333,37.369
7,0.01,37.204
8,0.011667,37.09
9,0.013333,37.09
10,0.014983,37.026
11,0.016667,37.077
12,0.018317,37.213
13,0.019983,37.213
14,0.0217,37.34
15,0.023317,37.384
16,0.024983,37.4
17,0.02665,37.4
18,0.028317,37.435
19,0.029983,37.432
20,0.03165,37.461
21,0.033317,37.461
22,0.034983,37.452
23,0.03665,37.429
24,0.038333,37.429
25,0.039983,37.428
26,0.041633,37.406
27,0.0433,37.404
28,0.044967,37.404
29,0.046633,37.415
30,0.0483,37.418
31,0.049967,37.401
32,0.051633,37.401
33,0.0533,37.398
34,0.054967,37.383
35,0.056633,37.35
36,0.0583,37.35
37,0.059967,37.376
38,0.061633,37.389
39,0.0633,37.389
40,0.064967,37.382
41,0.066633,37.411
42,0.0683,37.376
43,0.069967,37.376
44,0.071633,37.371
45,0.0733,37.376
46,0.07495,37.347
47,0.076617,37.347
48,0.07828300000000001,37.394
49,0.079983,37.42
50,0.081667,37.438
51,0.083283,37.438
52,0.08495,37.45
53,0.086617,37.421
54,0.088283,37.403
55,0.08995,37.403
56,0.091617,37.409
57,0.093283,37.438
58,0.09495000000000001,37.438
59,0.09661699999999999,37.457
60,0.098283,37.432
61,0.09995,37.415
62,0.101617,37.415
63,0.103283,37.4
64,0.10495,37.394
65,0.106617,37.418
66,0.1083,37.418
67,0.10995,37.415
68,0.111617,37.423
69,0.113283,37.427
70,0.11495,37.427
71,0.116617,37.411
72,0.118283,37.427
73,0.11995,37.427
74,0.121617,37.425
75,0.1233,37.424
76,0.12495,37.438
77,0.126617,37.438
78,0.128283,37.427
79,0.12995,37.416
80,0.131617,37.416
81,0.133283,37.416
82,0.13495,37.398
83,0.136617,37.403
84,0.138267,37.397
85,0.139983,37.397
86,0.1416,37.406
87,0.143267,37.432
88,0.14495,37.436
89,0.1466,37.436
90,0.148267,37.432
91,0.149933,37.43
92,0.1516,37.43
93,0.153267,37.421
94,0.154933,37.427
95,0.156617,37.444
96,0.158267,37.444
97,0.159933,37.451
98,0.1616,37.448
99,0.163267,37.418
100,0.164933,37.418
101,0.1666,37.406
102,0.168267,37.36
103,0.169933,37.367
104,0.1716,37.367
105,0.173267,37.391
106,0.174983,37.408
107,0.1766,37.408
108,0.178267,37.426
109,0.179933,37.406
110,0.1816,37.415
111,0.183267,37.415
112,0.184933,37.416
113,0.1866,37.43
114,0.188283,37.427
115,0.189933,37.427
116,0.1916,37.408
117,0.193267,37.394
118,0.194933,37.371
119,0.1966,37.371
120,0.19825,37.378
121,0.199917,37.373
122,0.201583,37.373
123,0.20325,37.368
124,0.204917,37.414
125,0.206583,37.448
126,0.20825,37.448
127,0.209917,37.467
128,0.211583,37.479
129,0.21325,37.451
130,0.214917,37.451
131,0.216583,37.4
132,0.21825,37.377
133,0.219917,37.371
134,0.221583,37.371
135,0.22325,37.386
136,0.224917,37.432
137,0.226583,37.467
138,0.22825,37.467
139,0.229917,37.476
140,0.231583,37.478
141,0.23325,37.478
142,0.234917,37.462
143,0.236583,37.441
144,0.23825,37.444
145,0.239917,37.444
146,0.241617,37.431
147,0.24325,37.432
148,0.244917,37.441
149,0.246583,37.441
150,0.24825,37.435
151,0.249917,37.446
152,0.251583,37.457
153,0.253283,37.457
154,0.254917,37.458
155,0.256583,37.486
156,0.2583,37.491
157,0.2599,37.491
158,0.261567,37.462
159,0.263233,37.462
160,0.2649,37.462
161,0.266567,37.423
162,0.268233,37.386
163,0.2699,37.4
164,0.271567,37.4
165,0.273233,37.394
166,0.275017,37.433
167,0.276567,37.47
168,0.278233,37.47
169,0.2799,37.481
170,0.281567,37.491
171,0.283233,37.471
172,0.2849,37.471
173,0.286567,37.493
174,0.288233,37.497
175,0.2899,37.497
176,0.291567,37.497
177,0.293233,37.472
178,0.2949,37.429
179,0.296567,37.429
180,0.298233,37.445
181,0.2999,37.436
182,0.301567,37.448
183,0.303233,37.448
184,0.3049,37.468
185,0.306567,37.469
186,0.308233,37.482
187,0.3099,37.482
188,0.311567,37.484
189,0.313233,37.462
190,0.314883,37.462
191,0.31655,37.437
192,0.318217,37.426
193,0.319883,37.432
194,0.32155,37.432
195,0.323217,37.445
196,0.324883,37.437
197,0.32655,37.435
198,0.328217,37.435
199,0.3299,37.429
200,0.331633,37.4
201,0.3332,37.388
202,0.334867,37.388
203,0.336533,37.388
204,0.3382,37.383
205,0.339867,37.412
206,0.341533,37.412
207,0.3432,37.435
208,0.344867,37.448
209,0.346533,37.448
210,0.3482,37.465
211,0.349867,37.439
212,0.351533,37.422
213,0.3532,37.422
214,0.354867,37.406
215,0.356533,37.397
216,0.3582,37.427
217,0.359933,37.427
218,0.361533,37.423
219,0.3632,37.445
220,0.364867,37.431
221,0.366533,37.431
222,0.3682,37.425
223,0.369867,37.436
224,0.371533,37.436
225,0.3732,37.405
226,0.374867,37.403
227,0.376517,37.403
228,0.378183,37.403
229,0.37985,37.406
230,0.381517,37.437
231,0.383183,37.448
232,0.38485,37.448
233,0.386517,37.455
234,0.388183,37.463
235,0.38985,37.422
236,0.391517,37.422
237,0.393283,37.435
238,0.39485,37.413
239,0.396517,37.413
240,0.398183,37.397
241,0.39985,37.428
242,0.401517,37.434
243,0.403183,37.434
244,0.404883,37.461
245,0.406533,37.491
246,0.408183,37.499
247,0.40985,37.499
248,0.411517,37.498
249,0.413183,37.476
250,0.41485,37.453
251,0.416517,37.453
252,0.418183,37.452
253,0.41985,37.456
254,0.421517,37.496
255,0.423183,37.496
256,0.42485,37.523
257,0.426517,37.548
258,0.428183,37.548
259,0.42985,37.592
260,0.431517,37.602
261,0.433183,37.631
262,0.43485,37.631
263,0.436517,37.675
264,0.438167,37.674
265,0.439833,37.707
266,0.4415,37.707
267,0.443167,37.75
268,0.444833,37.74
269,0.4465,37.755
270,0.448167,37.755
271,0.449833,37.798
272,0.4515,37.797
273,0.453167,37.797
274,0.454833,37.807
275,0.4565,37.849
276,0.458167,37.833
277,0.459833,37.833
278,0.4615,37.841
279,0.463167,37.875
280,0.464833,37.862
281,0.4665,37.862
282,0.468167,37.865
283,0.469833,37.903
284,0.4715,37.897
285,0.4732,37.897
286,0.474833,37.909
287,0.47655,37.924
288,0.478233,37.894
289,0.479833,37.894
290,0.4815,37.884
291,0.483167,37.864
292,0.484833,37.864
293,0.4865,37.848
294,0.488167,37.841
295,0.489833,37.834
296,0.4915,37.834
297,0.493167,37.803
298,0.494817,37.774
299,0.4965,37.768
300,0.49815,37.768
301,0.499817,37.739
302,0.501483,37.764
303,0.50315,37.783
304,0.504817,37.783
305,0.506483,37.764
306,0.50815,37.764
307,0.509817,37.764
308,0.511583,37.757
309,0.51315,37.757
310,0.514817,37.748
311,0.516483,37.748
312,0.51815,37.746
313,0.519817,37.73
314,0.521483,37.681
315,0.52315,37.681
316,0.524817,37.666
317,0.526483,37.619
318,0.52815,37.564
319,0.529817,37.564
320,0.531483,37.53
321,0.53315,37.517
322,0.534817,37.512
323,0.536483,37.512
324,0.53815,37.546
325,0.539817,37.572
326,0.541483,37.572
327,0.54315,37.543
328,0.544817,37.568
329,0.5464830000000001,37.56
330,0.54815,37.56
331,0.549817,37.561
332,0.5514829999999999,37.555
333,0.55315,37.522
334,0.554817,37.522
335,0.5564829999999999,37.479
336,0.558133,37.439
337,0.5598,37.43
338,0.561467,37.43
339,0.563133,37.461
340,0.5648,37.471
341,0.5664670000000001,37.471
342,0.568133,37.483
343,0.5698,37.505
344,0.5714669999999999,37.509
345,0.573133,37.509
346,0.5748,37.533
347,0.576467,37.524
348,0.578133,37.504
349,0.5798,37.504
350,0.581467,37.47
351,0.583133,37.443
352,0.5848,37.462
353,0.586467,37.462
354,0.588133,37.47
355,0.5898,37.48
356,0.591467,37.488
357,0.593133,37.488
358,0.5948,37.462
359,0.596533,37.448
360,0.598133,37.448
361,0.5998,37.419
362,0.601483,37.403
363,0.603133,37.403
364,0.6048,37.403
365,0.606467,37.391
366,0.608133,37.405
367,0.6098,37.416
368,0.611467,37.416
369,0.613117,37.448
370,0.6148,37.473
371,0.616467,37.478
372,0.618117,37.478
373,0.619783,37.509
374,0.621467,37.519
375,0.623133,37.519
376,0.624767,37.523
377,0.626433,37.546
378,0.6281,37.522
379,0.629867,37.522
380,0.631433,37.514
381,0.6331,37.52
382,0.634767,37.509
383,0.636433,37.509
384,0.6381,37.496
385,0.639767,37.514
386,0.641433,37.554
387,0.6431,37.554
388,0.644767,37.561
389,0.646433,37.587
390,0.6481,37.587
391,0.649767,37.59
392,0.651433,37.568
393,0.6531,37.588
394,0.654767,37.588
395,0.656433,37.613
396,0.6581,37.636
397,0.659767,37.65
398,0.661433,37.65
399,0.6631,37.656
400,0.664767,37.695
401,0.6664330000000001,37.702
402,0.6681,37.702
403,0.669767,37.715
404,0.6714329999999999,37.735
405,0.6731,37.743
406,0.674767,37.743
407,0.676417,37.76
408,0.678083,37.795
409,0.67975,37.795
410,0.6814170000000001,37.821
411,0.683083,37.796
412,0.68475,37.806
413,0.6864170000000001,37.806
414,0.688083,37.829
415,0.68975,37.851
416,0.6914169999999999,37.908
417,0.693117,37.908
418,0.694833,37.951
419,0.696417,38.001
420,0.698083,38.034
421,0.69975,38.034
422,0.701417,38.08
423,0.703083,38.119
424,0.70475,38.119
425,0.706417,38.17
426,0.708083,38.262
427,0.70975,38.331
428,0.711417,38.331
429,0.713083,38.416
430,0.71475,38.465
431,0.716417,38.482
432,0.718083,38.482
433,0.71975,38.533
434,0.721417,38.557
435,0.723083,38.616
436,0.72475,38.616
437,0.726417,38.698
438,0.728083,38.753
439,0.72975,38.853
440,0.731467,38.853
441,0.733083,38.951
442,0.73475,39.041
443,0.736417,39.041
444,0.738067,39.132
445,0.739733,39.192
446,0.7413999999999999,39.275
447,0.743067,39.275
448,0.744733,39.366
449,0.7464,39.496
450,0.74815,39.597
451,0.749733,39.597
452,0.7514,39.699
453,0.753067,39.81
454,0.754733,39.909
455,0.7564,39.909
456,0.758067,40.025
457,0.759733,40.133
458,0.7614,40.133
459,0.7630670000000001,40.241
460,0.76485,40.349
461,0.7664,40.47
462,0.7681,40.47
463,0.769767,40.61
464,0.7714,40.742
465,0.7730669999999999,40.88
466,0.774733,40.88
467,0.776417,41.033
468,0.778067,41.164
469,0.779733,41.316
470,0.7814,41.316
471,0.783067,41.468
472,0.784733,41.614
473,0.7864,41.776
474,0.788067,41.776
475,0.789733,41.926
476,0.7914,42.1
477,0.793067,42.1
478,0.794733,42.289
479,0.7964,42.476
480,0.79805,42.689
481,0.799717,42.689
482,0.801383,42.872
483,0.80305,43.018
484,0.804717,43.169
485,0.806383,43.169
486,0.80805,43.317
487,0.809717,43.502
488,0.811383,43.727
489,0.8130500000000001,43.727
490,0.814717,43.952
491,0.816383,44.147
492,0.8180500000000001,44.147
493,0.819717,44.36
494,0.821383,44.581
495,0.8230499999999999,44.765
496,0.824717,44.765
497,0.826383,45.01
498,0.82805,45.208
499,0.829717,45.408
500,0.831383,45.408
501,0.8331,45.63
502,0.834717,45.856
503,0.836383,46.056
504,0.83805,46.056
505,0.839717,46.317
506,0.841383,46.584
507,0.84305,46.584
508,0.8447170000000001,46.795
509,0.846383,47.07
510,0.84805,47.314
511,0.8497670000000001,47.314
512,0.851383,47.559
513,0.85305,47.843
514,0.8547169999999999,48.102
515,0.856367,48.102
516,0.858033,48.347
517,0.8597,48.601
518,0.861367,48.835
519,0.8630330000000001,48.835
520,0.8647,49.093
521,0.866433,49.357
522,0.8680330000000001,49.635
523,0.8697,49.635
524,0.871367,49.934
525,0.8730329999999999,50.233
526,0.8747,50.233
527,0.876367,50.518
528,0.878033,50.835
529,0.8797,51.143
530,0.881367,51.143
531,0.88315,51.427
532,0.8847,51.709
533,0.886367,51.971
534,0.888033,51.971
535,0.8897,52.249
536,0.891367,52.548
537,0.893033,52.854
538,0.8947000000000001,52.854
539,0.896367,53.139
540,0.898033,53.446
541,0.8997000000000001,53.446
542,0.901367,53.758
543,0.903033,54.076
544,0.9046999999999999,54.397
545,0.906367,54.397
546,0.908033,54.727
547,0.909733,55.084
548,0.9113830000000001,55.418
549,0.913033,55.418
550,0.914683,55.749
551,0.91635,56.054
552,0.918,56.337
553,0.919667,56.337
554,0.921333,56.672
555,0.923,57.025
556,0.924667,57.414
557,0.926333,57.414
558,0.928,57.776
559,0.929667,58.144
560,0.931333,58.144
561,0.9330000000000001,58.486
562,0.934667,58.798
563,0.936333,59.167
564,0.9379999999999999,59.167
565,0.939667,59.5
566,0.941333,59.86
567,0.9429999999999999,60.213
568,0.944667,60.213
569,0.946333,60.55
570,0.948,60.93
571,0.949667,61.319
572,0.95135,61.319
573,0.953,61.689
574,0.954667,62.085
575,0.956333,62.085
576,0.958,62.461
577,0.959667,62.847
578,0.961333,63.244
579,0.963,63.244
580,0.9646670000000001,63.618
581,0.966333,63.973
582,0.968067,64.339
583,0.9696669999999999,64.339
584,0.971333,64.729
585,0.973,65.099
586,0.974667,65.485
587,0.976333,65.485
588,0.978017,65.86499999999999
589,0.97965,66.251
590,0.981317,66.251
591,0.9829830000000001,66.66
592,0.984717,67.09999999999999
593,0.986317,67.523
594,0.9879829999999999,67.523
595,0.98965,67.949
596,0.991317,68.36
597,0.9929829999999999,68.756
598,0.99465,68.756
599,0.996317,69.148
600,0.997983,69.56100000000001
601,0.99965,69.985
602,1.001433,69.985
603,1.002983,70.39100000000001
604,1.00465,70.798
605,1.006317,71.22799999999999
606,1.007983,71.22799999999999
607,1.00965,71.626
608,1.011317,72.047
609,1.012983,72.047
610,1.01465,72.501
611,1.016317,72.90900000000001
612,1.017983,73.34399999999999
613,1.01965,73.34399999999999
614,1.021317,73.77800000000001
615,1.022983,74.22199999999999
616,1.02465,74.651
617,1.026317,74.651
618,1.027983,75.086
619,1.02965,75.506
620,1.031317,75.916
621,1.032983,75.916
622,1.03465,76.348
623,1.0363,76.794
624,1.037967,76.794
625,1.039633,77.26600000000001
626,1.0413,77.759
627,1.042967,78.239
628,1.044633,78.239
629,1.0463,78.721
630,1.047967,79.166
631,1.049633,79.599
632,1.0513,79.599
633,1.052983,80.042
634,1.054683,80.53
635,1.0563,81.01900000000001
636,1.057967,81.01900000000001
637,1.059633,81.495
638,1.0613,81.985
639,1.062967,82.43000000000001
640,1.064633,82.43000000000001
641,1.0663,82.90600000000001
642,1.067967,83.38
643,1.069633,83.38
644,1.0713,83.876
645,1.072967,84.371
646,1.074633,84.878
647,1.0763,84.878
648,1.077967,85.36499999999999
649,1.079633,85.831
650,1.0813,86.31399999999999
651,1.082967,86.31399999999999
652,1.084633,86.79600000000001
653,1.0863,87.304
654,1.087967,87.816
655,1.089633,87.816
656,1.0913,88.331
657,1.092967,88.84999999999999
658,1.094633,88.84999999999999
659,1.096283,89.364
660,1.09795,89.878
661,1.099617,90.40300000000001
662,1.101283,90.40300000000001
663,1.10295,90.92400000000001
664,1.104617,91.452
665,1.106283,92.009
666,1.10795,92.009
667,1.109617,92.515
668,1.111283,93.047
669,1.11295,93.58199999999999
670,1.114617,93.58199999999999
671,1.116283,94.09999999999999
672,1.11795,94.64
673,1.119733,95.166
674,1.121283,95.166
675,1.12295,95.685
676,1.124617,96.211
677,1.126283,96.211
678,1.127967,96.745
679,1.129667,97.27500000000001
680,1.131283,97.82899999999999
681,1.13295,97.82899999999999
682,1.134617,98.376
683,1.136283,98.94199999999999
684,1.13795,99.50700000000001
685,1.139617,99.50700000000001
686,1.141283,100.078
687,1.14295,100.668
688,1.144617,101.23
689,1.146283,101.23
690,1.14795,101.796
691,1.149617,102.325
692,1.151283,102.325
693,1.15295,102.843
694,1.154617,103.406
695,1.156267,103.968
696,1.157933,103.968
697,1.1596,104.598
698,1.161267,105.216
699,1.162933,105.805
700,1.1646,105.805
701,1.166267,106.423
702,1.167933,106.961
703,1.1696,107.55
704,1.171267,107.55
705,1.172933,108.162
706,1.1746,108.717
707,1.176267,109.319
708,1.177933,109.319
709,1.179617,109.874
710,1.181267,110.447
711,1.182933,110.447
712,1.1846,111.064
713,1.186267,111.673
714,1.187933,112.301
715,1.1896,112.301
716,1.191267,112.889
717,1.192933,113.466
718,1.19465,114.077
719,1.196267,114.077
720,1.197933,114.684
721,1.1996,115.293
722,1.201333,115.922
723,1.202933,115.922
724,1.204667,116.549
725,1.20625,117.168
726,1.207917,117.168
727,1.209583,117.806
728,1.21125,118.442
729,1.212917,119.057
730,1.214583,119.057
731,1.21625,119.706
732,1.2179,120.37
733,1.219567,120.997
734,1.221233,120.997
735,1.2229,121.643
736,1.224567,122.251
737,1.226233,122.844
738,1.2279,122.844
739,1.229567,123.468
740,1.231233,124.104
741,1.2329,124.104
742,1.234567,124.753
743,1.236233,125.427
744,1.238,126.096
745,1.239567,126.096
746,1.241233,126.752
747,1.2429,127.423
748,1.244567,128.059
749,1.246233,128.059
750,1.2479,128.722
751,1.249567,129.395
752,1.251233,130.053
753,1.2529,130.053
754,1.254567,130.77
755,1.256233,131.443
756,1.2579,132.085
757,1.259567,132.085
758,1.261233,132.722
759,1.2629,133.335
760,1.264567,133.335
761,1.266233,134.001
762,1.2679,134.701
763,1.269567,135.399
764,1.271233,135.399
765,1.2729,136.12
766,1.274567,136.808
767,1.27625,137.488
768,1.277917,137.488
769,1.27955,138.176
770,1.281217,138.825
771,1.282883,139.48
772,1.28455,139.48
773,1.286217,140.151
774,1.287883,140.829
775,1.28955,140.829
776,1.291217,141.536
777,1.292883,142.255
778,1.29455,142.926
779,1.296217,142.926
780,1.297883,143.614
781,1.29955,144.287
782,1.301217,144.975
783,1.302883,144.975
784,1.30455,145.698
785,1.306217,146.393
786,1.307883,147.09
787,1.30955,147.09
788,1.311217,147.79
789,1.312883,148.471
790,1.31455,149.166
791,1.316217,149.166
792,1.317883,149.865
793,1.31955,150.563
794,1.321217,150.563
795,1.32295,151.259
796,1.32455,151.972
797,1.326217,152.675
798,1.327883,152.675
799,1.32955,153.376
800,1.331217,154.095
801,1.332883,154.82
802,1.33455,154.82
803,1.336217,155.529
804,1.337867,156.239
805,1.33955,156.952
806,1.3412,156.952
807,1.342867,157.668
808,1.344533,158.37
809,1.3462,158.37
810,1.347867,159.075
811,1.349533,159.783
812,1.3512,160.514
813,1.352867,160.514
814,1.35455,161.233
815,1.356317,161.961
816,1.357867,162.666
817,1.359533,162.666
818,1.3612,163.344
819,1.362867,164.057
820,1.364533,164.767
821,1.3662,164.767
822,1.367867,165.474
823,1.369533,166.201
824,1.3712,166.918
825,1.372867,166.918
826,1.374533,167.64
827,1.3762,168.376
828,1.377867,168.376
829,1.379533,169.069
830,1.3812,169.798
831,1.382867,170.469
832,1.384533,170.469
833,1.3862,171.164
834,1.387867,171.876
835,1.389533,172.582
836,1.3912,172.582
837,1.392867,173.306
838,1.394533,174.019
839,1.396183,174.736
840,1.39785,174.736
841,1.399517,175.428
842,1.401183,176.141
843,1.40285,176.141
844,1.404517,176.842
845,1.406183,177.565
846,1.40785,178.264
847,1.409517,178.264
848,1.411183,178.944
849,1.41285,179.632
850,1.414517,180.305
851,1.416183,180.305
852,1.41785,181.035
853,1.419517,181.783
854,1.421183,182.509
855,1.42285,182.509
856,1.424517,183.209
857,1.426183,183.908
858,1.42785,183.908
859,1.429517,184.61
860,1.431183,185.31
861,1.43285,186.027
862,1.434517,186.027
863,1.436183,186.749
864,1.43785,187.451
865,1.439517,188.148
866,1.441217,188.148
867,1.44285,188.858
868,1.444517,189.526
869,1.446183,190.222
870,1.44785,190.222
871,1.449517,190.93
872,1.451183,191.603
873,1.45285,192.29
874,1.454517,192.29
875,1.456183,192.942
876,1.457833,193.591
877,1.4595,193.591
878,1.461167,194.293
879,1.462833,194.953
880,1.4645,195.669
881,1.466167,195.669
882,1.467833,196.371
883,1.4695,197.038
884,1.471167,197.733
885,1.472833,197.733
886,1.474617,198.394
887,1.476167,199.083
888,1.477833,199.743
889,1.4795,199.743
890,1.481167,200.426
891,1.482833,201.092
892,1.4845,201.092
893,1.486167,201.721
894,1.487833,202.356
895,1.4895,202.989
896,1.491167,202.989
897,1.492833,203.642
898,1.494533,204.299
899,1.496183,204.974
900,1.497817,204.974
901,1.499483,205.6
902,1.50115,206.217
903,1.502817,206.853
904,1.504483,206.853
905,1.50615,207.506
906,1.507817,208.158
907,1.509483,208.814
908,1.51115,208.814
909,1.512817,209.467
910,1.514483,210.089
911,1.51615,210.089
912,1.5178,210.748
913,1.519467,211.372
914,1.521133,212.035
915,1.5228,212.035
916,1.524467,212.695
917,1.526133,213.318
918,1.5278,213.93
919,1.529483,213.93
920,1.531133,214.514
921,1.5328,215.101
922,1.534467,215.703
923,1.536133,215.703
924,1.5378,216.343
925,1.539467,216.979
926,1.541133,216.979
927,1.5428,217.578
928,1.544467,218.216
929,1.546133,218.832
930,1.5478,218.832
931,1.549467,219.442
932,1.551133,220.083
933,1.5528,220.665
934,1.554467,220.665
935,1.556133,221.255
936,1.5578,221.837
937,1.559517,222.415
938,1.561133,222.415
939,1.5628,223.015
940,1.564483,223.584
941,1.566133,224.142
942,1.5678,224.142
943,1.569467,224.721
944,1.571133,225.3
945,1.5728,225.3
946,1.574467,225.904
947,1.5762,226.493
948,1.577783,227.037
949,1.57945,227.037
950,1.581117,227.576
951,1.582783,228.111
952,1.58445,228.675
953,1.586117,228.675
954,1.587783,229.216
955,1.58945,229.76
956,1.591117,230.321
957,1.592883,230.321
958,1.59445,230.858
959,1.596117,231.414
960,1.597783,231.414
961,1.59945,231.956
962,1.601117,232.487
963,1.602783,233.002
964,1.60445,233.002
965,1.606117,233.523
966,1.607783,234.044
967,1.60955,234.537
968,1.611117,234.537
969,1.612783,235.046
970,1.61445,235.559
971,1.616117,236.055
972,1.617783,236.055
973,1.61945,236.565
974,1.621117,237.107
975,1.622783,237.107
976,1.62445,237.634
977,1.626117,238.145
978,1.627783,238.65
979,1.62945,238.65
980,1.631117,239.131
981,1.632783,239.593
