"ID","sea_time","fid_signal"
1,0,140.25
2,0.001667,140.257
3,0.003333,140.339
4,0.005,140.339
5,0.006667,140.257
6,0.008333,140.22
7,0.01005,139.892
8,0.011667,139.892
9,0.01335,140.049
10,0.015,140.093
11,0.016667,140.034
12,0.018333,140.034
13,0.02,140.056
14,0.021667,140.198
15,0.023333,140.361
16,0.025,140.361
17,0.026767,140.466
18,0.028333,140.823
19,0.03,140.898
20,0.03165,140.898
21,0.033317,140.734
22,0.034983,140.458
23,0.03665,140.458
24,0.038317,140.347
25,0.039983,140.242
26,0.04165,140.071
27,0.043417,140.071
28,0.044967,140.123
29,0.046633,140.034
30,0.0483,140.056
31,0.049967,140.056
32,0.051633,140.227
33,0.0533,140.235
34,0.054967,140.391
35,0.056633,140.391
36,0.0583,140.436
37,0.059967,140.496
38,0.06165,140.496
39,0.0633,140.727
40,0.064967,140.592
41,0.066633,140.272
42,0.0683,140.272
43,0.069967,140.108
44,0.071633,139.84
45,0.0733,139.877
46,0.07496700000000001,139.877
47,0.07663300000000001,139.832
48,0.07829999999999999,139.706
49,0.079967,139.922
50,0.081633,139.922
51,0.0833,139.974
52,0.084967,140.294
53,0.086683,140.354
54,0.0883,140.354
55,0.08996700000000001,140.332
56,0.09163300000000001,140.369
57,0.09329999999999999,140.369
58,0.094967,140.078
59,0.096633,140.309
60,0.0983,140.324
61,0.099967,140.324
62,0.101633,140.376
63,0.1033,140.503
64,0.104967,140.354
65,0.106617,140.354
66,0.108283,140.406
67,0.10995,140.242
68,0.11165,140.078
69,0.113283,140.078
70,0.11495,140.257
71,0.116617,140.168
72,0.118283,140.168
73,0.11995,140.317
74,0.121617,140.309
75,0.123283,140.063
76,0.12495,140.063
77,0.126617,140.265
78,0.128317,140.22
79,0.12995,140.16
80,0.131617,140.16
81,0.133283,140.361
82,0.13495,140.145
83,0.136617,140.198
84,0.138283,140.198
85,0.13995,140.809
86,0.141617,140.794
87,0.143283,140.719
88,0.145033,140.719
89,0.146617,140.51
90,0.148283,139.982
91,0.14995,139.982
92,0.151617,139.862
93,0.153283,139.982
94,0.15495,140.212
95,0.156633,140.212
96,0.158283,140.429
97,0.15995,140.28
98,0.161717,140.317
99,0.1633,140.317
100,0.16495,140.131
101,0.1666,139.803
102,0.168267,139.84
103,0.169933,139.84
104,0.1716,139.676
105,0.173267,139.877
106,0.174933,139.877
107,0.1766,140.525
108,0.178267,140.958
109,0.179933,141.189
110,0.1816,141.189
111,0.183267,141.308
112,0.184933,141.092
113,0.1866,140.458
114,0.188267,140.458
115,0.189933,140.205
116,0.1916,139.728
117,0.193267,139.52
118,0.194933,139.52
119,0.1966,139.907
120,0.198267,140.168
121,0.199933,140.168
122,0.2016,140.369
123,0.203267,140.391
124,0.204933,140.563
125,0.2066,140.563
126,0.208267,140.615
127,0.209933,140.749
128,0.2116,140.63
129,0.213267,140.63
130,0.214933,140.406
131,0.2166,140.123
132,0.218267,140.19
133,0.219933,140.19
134,0.2216,140.443
135,0.223267,140.503
136,0.224933,140.749
137,0.226617,140.749
138,0.2283,140.667
139,0.229917,140.51
140,0.231617,140.51
141,0.23325,140.212
142,0.234917,139.892
143,0.236583,139.914
144,0.23825,139.914
145,0.239917,140.101
146,0.241583,140.339
147,0.24325,140.548
148,0.244917,140.548
149,0.2466,140.488
150,0.24825,140.443
151,0.249917,140.488
152,0.251583,140.488
153,0.25325,140.548
154,0.254917,140.555
155,0.256583,140.555
156,0.25825,140.488
157,0.259917,140.317
158,0.261583,139.959
159,0.263267,139.959
160,0.264917,139.751
161,0.266583,139.534
162,0.26825,139.616
163,0.269917,139.616
164,0.271583,139.855
165,0.27325,140.078
166,0.274917,140.406
167,0.276583,140.406
168,0.27825,140.548
169,0.280033,140.66
170,0.281583,140.876
171,0.28325,140.876
172,0.2849,140.876
173,0.286567,140.89
174,0.288233,140.89
175,0.2899,140.645
176,0.291567,140.25
177,0.293233,140.138
178,0.2949,140.138
179,0.296567,140.019
180,0.298233,140.443
181,0.2999,140.607
182,0.301567,140.607
183,0.303233,140.674
184,0.304933,140.794
185,0.3066,140.779
186,0.308233,140.779
187,0.3099,140.443
188,0.311567,140.116
189,0.313233,140.116
190,0.3149,139.87
191,0.316567,139.743
192,0.318233,140.049
193,0.3199,140.049
194,0.321567,140.429
195,0.323217,140.578
196,0.324883,140.622
197,0.32655,140.622
198,0.328217,140.466
199,0.329883,140.205
200,0.331567,140.034
201,0.333217,140.034
202,0.334883,140.004
203,0.33655,140.138
204,0.338217,140.138
205,0.339883,140.406
206,0.34155,140.92
207,0.343217,141.047
208,0.344867,141.047
209,0.346533,140.987
210,0.3482,140.965
211,0.349867,140.458
212,0.351533,140.458
213,0.3532,140.443
214,0.354867,140.555
215,0.356533,140.235
216,0.3582,140.235
217,0.359867,140.265
218,0.361533,140.175
219,0.3632,140.071
220,0.364867,140.071
221,0.366533,140.421
222,0.3682,140.473
223,0.369867,140.473
224,0.371533,140.66
225,0.373233,140.838
226,0.374867,141.002
227,0.37655,141.002
228,0.3782,141.405
229,0.379867,141.434
230,0.381533,141.628
231,0.3832,141.628
232,0.384867,142.112
233,0.386533,142.559
234,0.3882,143.334
235,0.389867,143.334
236,0.391533,144.094
237,0.3932,144.705
238,0.394867,144.705
239,0.396533,145.748
240,0.3983,147.037
241,0.399867,148.848
242,0.401533,148.848
243,0.4032,150.993
244,0.40485,153.34
245,0.406517,155.717
246,0.408183,155.717
247,0.40985,158.444
248,0.411517,161.67
249,0.413183,165.187
250,0.41485,165.187
251,0.416517,169.396
252,0.418183,174.113
253,0.41985,179.529
254,0.421517,179.529
255,0.423183,185.847
256,0.42485,193
257,0.426517,193
258,0.428183,200.86
259,0.42985,209.786
260,0.431517,219.963
261,0.433183,219.963
262,0.43485,231.124
263,0.436517,243.373
264,0.438183,256.673
265,0.43985,256.673
266,0.441517,271.082
267,0.443183,287.138
268,0.44485,304.99
269,0.446567,304.99
270,0.448183,324.525
271,0.44985,345.997
272,0.451517,345.997
273,0.453183,369.176
274,0.45485,394.687
275,0.456517,422.344
276,0.458183,422.344
277,0.45985,452.288
278,0.46155,485.04
279,0.463183,520.4160000000001
280,0.464833,520.4160000000001
281,0.4665,558.689
282,0.468167,599.913
283,0.469833,644.6609999999999
284,0.4715,644.6609999999999
285,0.473167,692.509
286,0.474833,743.821
287,0.4765,798.948
288,0.478167,798.948
289,0.479833,857.778
290,0.4815,920.668
291,0.483217,920.668
292,0.484833,987.582
293,0.4865,1058.534
294,0.488167,1133.42
295,0.489833,1133.42
296,0.4915,1212.738
297,0.493167,1296.483
298,0.494833,1384.668
299,0.4965,1384.668
300,0.498167,1477.04
301,0.499833,1573.503
302,0.5014999999999999,1673.818
303,0.503167,1673.818
304,0.504833,1777.373
305,0.5065,1884.319
306,0.508167,1884.319
307,0.509833,1994.066
308,0.5115,2106.406
309,0.513167,2221.115
310,0.514833,2221.115
311,0.516617,2337.404
312,0.518167,2455.167
313,0.519833,2573.572
314,0.5215,2573.572
315,0.523167,2692.372
316,0.524867,2810.709
317,0.526483,2927.765
318,0.52815,2927.765
319,0.529817,3043.354
320,0.531483,3156.416
321,0.53315,3266.61
322,0.534817,3266.61
323,0.536483,3373.37
324,0.53815,3476.061
325,0.539817,3476.061
326,0.541483,3574.446
327,0.54315,3667.794
328,0.544817,3755.845
329,0.5464830000000001,3755.845
330,0.54815,3837.719
331,0.549817,3913.075
332,0.5514829999999999,3982.298
333,0.55315,3982.298
334,0.554833,4044.332
335,0.5564829999999999,4099.682
336,0.55815,4148.163
337,0.559833,4148.163
338,0.561483,4189.066
339,0.56315,4223.175
340,0.564817,4223.175
341,0.566483,4250.102
342,0.56815,4269.786
343,0.569817,4282.698
344,0.571483,4282.698
345,0.57315,4288.83
346,0.574817,4288.346
347,0.576483,4281.878
348,0.5781500000000001,4281.878
349,0.579817,4268.862
350,0.581483,4249.819
351,0.5831499999999999,4224.867
352,0.5848,4224.867
353,0.586467,4194.401
354,0.588133,4159.033
355,0.5898,4159.033
356,0.591483,4119.277
357,0.593183,4075.639
358,0.5948,4027.769
359,0.596467,4027.769
360,0.598133,3976.643
361,0.5998,3922
362,0.601533,3864.042
363,0.603133,3864.042
364,0.6048,3803.41
365,0.606467,3740.698
366,0.608133,3675.647
367,0.6098,3675.647
368,0.611467,3608.927
369,0.613133,3540.911
370,0.614783,3471.047
371,0.6164500000000001,3471.047
372,0.618117,3400.691
373,0.619783,3329.545
374,0.6214499999999999,3329.545
375,0.623117,3257.744
376,0.624783,3185.823
377,0.62645,3113.426
378,0.628117,3113.426
379,0.629783,3041.126
380,0.63145,2968.803
381,0.633117,2896.629
382,0.634883,2896.629
383,0.63645,2825.327
384,0.638117,2754.092
385,0.639783,2683.871
386,0.64145,2683.871
387,0.643117,2614.535
388,0.644767,2545.729
389,0.646467,2545.729
390,0.6481,2478.175
391,0.649767,2411.425
392,0.651433,2345.927
393,0.6531,2345.927
394,0.654767,2281.666
395,0.656433,2218.843
396,0.6581,2157.249
397,0.659767,2157.249
398,0.661433,2096.385
399,0.6631,2036.81
400,0.664767,1978.196
401,0.6664330000000001,1978.196
402,0.668133,1921.013
403,0.669767,1865.402
404,0.6714329999999999,1810.983
405,0.6731,1810.983
406,0.674767,1758.076
407,0.676433,1706.488
408,0.6781,1706.488
409,0.679767,1656.137
410,0.681433,1607.008
411,0.6831,1559.317
412,0.684767,1559.317
413,0.686433,1513.012
414,0.6881,1468.219
415,0.689767,1424.73
416,0.691433,1424.73
417,0.6931,1382.411
418,0.694767,1341.164
419,0.696433,1301.117
420,0.6981000000000001,1301.117
421,0.699767,1262.441
422,0.701433,1224.868
423,0.7030999999999999,1224.868
424,0.70475,1188.479
425,0.706417,1153.067
426,0.708083,1118.63
427,0.70975,1118.63
428,0.711417,1085.356
429,0.713083,1052.938
430,0.71475,1021.884
431,0.716417,1021.884
432,0.718083,991.896
433,0.7198,963.0839999999999
434,0.721417,935.167
435,0.723083,935.167
436,0.72475,907.92
437,0.726417,881.538
438,0.728083,856.034
439,0.72975,856.034
440,0.731433,831.477
441,0.733117,807.799
442,0.7347669999999999,807.799
443,0.736417,785.008
444,0.738083,762.679
445,0.739767,741.2809999999999
446,0.741417,741.2809999999999
447,0.743083,720.4640000000001
448,0.74475,700.198
449,0.746417,680.8339999999999
450,0.7480830000000001,680.8339999999999
451,0.74975,662.208
452,0.751417,644.572
453,0.7532,627.466
454,0.75475,627.466
455,0.756417,611.0069999999999
456,0.758083,595.1
457,0.75975,595.1
458,0.761417,579.439
459,0.763083,564.575
460,0.76475,550.27
461,0.7664,550.27
462,0.7680670000000001,536.293
463,0.769733,523.038
464,0.7714,510.134
465,0.7730669999999999,510.134
466,0.774733,497.468
467,0.7764,485.525
468,0.778067,473.842
469,0.779733,473.842
470,0.7814,462.741
471,0.783067,451.997
472,0.784733,451.997
473,0.7864,441.507
474,0.788067,431.769
475,0.789733,421.911
476,0.7914,421.911
477,0.793067,412.77
478,0.794733,403.889
479,0.7964,395.142
480,0.798067,395.142
481,0.799733,387.125
482,0.8014,378.966
483,0.803067,371.151
484,0.804733,371.151
485,0.8064,363.611
486,0.808067,356.182
487,0.80975,349.253
488,0.8114,349.253
489,0.8131,342.861
490,0.814733,336.349
491,0.8164,336.349
492,0.818067,330.292
493,0.819733,324.473
494,0.8214,318.594
495,0.823067,318.594
496,0.824717,312.939
497,0.826383,307.627
498,0.82805,302.188
499,0.829717,302.188
500,0.831383,297.144
501,0.83305,292.353
502,0.834717,287.734
503,0.836383,287.734
504,0.83805,283.584
505,0.839717,279.389
506,0.841383,279.389
507,0.84305,275.716
508,0.8447170000000001,271.775
509,0.846383,267.744
510,0.84805,267.744
511,0.8497169999999999,263.996
512,0.851383,260.241
513,0.85305,256.62
514,0.854783,256.62
515,0.856383,253.126
516,0.85805,249.989
517,0.859717,246.756
518,0.861383,246.756
519,0.86305,243.947
520,0.864717,241.369
521,0.866383,238.642
522,0.86805,238.642
523,0.869717,236.079
524,0.8715000000000001,233.442
525,0.87305,233.442
526,0.874717,230.573
527,0.876383,227.928
528,0.87805,225.499
529,0.879717,225.499
530,0.881383,223.011
531,0.883033,220.932
532,0.8847,218.615
533,0.886367,218.615
534,0.888133,216.35
535,0.8897,214.539
536,0.8914,213.005
537,0.893033,213.005
538,0.8947000000000001,211.522
539,0.896367,209.823
540,0.898033,209.823
541,0.8997000000000001,207.871
542,0.901367,205.919
543,0.903033,204.116
544,0.9046999999999999,204.116
545,0.90635,202.738
546,0.908017,201.091
547,0.9097,199.452
548,0.91135,199.452
549,0.913017,198.036
550,0.914683,196.643
551,0.91635,195.853
552,0.918017,195.853
553,0.919683,194.937
554,0.92135,193.715
555,0.923017,192.508
556,0.924683,192.508
557,0.92635,190.921
558,0.928017,189.699
559,0.929683,189.699
560,0.93135,188.664
561,0.933017,187.479
562,0.934683,186.458
563,0.93635,186.458
564,0.938017,185.326
565,0.939683,184.245
566,0.94135,183.292
567,0.943017,183.292
568,0.944667,182.554
569,0.946333,181.794
570,0.948,181.146
571,0.949667,181.146
572,0.951333,180.244
573,0.953,179.507
574,0.954667,179.507
575,0.9564,178.494
576,0.958,177.592
577,0.959667,176.929
578,0.961333,176.929
579,0.963,175.901
580,0.9646670000000001,175.409
581,0.966333,174.694
582,0.968,174.694
583,0.9696669999999999,174.038
584,0.971333,173.308
585,0.973067,172.399
586,0.974667,172.399
587,0.976333,171.632
588,0.978,171.17
589,0.979667,171.17
590,0.981333,170.723
591,0.983,170.32
592,0.984667,170.127
593,0.986333,170.127
594,0.988,169.523
595,0.98975,169.285
596,0.991333,168.696
597,0.993,168.696
598,0.994667,167.884
599,0.996333,167.176
600,0.998,166.632
601,0.999667,166.632
602,1.001333,166.275
603,1.003,165.902
604,1.004667,165.664
605,1.006433,165.664
606,1.007983,165.06
607,1.00965,164.777
608,1.011317,164.777
609,1.012983,164.695
610,1.01465,164.36
611,1.016317,164.315
612,1.017983,164.315
613,1.01965,163.965
614,1.021317,163.473
615,1.022983,162.877
616,1.02465,162.877
617,1.026317,162.482
618,1.027983,162.147
619,1.02965,161.648
620,1.03135,161.648
621,1.032983,161.588
622,1.03465,161.029
623,1.036317,161.029
624,1.037983,160.508
625,1.03965,160.336
626,1.041317,159.793
627,1.042983,159.793
628,1.044683,159.636
629,1.046317,159.472
630,1.047983,159.323
631,1.04965,159.323
632,1.051317,159.07
633,1.052983,158.742
634,1.05465,158.377
635,1.056317,158.377
636,1.057983,157.937
637,1.05965,157.878
638,1.061317,157.87
639,1.062983,157.87
640,1.064633,157.848
641,1.0663,157.617
642,1.067967,157.617
643,1.069633,157.55
644,1.0713,157.014
645,1.072967,156.716
646,1.074633,156.716
647,1.0763,156.298
648,1.077967,156.06
649,1.079633,155.769
650,1.0813,155.769
651,1.082967,155.352
652,1.084633,155.516
653,1.0863,155.24
654,1.087967,155.24
655,1.089633,155.166
656,1.091333,155.121
657,1.092967,155.121
658,1.094633,154.801
659,1.0963,154.398
660,1.097967,154.302
661,1.099633,154.302
662,1.1013,154.16
663,1.103017,153.787
664,1.104633,153.661
665,1.1063,153.661
666,1.108,153.556
667,1.109633,153.288
668,1.1113,153.378
669,1.112967,153.378
670,1.114633,153.363
671,1.1163,153.154
672,1.117967,153.169
673,1.119633,153.169
674,1.1213,152.759
675,1.122967,152.491
676,1.124717,152.491
677,1.126283,152.387
678,1.12795,152.066
679,1.129617,152.402
680,1.131283,152.402
681,1.13295,152.364
682,1.134617,152.208
683,1.136317,152.23
684,1.137967,152.23
685,1.139617,151.917
686,1.141283,151.888
687,1.14295,151.82
688,1.144617,151.82
689,1.146283,151.813
690,1.14795,151.515
691,1.149617,151.515
692,1.151283,151.441
693,1.15295,151.5
694,1.154617,151.239
695,1.156283,151.239
696,1.15795,150.979
697,1.159617,150.815
698,1.161283,150.71
699,1.16295,150.71
700,1.164617,150.882
701,1.166283,151.038
702,1.16795,150.934
703,1.169617,150.934
704,1.171283,150.83
705,1.17295,150.621
706,1.174617,150.487
707,1.176283,150.487
708,1.177967,150.368
709,1.179617,150.107
710,1.181283,150.107
711,1.18295,150.017
712,1.1846,149.943
713,1.186267,149.772
714,1.187933,149.772
715,1.1896,149.578
716,1.191267,149.28
717,1.192933,149.272
718,1.1946,149.272
719,1.19625,149.421
720,1.197917,149.436
721,1.199583,149.697
722,1.20125,149.697
723,1.202917,149.444
724,1.204583,149.362
725,1.20625,149.362
726,1.207917,149.146
727,1.209633,148.945
728,1.21125,149.28
729,1.212917,149.28
730,1.214583,149.377
731,1.216283,149.518
732,1.217917,149.19
733,1.219583,149.19
734,1.22125,148.937
735,1.222917,148.617
736,1.224583,148.728
737,1.2263,148.728
738,1.227917,149.108
739,1.229583,149.302
740,1.23125,149.302
741,1.232917,149.131
742,1.234583,148.945
743,1.23625,148.773
744,1.237917,148.773
745,1.239583,148.416
746,1.24125,148.505
747,1.24295,148.401
748,1.244583,148.401
749,1.246233,148.319
750,1.2479,148.483
751,1.249567,148.483
752,1.251233,148.483
753,1.2529,148.095
754,1.254567,147.961
755,1.25625,147.7
756,1.2579,147.7
757,1.259567,147.752
758,1.261233,147.954
759,1.2629,147.954
760,1.264567,147.656
761,1.266233,147.477
762,1.2679,147.03
763,1.269567,147.03
764,1.271233,146.918
765,1.2729,146.873
766,1.274567,146.866
767,1.276233,146.866
768,1.2779,146.94
769,1.279567,146.993
770,1.281233,147.44
771,1.2829,147.44
772,1.284567,147.529
773,1.286233,147.514
774,1.2879,147.514
775,1.289567,147.663
776,1.291233,147.641
777,1.2929,147.641
778,1.294567,147.641
779,1.296233,147.834
780,1.297933,147.551
781,1.299567,147.156
782,1.301233,147.156
783,1.302883,146.836
784,1.304567,146.56
785,1.306217,146.404
786,1.307883,146.404
787,1.30955,146.396
788,1.311217,146.337
789,1.3129,146.069
790,1.31455,146.069
791,1.316217,146.165
792,1.317883,145.987
793,1.319567,145.987
794,1.321267,146.061
795,1.322883,146.136
796,1.32455,146.225
797,1.326217,146.225
798,1.32795,146.344
799,1.32955,146.545
800,1.331217,146.627
801,1.332883,146.627
802,1.33455,146.493
803,1.336217,146.24
804,1.337883,145.838
805,1.33955,145.838
806,1.341217,145.532
807,1.342883,145.212
808,1.34455,145.212
809,1.346217,145.279
810,1.347883,145.204
811,1.34955,145.555
812,1.351217,145.555
813,1.352883,146.069
814,1.35455,146.046
815,1.356217,146.456
816,1.357883,146.456
817,1.35955,146.367
818,1.3613,146.307
819,1.362883,146.329
820,1.36455,146.329
821,1.3662,145.949
822,1.367867,145.808
823,1.369533,145.808
824,1.3712,145.629
825,1.372867,145.45
826,1.374533,145.786
827,1.3762,145.786
828,1.377867,145.741
829,1.379533,145.577
830,1.3812,145.823
831,1.382867,145.823
832,1.384533,145.718
833,1.3862,145.949
834,1.387867,145.711
835,1.389533,145.711
836,1.391217,145.45
837,1.3929,145.271
838,1.394533,144.929
839,1.3962,144.929
840,1.397867,145.063
841,1.399567,145.1
842,1.4012,145.1
843,1.402867,144.996
844,1.404533,145.07
845,1.4062,145.07
846,1.407867,145.07
847,1.409533,145.182
848,1.4112,145.458
849,1.412867,145.465
850,1.414533,145.465
851,1.4162,145.659
852,1.417867,145.54
853,1.419533,145.547
854,1.4212,145.547
855,1.42285,145.517
856,1.424517,145.338
857,1.426183,145.338
858,1.42785,145.189
859,1.429517,144.862
860,1.431183,145.04
861,1.43285,145.04
862,1.434517,144.854
863,1.436183,144.996
864,1.43785,144.884
865,1.439517,144.884
866,1.441183,144.608
867,1.44285,144.921
868,1.444517,144.877
869,1.44625,144.877
870,1.44785,145.212
871,1.449517,145.294
872,1.451183,145.063
873,1.45285,145.063
874,1.454517,145.137
875,1.456183,144.862
876,1.45785,144.862
877,1.459517,145.108
878,1.461183,145.301
879,1.462867,145.122
880,1.464517,145.122
881,1.466183,145.249
882,1.46785,144.623
883,1.469517,144.146
884,1.4712,144.146
885,1.4729,144.295
886,1.474517,144.28
887,1.476183,144.72
888,1.47785,144.72
889,1.479617,144.75
890,1.481183,144.444
891,1.48285,144.444
892,1.4845,144.385
893,1.486167,144.236
894,1.487833,144.43
895,1.489483,144.43
896,1.49115,144.735
897,1.492817,144.571
898,1.494483,144.489
899,1.49615,144.489
900,1.497817,144.452
901,1.499483,144.348
902,1.50115,144.228
903,1.502817,144.228
904,1.504483,144.079
905,1.50615,143.848
906,1.507817,143.953
907,1.509483,143.953
908,1.51115,144.28
909,1.512817,144.422
910,1.514483,144.422
911,1.51615,144.631
912,1.517817,144.519
913,1.519483,144.28
914,1.52115,144.28
915,1.522817,144.236
916,1.524483,144.236
917,1.52615,144.273
918,1.527817,144.273
919,1.529483,144.333
920,1.53115,144.295
921,1.532817,144.146
922,1.534483,144.146
923,1.53615,144.02
924,1.537817,144.042
925,1.539483,144.042
926,1.54115,144.236
927,1.542817,144.28
928,1.5445,144.28
929,1.546183,144.28
930,1.5478,144.318
931,1.5495,144.161
932,1.551133,143.99
933,1.5528,143.99
934,1.554467,143.878
935,1.556133,143.692
936,1.5578,143.506
937,1.559467,143.506
938,1.561133,143.662
939,1.5628,143.804
940,1.56455,143.766
941,1.566133,143.766
942,1.5678,143.789
943,1.569467,143.774
944,1.571133,143.774
945,1.5728,143.491
946,1.574467,143.513
947,1.576133,143.617
948,1.5778,143.617
949,1.579467,143.692
950,1.581133,144.035
951,1.5828,144.176
952,1.584467,144.176
953,1.586133,144.057
954,1.5878,143.692
955,1.589467,143.625
956,1.591133,143.625
957,1.5928,143.588
958,1.594467,143.722
959,1.596133,143.722
