"ID","sea_time","fid_signal"
1,0,1170.635
2,0.001667,1169.145
3,0.003333,1169.145
4,0.005,1167.133
5,0.00665,1165.345
6,0.008317,1165.345
7,0.009983000000000001,1164.749
8,0.01165,1166.016
9,0.013317,1166.537
10,0.014983,1166.537
11,0.01665,1169.369
12,0.0184,1172.423
13,0.019983,1173.243
14,0.02165,1173.243
15,0.02335,1173.392
16,0.024983,1171.902
17,0.02665,1171.231
18,0.028367,1171.231
19,0.029983,1170.039
20,0.03165,1169.518
21,0.033317,1169.518
22,0.035067,1167.953
23,0.03665,1166.612
24,0.038317,1171.38
25,0.039983,1171.38
26,0.04165,1176.074
27,0.043317,1179.352
28,0.044983,1178.16
29,0.04665,1178.16
30,0.048317,1174.286
31,0.049983,1168.102
32,0.051783,1166.835
33,0.053317,1166.835
34,0.054983,1170.188
35,0.05665,1170.859
36,0.058317,1170.486
37,0.059983,1170.486
38,0.06165,1167.953
39,0.063317,1166.09
40,0.064967,1166.09
41,0.066633,1165.643
42,0.0683,1166.537
43,0.069967,1168.4
44,0.071633,1168.4
45,0.0733,1168.251
46,0.07496700000000001,1169.965
47,0.07663300000000001,1172.498
48,0.07829999999999999,1172.498
49,0.079967,1173.839
50,0.08165,1171.902
51,0.0833,1171.678
52,0.084967,1171.678
53,0.086633,1172.572
54,0.0883,1171.38
55,0.08996700000000001,1171.38
56,0.09163300000000001,1172.647
57,0.09329999999999999,1169.816
58,0.094967,1165.42
59,0.096667,1165.42
60,0.098317,1164.079
61,0.099967,1164.004
62,0.101633,1165.643
63,0.1033,1165.643
64,0.104967,1165.867
65,0.106633,1165.718
66,0.1083,1164.6
67,0.109967,1164.6
68,0.111633,1163.259
69,0.113283,1165.42
70,0.11495,1165.42
71,0.116617,1167.729
72,0.118283,1173.243
73,0.11995,1175.553
74,0.121617,1175.553
75,0.123283,1176.149
76,0.12495,1177.639
77,0.1266,1173.988
78,0.128267,1173.988
79,0.129933,1170.784
80,0.1316,1168.922
81,0.133267,1167.208
82,0.134933,1167.208
83,0.136683,1166.686
84,0.138267,1167.208
85,0.139933,1169.071
86,0.1416,1169.071
87,0.143267,1169.965
88,0.144933,1169.22
89,0.1466,1169.22
90,0.148267,1169.816
91,0.149933,1168.773
92,0.1516,1168.996
93,0.153333,1168.996
94,0.154933,1167.432
95,0.1566,1168.4
96,0.158267,1169.369
97,0.159933,1169.369
98,0.1616,1167.506
99,0.163267,1170.71
100,0.164933,1170.635
101,0.1666,1170.635
102,0.168267,1169.071
103,0.170033,1167.58
104,0.1716,1167.58
105,0.173267,1166.239
106,0.174933,1168.326
107,0.176617,1167.357
108,0.178267,1167.357
109,0.179933,1166.463
110,0.1816,1166.09
111,0.183267,1164.526
112,0.184933,1164.526
113,0.186583,1166.835
114,0.18825,1168.326
115,0.189917,1169.518
116,0.191583,1169.518
117,0.19325,1171.529
118,0.194917,1173.168
119,0.196583,1173.243
120,0.19825,1173.243
121,0.199917,1171.902
122,0.201583,1170.039
123,0.20325,1170.039
124,0.204917,1164.973
125,0.206583,1164.079
126,0.20825,1165.122
127,0.209917,1165.122
128,0.211583,1164.004
129,0.21325,1167.58
130,0.214917,1168.4
131,0.216583,1168.4
132,0.21825,1169.071
133,0.219917,1167.282
134,0.221583,1165.271
135,0.22325,1165.271
136,0.224917,1164.451
137,0.226583,1163.036
138,0.22825,1163.036
139,0.229917,1164.228
140,0.231583,1164.302
141,0.23325,1164.153
142,0.234917,1164.153
143,0.236583,1167.506
144,0.238267,1168.624
145,0.239967,1167.655
146,0.241583,1167.655
147,0.24325,1170.337
148,0.244917,1167.804
149,0.246567,1167.208
150,0.248233,1167.208
151,0.2499,1169.145
152,0.251567,1170.188
153,0.253233,1169.965
154,0.254917,1169.965
155,0.256583,1171.157
156,0.258233,1172.423
157,0.2599,1172.423
158,0.261567,1168.922
159,0.263233,1168.922
160,0.2649,1166.761
161,0.266567,1166.761
162,0.268233,1164.675
163,0.2699,1166.09
164,0.271583,1165.867
165,0.273233,1165.867
166,0.2749,1166.165
167,0.276567,1165.718
168,0.278233,1164.898
169,0.2799,1164.898
170,0.281567,1169.071
171,0.283233,1171.753
172,0.2849,1171.753
173,0.286567,1172.647
174,0.28835,1175.478
175,0.2899,1172.125
176,0.291567,1172.125
177,0.293233,1172.274
178,0.2949,1171.604
179,0.296567,1168.698
180,0.298233,1168.698
181,0.2999,1167.133
182,0.301567,1164.675
183,0.303233,1165.196
184,0.304883,1165.196
185,0.30655,1164.004
186,0.308217,1167.804
187,0.309883,1167.804
188,0.31155,1169.667
189,0.313217,1168.4
190,0.314883,1170.114
191,0.31655,1170.114
192,0.318283,1169.369
193,0.319883,1169.965
194,0.32155,1172.498
195,0.323217,1172.498
196,0.324883,1173.839
197,0.32655,1173.094
198,0.328217,1168.922
199,0.329883,1168.922
200,0.331567,1169.592
201,0.33325,1168.847
202,0.334883,1167.357
203,0.33655,1167.357
204,0.338217,1170.039
205,0.339883,1167.059
206,0.34155,1167.059
207,0.343217,1165.42
208,0.344883,1164.749
209,0.34655,1163.11
210,0.348217,1163.11
211,0.349883,1163.557
212,0.35155,1164.079
213,0.353217,1163.185
214,0.354883,1163.185
215,0.35655,1164.675
216,0.358217,1165.196
217,0.359883,1166.835
218,0.36155,1166.835
219,0.363217,1170.114
220,0.364867,1172.945
221,0.366533,1172.945
222,0.3682,1172.349
223,0.369867,1168.996
224,0.371533,1167.879
225,0.3732,1167.879
226,0.374867,1163.855
227,0.376533,1165.271
228,0.3782,1168.251
229,0.379867,1168.251
230,0.381533,1171.678
231,0.3832,1173.466
232,0.384867,1173.317
233,0.386533,1173.317
234,0.388233,1175.702
235,0.389867,1173.243
236,0.391533,1173.243
237,0.3932,1173.243
238,0.394867,1174.733
239,0.396533,1170.337
240,0.3982,1170.337
241,0.399867,1171.753
242,0.401533,1171.976
243,0.403183,1172.125
244,0.40485,1172.125
245,0.406617,1173.69
246,0.408183,1171.082
247,0.40985,1172.274
248,0.411517,1172.274
249,0.413183,1171.306
250,0.41485,1173.541
251,0.416517,1173.541
252,0.418183,1173.541
253,0.41985,1170.039
254,0.421533,1168.698
255,0.423183,1168.698
256,0.42485,1165.42
257,0.4265,1167.133
258,0.428167,1168.773
259,0.429833,1168.773
260,0.431517,1167.879
261,0.433167,1170.337
262,0.434833,1171.008
263,0.4365,1171.008
264,0.438167,1170.114
265,0.439833,1171.753
266,0.4415,1169.592
267,0.443167,1169.592
268,0.444833,1170.188
269,0.4465,1169.741
270,0.448167,1169.443
271,0.449833,1169.443
272,0.4515,1169.443
273,0.453167,1167.804
274,0.454833,1167.804
275,0.4565,1169.89
276,0.458167,1171.827
277,0.459833,1175.106
278,0.461533,1175.106
279,0.463167,1174.807
280,0.464833,1174.957
281,0.4665,1175.702
282,0.468167,1175.702
283,0.469833,1175.478
284,0.4715,1175.851
285,0.473167,1177.639
286,0.474833,1177.639
287,0.4765,1177.043
288,0.478167,1176.521
289,0.479833,1176.521
290,0.4815,1175.702
291,0.483167,1172.721
292,0.484833,1171.455
293,0.486483,1171.455
294,0.48815,1171.306
295,0.489817,1177.564
296,0.491517,1184.568
297,0.49315,1184.568
298,0.494817,1191.646
299,0.496483,1203.492
300,0.49815,1210.198
301,0.499817,1210.198
302,0.501483,1220.554
303,0.503167,1235.902
304,0.504817,1235.902
305,0.506483,1252.964
306,0.50815,1279.488
307,0.509817,1310.855
308,0.511483,1310.855
309,0.51315,1350.269
310,0.514817,1397.133
311,0.516483,1454.651
312,0.51815,1454.651
313,0.519817,1525.134
314,0.521483,1608.282
315,0.52315,1711.771
316,0.524917,1711.771
317,0.526483,1830.459
318,0.52815,1970.753
319,0.529817,2133.548
320,0.531483,2133.548
321,0.53315,2316.758
322,0.534817,2531.186
323,0.536483,2531.186
324,0.538183,2774.894
325,0.539817,3052.056
326,0.541483,3367.215
327,0.54315,3367.215
328,0.544817,3723.055
329,0.546467,4125.908
330,0.548133,4574.061
331,0.5498,4574.061
332,0.551467,5073.25
333,0.553133,5620.047
334,0.5548,6215.125
335,0.556467,6215.125
336,0.558133,6867.945
337,0.5598,7572.249
338,0.561467,7572.249
339,0.563133,8332.728999999999
340,0.5648,9152.889999999999
341,0.5664670000000001,10025.055
342,0.568133,10025.055
343,0.5698,10952.949
344,0.5714669999999999,11934.414
345,0.573133,12963.936
346,0.5748,12963.936
347,0.576467,14040.619
348,0.578133,15164.763
349,0.5798,16331.375
350,0.581467,16331.375
351,0.583133,17536.059
352,0.5848,18774.643
353,0.586483,20040.498
354,0.588133,20040.498
355,0.5898,21328.777
356,0.591467,22627.488
357,0.593133,22627.488
358,0.5948,23935.66
359,0.596467,25242.641
360,0.598133,26541.129
361,0.5998,26541.129
362,0.601467,27825.609
363,0.603133,29087.365
364,0.604783,30318.945
365,0.606483,30318.945
366,0.608117,31510.145
367,0.60985,32656.564
368,0.61145,33747.48
369,0.613117,33747.48
370,0.614783,34777.375
371,0.6164500000000001,35743.043
372,0.618117,35743.043
373,0.619783,36639.496
374,0.6214499999999999,37463.68
375,0.623117,38211.047
376,0.624783,38211.047
377,0.62645,38881.004
378,0.628117,39472.578
379,0.629783,39978.773
380,0.63145,39978.773
381,0.633117,40400.996
382,0.634783,40741.637
383,0.63645,41002.559
384,0.638117,41002.559
385,0.639783,41189.344
386,0.64145,41299.688
387,0.6432330000000001,41339.25
388,0.644783,41339.25
389,0.64645,41308.031
390,0.6481170000000001,41210.801
391,0.649783,41210.801
392,0.65145,41053.891
393,0.6531169999999999,40836.855
394,0.654783,40564.762
395,0.65645,40564.762
396,0.658117,40245.652
397,0.659783,39884.449
398,0.66145,39484.277
399,0.663117,39484.277
400,0.664767,39049.535
401,0.6664330000000001,38580.223
402,0.6681,38083.566
403,0.669767,38083.566
404,0.6714329999999999,37561.879
405,0.6731,37021.488
406,0.674767,37021.488
407,0.676433,36464.258
408,0.6781,35894.961
409,0.679767,35312.324
410,0.68145,35312.324
411,0.683183,34723.73
412,0.684767,34128.352
413,0.686433,33526.941
414,0.6881,33526.941
415,0.689767,32926.574
416,0.691433,32321.736
417,0.6931,31721.293
418,0.69475,31721.293
419,0.696417,31126.514
420,0.698083,30538.738
421,0.69975,30538.738
422,0.701417,29956.922
423,0.703083,29380.396
424,0.70475,28806.553
425,0.706417,28806.553
426,0.708083,28241.725
427,0.70975,27684.494
428,0.711417,27138.59
429,0.713083,27138.59
430,0.71475,26604.012
431,0.716417,26081.279
432,0.718083,25568.082
433,0.71975,25568.082
434,0.721417,25067.18
435,0.723083,24576.188
436,0.72475,24091.229
437,0.7264,24091.229
438,0.72815,23623.631
439,0.729733,23161.844
440,0.7314000000000001,23161.844
441,0.733067,22714.064
442,0.734733,22277.236
443,0.7364000000000001,21847.785
444,0.738067,21847.785
445,0.739733,21433.383
446,0.7413999999999999,21029.041
447,0.743067,20632.744
448,0.744733,20632.744
449,0.7464,20247.623
450,0.7480830000000001,19869.357
451,0.749733,19501.15
452,0.7514,19501.15
453,0.7530829999999999,19142.33
454,0.754733,18793.494
455,0.7564,18793.494
456,0.758067,18452.555
457,0.759733,18117.727
458,0.761517,17793.551
459,0.7630670000000001,17793.551
460,0.764733,17476.604
461,0.7664,17167.852
462,0.7680670000000001,16871.02
463,0.769733,16871.02
464,0.7714,16583.129
465,0.7730669999999999,16297.623
466,0.774733,16025.081
467,0.7764,16025.081
468,0.778067,15753.434
469,0.779733,15486.852
470,0.7814,15229.434
471,0.783067,15229.434
472,0.784733,14973.805
473,0.7863830000000001,14728.979
474,0.78805,14728.979
475,0.789717,14487.505
476,0.7913829999999999,14256.164
477,0.79305,14026.761
478,0.794717,14026.761
479,0.796383,13802.722
480,0.79805,13588.369
481,0.799717,13373.196
482,0.801383,13373.196
483,0.80305,13168.156
484,0.804717,12965.054
485,0.806383,12763.292
486,0.80805,12763.292
487,0.809717,12568.235
488,0.811383,12378.916
489,0.8130500000000001,12378.916
490,0.814717,12195.855
491,0.816383,12016.445
492,0.8180500000000001,11842.698
493,0.819717,11842.698
494,0.821417,11671.931
495,0.8230499999999999,11501.76
496,0.824717,11337.697
497,0.826383,11337.697
498,0.82805,11175.722
499,0.829717,11017.695
500,0.831383,10862.798
501,0.83305,10862.798
502,0.8347329999999999,10709.986
503,0.836417,10562.763
504,0.83805,10417.998
505,0.839717,10417.998
506,0.841383,10277.257
507,0.84305,10140.24
508,0.8447,10140.24
509,0.846433,10005.161
510,0.848033,9872.168
511,0.8497,9739.995000000001
512,0.851367,9739.995000000001
513,0.853033,9611.696
514,0.8547,9486.377
515,0.856367,9361.356
516,0.858033,9361.356
517,0.8597,9240.284
518,0.861367,9120.852000000001
519,0.863083,8999.109
520,0.8647,8999.109
521,0.866367,8883.923000000001
522,0.8680330000000001,8771.941000000001
523,0.8697,8771.941000000001
524,0.871367,8662.790000000001
525,0.8730329999999999,8558.035
526,0.8747,8450.522999999999
527,0.876367,8450.522999999999
528,0.878033,8346.364
529,0.879817,8241.608
530,0.881367,8144.602
531,0.883033,8144.602
532,0.8847,8049.905
533,0.886367,7955.432
534,0.88805,7863.194
535,0.8897,7863.194
536,0.891367,7769.167
537,0.893033,7680.282
538,0.8947000000000001,7593.483
539,0.896467,7593.483
540,0.898033,7506.833
541,0.899717,7419.512
542,0.901367,7419.512
543,0.903033,7332.042
544,0.904683,7248.148
545,0.90635,7166.341
546,0.908017,7166.341
547,0.909683,7086.918
548,0.91135,7009.73
549,0.913017,6929.71
550,0.914683,6929.71
551,0.91635,6854.236
552,0.918017,6781.22
553,0.919683,6706.193
554,0.92135,6706.193
555,0.923017,6633.326
556,0.924683,6560.832
557,0.92635,6560.832
558,0.928033,6491.169
559,0.929683,6423.369
560,0.93135,6359.667
561,0.933017,6359.667
562,0.934683,6295.964
563,0.93635,6228.909
564,0.938017,6165.132
565,0.939683,6165.132
566,0.94135,6098.524
567,0.943017,6032.735
568,0.9446830000000001,5972.385
569,0.94635,5972.385
570,0.948017,5910.769
571,0.9496830000000001,5853.399
572,0.95135,5853.399
573,0.953017,5796.775
574,0.9546829999999999,5740.747
575,0.95635,5686.06
576,0.958017,5686.06
577,0.959683,5629.361
578,0.96135,5573.183
579,0.963017,5514.398
580,0.9647,5514.398
581,0.966333,5460.68
582,0.968,5407.631
583,0.9696669999999999,5356.372
584,0.97135,5356.372
585,0.97305,5304.813
586,0.974667,5253.703
587,0.976333,5204.678
588,0.978,5204.678
589,0.979667,5156.696
590,0.981383,5113.482
591,0.983,5113.482
592,0.984667,5066.246
593,0.986317,5021.244
594,0.9879829999999999,4976.168
595,0.98965,4976.168
596,0.991317,4928.708
597,0.9929829999999999,4884.601
598,0.99465,4842.058
599,0.996317,4842.058
600,0.998067,4797.95
601,0.99965,4754.812
602,1.001317,4715.622
603,1.002983,4715.622
604,1.00465,4672.557
605,1.006317,4631.504
606,1.007983,4631.504
607,1.00965,4592.016
608,1.011317,4549.995
609,1.012983,4510.358
610,1.01465,4510.358
611,1.01635,4474.819
612,1.017983,4440.472
613,1.01965,4401.952
614,1.021317,4401.952
615,1.022983,4366.711
616,1.024633,4331.32
617,1.0263,4293.918
618,1.027967,4293.918
619,1.029633,4256.74
620,1.0313,4220.605
621,1.032967,4183.799
622,1.034633,4183.799
623,1.0363,4146.248
624,1.037967,4112.944
625,1.039633,4112.944
626,1.0413,4078.15
627,1.042967,4044.175
628,1.044633,4012.436
629,1.0463,4012.436
630,1.048,3983.527
631,1.049633,3954.247
632,1.0513,3922.284
633,1.052967,3922.284
634,1.054633,3893.077
635,1.0563,3861.412
636,1.057967,3829.598
637,1.059633,3829.598
638,1.0613,3800.914
639,1.062983,3772.08
640,1.064633,3772.08
641,1.0663,3741.309
642,1.067967,3713.22
643,1.069633,3688.037
644,1.0713,3688.037
645,1.072967,3659.278
646,1.074633,3631.86
647,1.0763,3602.803
648,1.077967,3602.803
649,1.079633,3572.404
650,1.0813,3544.688
651,1.08295,3521.591
652,1.084617,3521.591
653,1.086283,3497.452
654,1.08795,3472.269
655,1.089617,3472.269
656,1.091283,3450.587
657,1.09295,3427.565
658,1.094617,3405.586
659,1.0963,3405.586
660,1.097983,3382.042
661,1.099617,3356.635
662,1.101283,3331.378
663,1.10295,3331.378
664,1.104617,3309.101
665,1.106283,3287.196
666,1.10795,3266.484
667,1.109617,3266.484
668,1.111283,3243.61
669,1.11295,3221.333
670,1.114617,3200.323
671,1.11635,3200.323
672,1.11795,3179.386
673,1.119617,3158.078
674,1.121317,3158.078
675,1.12295,3134.459
676,1.124617,3112.107
677,1.126283,3088.713
678,1.12795,3088.713
679,1.129617,3068.224
680,1.131283,3049.299
681,1.13305,3029.033
682,1.134617,3029.033
683,1.136283,3008.991
684,1.13795,2987.832
685,1.139617,2967.715
686,1.141283,2967.715
687,1.14295,2952.516
688,1.1446,2936.274
689,1.146267,2936.274
690,1.147933,2921.373
691,1.1496,2906.397
692,1.151267,2888.143
693,1.152933,2888.143
694,1.1546,2868.101
695,1.156267,2848.655
696,1.157933,2830.029
697,1.1596,2830.029
698,1.161267,2809.837
699,1.162933,2794.042
700,1.1646,2776.682
701,1.166267,2776.682
702,1.167933,2759.248
703,1.1696,2744.272
704,1.171267,2728.403
705,1.172933,2728.403
706,1.1746,2716.631
707,1.176267,2699.941
708,1.177933,2699.941
709,1.1796,2682.582
710,1.181283,2666.414
711,1.182933,2651.14
712,1.1846,2651.14
713,1.186267,2639.368
714,1.187933,2626.255
715,1.189617,2614.334
716,1.191267,2614.334
717,1.192933,2597.272
718,1.1946,2579.316
719,1.196267,2566.576
720,1.197933,2566.576
721,1.1996,2550.408
722,1.201267,2538.338
723,1.202933,2538.338
724,1.204583,2524.704
725,1.20625,2511.963
726,1.207917,2500.266
727,1.209583,2500.266
728,1.21125,2487.302
729,1.212917,2476.647
730,1.214583,2461.821
731,1.21625,2461.821
732,1.217917,2447.516
733,1.219583,2434.552
734,1.22125,2424.568
735,1.222917,2424.568
736,1.224583,2414.212
737,1.22625,2402.887
738,1.227917,2390.072
739,1.229583,2390.072
740,1.23125,2374.5
741,1.232917,2358.407
742,1.2346,2358.407
743,1.23625,2345.741
744,1.237917,2333.596
745,1.239583,2321.526
746,1.24125,2321.526
747,1.242917,2311.17
748,1.244583,2298.43
749,1.24625,2286.658
750,1.247917,2286.658
751,1.249583,2275.929
752,1.251367,2264.977
753,1.252917,2253.503
754,1.254583,2253.503
755,1.25625,2242.774
756,1.257917,2233.386
757,1.259583,2233.386
758,1.26125,2226.308
759,1.262917,2216.622
760,1.264583,2205.595
761,1.266267,2205.595
762,1.26795,2193.451
763,1.269617,2179.295
764,1.271233,2170.503
765,1.2729,2170.503
766,1.274567,2161.339
767,1.276233,2153.441
768,1.277883,2144.277
769,1.27955,2144.277
770,1.281217,2136.007
771,1.282883,2129.376
772,1.28455,2129.376
773,1.286217,2119.69
774,1.287883,2112.612
775,1.28955,2100.393
776,1.291217,2100.393
777,1.292883,2087.951
778,1.29455,2076.179
779,1.296217,2065.748
780,1.297883,2065.748
781,1.29955,2059.564
782,1.301217,2050.847
783,1.302883,2045.929
784,1.30455,2045.929
785,1.306217,2038.851
786,1.307883,2032.742
787,1.30955,2026.111
788,1.311217,2026.111
789,1.312883,2017.17
790,1.31455,2008.304
791,1.316217,2008.304
792,1.317883,1996.979
793,1.31955,1988.411
794,1.321217,1980.886
795,1.322883,1980.886
796,1.32455,1974.925
797,1.3262,1967.922
798,1.327867,1960.397
799,1.329583,1960.397
800,1.331233,1952.425
801,1.332867,1942.59
802,1.334533,1931.861
803,1.33625,1931.861
804,1.3379,1925.156
805,1.339533,1916.885
806,1.3412,1916.885
807,1.342867,1909.435
808,1.344533,1907.572
809,1.3462,1901.537
810,1.347867,1901.537
811,1.349533,1895.13
812,1.3512,1886.859
813,1.352867,1877.174
814,1.354533,1877.174
815,1.3562,1868.755
816,1.357867,1860.932
817,1.359533,1852.736
818,1.3612,1852.736
819,1.362867,1846.626
820,1.364533,1841.858
821,1.3662,1837.015
822,1.367867,1837.015
823,1.36965,1836.568
824,1.371217,1833.439
825,1.372867,1833.439
826,1.374533,1829.192
827,1.3762,1823.455
828,1.377867,1814.514
829,1.379533,1814.514
830,1.3812,1805.946
831,1.382867,1794.845
832,1.384533,1788.139
833,1.386183,1788.139
834,1.38785,1784.34
835,1.389517,1778.081
836,1.391183,1773.909
837,1.39285,1773.909
838,1.394517,1770.332
839,1.396183,1762.286
840,1.39785,1762.286
841,1.399517,1756.325
842,1.401183,1751.557
843,1.40285,1743.883
844,1.40455,1743.883
845,1.406183,1738.146
846,1.40785,1733.899
847,1.409517,1728.386
848,1.411183,1728.386
849,1.41285,1722.5
850,1.414517,1720.637
851,1.416183,1716.837
852,1.41785,1716.837
853,1.419517,1710.504
854,1.421183,1704.693
855,1.42285,1698.956
856,1.424517,1698.956
857,1.426183,1693.666
858,1.427867,1690.313
859,1.429517,1690.313
860,1.431183,1689.717
861,1.43285,1685.098
862,1.434517,1678.467
863,1.436183,1678.467
864,1.43785,1672.357
865,1.439517,1664.683
866,1.441183,1660.585
867,1.44285,1660.585
868,1.4445,1656.488
869,1.446183,1651.421
870,1.447833,1647.174
871,1.4495,1647.174
872,1.451167,1642.853
873,1.452833,1642.331
874,1.4545,1642.331
875,1.456167,1642.779
876,1.457833,1639.426
877,1.4595,1632.348
878,1.461167,1632.348
879,1.462833,1625.866
880,1.4645,1619.309
881,1.466183,1617.074
882,1.467833,1617.074
883,1.4695,1612.827
884,1.471167,1607.761
885,1.472833,1602.769
886,1.4745,1602.769
887,1.476167,1596.957
888,1.477867,1592.86
889,1.4795,1587.048
890,1.481167,1587.048
891,1.482833,1584.366
892,1.4845,1580.268
893,1.486167,1580.268
894,1.487933,1578.629
895,1.4895,1578.629
896,1.491167,1572.669
897,1.492833,1572.669
898,1.4945,1568.72
899,1.496167,1566.559
900,1.497833,1562.834
901,1.4995,1562.834
902,1.501167,1560.524
903,1.502833,1559.183
904,1.504483,1553.968
905,1.50615,1553.968
906,1.507817,1547.858
