"ID","sea_time","fid_signal"
1,0,1165.345
2,0.001667,1163.557
3,0.0034,1163.557
4,0.005,1164.6
5,0.006667,1166.984
6,0.008333,1166.984
7,0.01,1169.145
8,0.011667,1168.027
9,0.013333,1166.91
10,0.015,1166.91
11,0.016667,1166.761
12,0.018333,1165.494
13,0.020083,1166.686
14,0.021667,1166.686
15,0.023333,1167.804
16,0.025,1166.91
17,0.026667,1166.314
18,0.028333,1166.314
19,0.03,1163.632
20,0.031667,1162.738
21,0.033333,1162.589
22,0.035033,1162.589
23,0.036783,1163.706
24,0.038317,1164.153
25,0.039983,1164.153
26,0.04165,1167.804
27,0.043317,1167.133
28,0.045,1167.282
29,0.046717,1167.282
30,0.048317,1167.506
31,0.049983,1163.855
32,0.05165,1162.812
33,0.053317,1162.812
34,0.054983,1161.247
35,0.05665,1161.62
36,0.058317,1164.228
37,0.059983,1164.228
38,0.06165,1166.612
39,0.063317,1169.071
40,0.064983,1169.071
41,0.06665,1168.4
42,0.068317,1165.941
43,0.069983,1164.004
44,0.07165000000000001,1164.004
45,0.07331699999999999,1161.471
46,0.07498299999999999,1161.471
47,0.07665,1161.769
48,0.078317,1161.769
49,0.079983,1163.036
50,0.08165,1166.91
51,0.083317,1166.388
52,0.084983,1166.388
53,0.08665,1169.443
54,0.08831700000000001,1171.455
55,0.08998299999999999,1167.432
56,0.09165,1167.432
57,0.093317,1169.816
58,0.094967,1166.686
59,0.096633,1166.686
60,0.0983,1165.867
61,0.099967,1169.89
62,0.101633,1170.561
63,0.1033,1170.561
64,0.104983,1170.71
65,0.106633,1169.071
66,0.1083,1164.228
67,0.109967,1164.228
68,0.111633,1161.099
69,0.1133,1162.216
70,0.114967,1161.546
71,0.116633,1161.546
72,0.1183,1165.792
73,0.119967,1166.537
74,0.12165,1166.537
75,0.1233,1165.718
76,0.124967,1166.314
77,0.126633,1165.345
78,0.1283,1165.345
79,0.129967,1167.208
80,0.131633,1166.984
81,0.1333,1166.984
82,0.134967,1166.984
83,0.136633,1165.569
84,0.138317,1165.42
85,0.139967,1167.655
86,0.141633,1167.655
87,0.143317,1167.059
88,0.144967,1167.804
89,0.146633,1167.804
90,0.1483,1168.102
91,0.149967,1167.953
92,0.151633,1167.879
93,0.1533,1167.879
94,0.155,1166.91
95,0.156617,1164.377
96,0.158283,1161.769
97,0.15995,1161.769
98,0.161617,1161.844
99,0.163283,1162.738
100,0.16495,1165.345
101,0.166617,1165.345
102,0.168283,1166.239
103,0.16995,1169.145
104,0.171617,1171.529
105,0.173283,1171.529
106,0.17495,1172.2
107,0.176617,1172.423
108,0.178283,1172.423
109,0.17995,1170.039
110,0.181633,1167.357
111,0.183283,1165.42
112,0.18495,1165.42
113,0.186617,1164.228
114,0.188283,1164.079
115,0.18995,1164.302
116,0.191617,1164.302
117,0.193283,1166.537
118,0.19495,1169.741
119,0.19665,1171.976
120,0.198283,1171.976
121,0.19995,1172.051
122,0.201617,1170.635
123,0.203283,1170.635
124,0.20495,1169.443
125,0.206617,1170.561
126,0.208283,1169.518
127,0.20995,1169.518
128,0.211617,1169.965
129,0.213283,1171.455
130,0.214933,1169.816
131,0.2166,1169.816
132,0.218267,1171.455
133,0.219933,1169.89
134,0.2216,1166.612
135,0.223267,1166.612
136,0.224933,1168.549
137,0.2266,1167.879
138,0.228267,1168.475
139,0.229933,1168.475
140,0.2316,1168.922
141,0.233267,1165.569
142,0.234933,1165.569
143,0.2366,1164.973
144,0.238267,1166.686
145,0.239933,1169.443
146,0.2416,1169.443
147,0.243267,1170.784
148,0.244933,1171.082
149,0.2466,1167.879
150,0.248267,1167.879
151,0.249933,1163.557
152,0.2516,1162.365
153,0.253267,1161.918
154,0.25495,1161.918
155,0.2566,1162.067
156,0.258267,1165.271
157,0.259933,1165.271
158,0.2616,1166.463
159,0.263267,1170.114
160,0.264933,1170.933
161,0.2666,1170.933
162,0.268267,1169.369
163,0.269933,1170.71
164,0.2716,1169.741
165,0.273367,1169.741
166,0.274917,1172.572
167,0.276583,1175.776
168,0.27825,1174.212
169,0.2799,1174.212
170,0.281567,1172.796
171,0.283233,1170.412
172,0.2849,1166.016
173,0.286567,1166.016
174,0.288233,1166.761
175,0.289933,1167.729
176,0.291567,1167.729
177,0.293233,1169.592
178,0.2949,1172.274
179,0.296567,1172.2
180,0.298233,1172.2
181,0.2999,1172.051
182,0.301567,1171.157
183,0.303233,1170.337
184,0.3049,1170.337
185,0.306567,1169.741
186,0.308233,1170.486
187,0.3099,1170.933
188,0.311567,1170.933
189,0.313233,1170.784
190,0.3149,1169.443
191,0.316567,1169.443
192,0.31825,1169.592
193,0.3199,1167.879
194,0.321567,1169.592
195,0.323233,1169.592
196,0.3249,1169.741
197,0.326583,1168.027
198,0.328233,1170.561
199,0.3299,1170.561
200,0.331567,1168.251
201,0.333233,1169.071
202,0.334883,1170.337
203,0.33655,1170.337
204,0.338217,1167.804
205,0.339883,1168.102
206,0.34155,1168.102
207,0.343217,1169.369
208,0.344883,1166.388
209,0.34655,1165.941
210,0.348217,1165.941
211,0.349883,1164.824
212,0.35155,1163.632
213,0.353217,1166.239
214,0.354883,1166.239
215,0.35655,1165.792
216,0.358283,1165.494
217,0.359883,1164.6
218,0.36155,1164.6
219,0.363217,1163.855
220,0.364883,1164.451
221,0.36655,1164.898
222,0.36825,1164.898
223,0.369883,1164.824
224,0.37155,1164.228
225,0.373217,1164.228
226,0.374883,1166.761
227,0.37655,1167.879
228,0.378217,1168.698
229,0.379883,1168.698
230,0.38155,1171.38
231,0.383217,1168.847
232,0.384883,1169.89
233,0.38655,1169.89
234,0.388217,1168.773
235,0.389883,1166.239
236,0.391633,1169.294
237,0.393217,1169.294
238,0.394867,1167.58
239,0.396533,1169.592
240,0.3982,1169.592
241,0.399867,1168.773
242,0.401533,1167.655
243,0.4032,1167.506
244,0.404867,1167.506
245,0.406567,1166.09
246,0.4082,1167.953
247,0.409867,1167.655
248,0.411533,1167.655
249,0.4132,1170.337
250,0.414867,1170.114
251,0.416533,1169.89
252,0.4182,1169.89
253,0.419867,1170.71
254,0.421533,1168.624
255,0.4232,1169.145
256,0.424867,1169.145
257,0.426533,1167.432
258,0.4282,1163.408
259,0.429867,1163.408
260,0.431533,1164.153
261,0.4332,1166.761
262,0.434867,1168.102
263,0.436533,1168.102
264,0.4382,1169.443
265,0.439867,1167.432
266,0.441533,1162.961
267,0.4432,1162.961
268,0.444867,1162.738
269,0.446533,1166.463
270,0.4482,1168.698
271,0.4499,1168.698
272,0.451533,1173.765
273,0.4532,1174.137
274,0.45485,1174.137
275,0.456517,1171.008
276,0.458183,1169.071
277,0.45985,1167.133
278,0.461517,1167.133
279,0.463183,1167.506
280,0.46485,1167.432
281,0.466517,1168.177
282,0.468183,1168.177
283,0.46985,1167.879
284,0.47155,1166.984
285,0.473183,1169.369
286,0.47485,1169.369
287,0.476567,1172.2
288,0.478183,1169.965
289,0.47985,1169.369
290,0.481517,1169.369
291,0.483183,1168.773
292,0.48485,1168.698
293,0.486517,1168.698
294,0.488183,1172.796
295,0.48985,1174.957
296,0.491517,1176.372
297,0.493183,1176.372
298,0.49485,1175.776
299,0.496517,1173.913
300,0.498183,1172.796
301,0.49985,1172.796
302,0.501517,1170.039
303,0.503183,1166.984
304,0.50485,1167.58
305,0.506517,1167.58
306,0.5081830000000001,1168.475
307,0.509933,1170.933
308,0.511517,1170.933
309,0.513167,1174.659
310,0.514833,1176.223
311,0.5165,1177.117
312,0.518167,1177.117
313,0.519833,1174.063
314,0.5215,1173.765
315,0.523167,1173.094
316,0.524833,1173.094
317,0.5265,1172.125
318,0.5281670000000001,1172.498
319,0.529833,1172.572
320,0.5315,1172.572
321,0.5331669999999999,1171.753
322,0.534833,1170.635
323,0.5365,1170.71
324,0.538167,1170.71
325,0.539833,1168.251
326,0.541517,1167.804
327,0.5432,1167.804
328,0.544833,1166.388
329,0.546517,1164.153
330,0.548167,1164.228
331,0.549867,1164.228
332,0.5515,1162.738
333,0.553167,1163.185
334,0.554833,1165.494
335,0.5565,1165.494
336,0.558167,1165.122
337,0.559833,1167.506
338,0.5615,1170.561
339,0.563167,1170.561
340,0.564833,1172.498
341,0.5665,1174.51
342,0.568167,1174.51
343,0.569833,1172.051
344,0.571483,1168.996
345,0.573133,1166.314
346,0.5748,1166.314
347,0.576467,1164.228
348,0.578133,1167.208
349,0.5798,1167.059
350,0.581467,1167.059
351,0.583133,1167.58
352,0.5848,1168.847
353,0.586467,1165.718
354,0.588133,1165.718
355,0.5898,1169.816
356,0.591467,1171.529
357,0.593133,1171.529
358,0.59485,1173.765
359,0.596467,1175.925
360,0.598133,1173.765
361,0.5998,1173.765
362,0.601467,1171.902
363,0.603133,1168.251
364,0.6048,1165.42
365,0.606467,1165.42
366,0.608133,1163.93
367,0.6098,1163.036
368,0.611467,1164.228
369,0.613133,1164.228
370,0.6148,1164.302
371,0.616467,1165.569
372,0.618133,1168.4
373,0.619817,1168.4
374,0.621533,1168.698
375,0.623133,1173.019
376,0.6248,1173.019
377,0.626467,1173.243
378,0.628233,1173.615
379,0.6298,1178.458
380,0.631467,1178.458
381,0.6331329999999999,1175.478
382,0.634783,1177.639
383,0.63645,1178.533
384,0.638117,1178.533
385,0.639783,1178.458
386,0.64145,1182.854
387,0.643117,1185.76
388,0.644783,1185.76
389,0.64645,1188.219
390,0.6481170000000001,1186.877
391,0.649783,1186.877
392,0.65145,1189.038
393,0.6531169999999999,1187.623
394,0.654783,1190.305
395,0.65645,1190.305
396,0.658117,1194.104
397,0.659783,1195.595
398,0.66145,1199.096
399,0.663117,1199.096
400,0.664783,1203.194
401,0.66645,1207.739
402,0.668117,1212.06
403,0.669783,1212.06
404,0.67145,1216.233
405,0.673117,1219.362
406,0.674783,1225.173
407,0.67645,1225.173
408,0.678117,1229.122
409,0.679783,1234.189
410,0.68145,1234.189
411,0.683117,1236.796
412,0.684783,1241.118
413,0.68645,1248.494
414,0.688117,1248.494
415,0.689783,1253.113
416,0.691483,1259.968
417,0.6931,1265.481
418,0.6948,1265.481
419,0.6964669999999999,1269.281
420,0.6981000000000001,1276.731
421,0.699767,1282.766
422,0.701433,1282.766
423,0.7030999999999999,1290.143
424,0.704767,1300.946
425,0.706433,1300.946
426,0.7081,1310.11
427,0.709767,1321.286
428,0.711433,1329.631
429,0.7131,1329.631
430,0.714767,1336.262
431,0.716433,1344.979
432,0.7181,1354.888
433,0.719767,1354.888
434,0.72145,1365.766
435,0.7231,1377.24
436,0.7247670000000001,1388.267
437,0.726433,1388.267
438,0.7281,1397.654
439,0.72985,1406.297
440,0.731433,1416.728
441,0.7331,1416.728
442,0.7347669999999999,1429.319
443,0.736433,1442.209
444,0.7381,1442.209
445,0.739767,1454.353
446,0.741433,1466.423
447,0.7431,1477.003
448,0.744767,1477.003
449,0.746517,1490.116
450,0.7481,1504.943
451,0.749767,1521.483
452,0.751433,1521.483
453,0.7531,1537.949
454,0.75475,1554.415
455,0.756417,1571.029
456,0.758083,1571.029
457,0.75975,1585.856
458,0.761417,1602.992
459,0.763167,1616.254
460,0.76475,1616.254
461,0.766417,1634.061
462,0.768117,1651.719
463,0.76975,1651.719
464,0.771417,1668.409
465,0.773083,1685.768
466,0.77475,1699.626
467,0.776417,1699.626
468,0.778083,1718.625
469,0.7797500000000001,1736.507
470,0.781417,1757.368
471,0.783083,1757.368
472,0.7847499999999999,1781.434
473,0.786417,1798.794
474,0.788083,1798.794
475,0.789783,1818.612
476,0.791417,1839.548
477,0.793083,1857.206
478,0.79475,1857.206
479,0.796417,1879.185
480,0.798083,1901.463
481,0.79975,1923.069
482,0.801417,1923.069
483,0.803083,1945.868
484,0.80475,1970.083
485,0.8064170000000001,1996.309
486,0.808083,1996.309
487,0.80975,2022.088
488,0.8114170000000001,2048.09
489,0.813083,2075.285
490,0.814733,2075.285
491,0.8164,2100.319
492,0.818067,2124.98
493,0.819733,2124.98
494,0.8214,2152.324
495,0.823067,2177.805
496,0.824733,2205.297
497,0.8264,2205.297
498,0.828067,2237.037
499,0.82975,2265.573
500,0.8314,2295.896
501,0.833067,2295.896
502,0.8347329999999999,2326.518
503,0.8364,2355.352
504,0.838067,2388.358
505,0.839733,2388.358
506,0.8414,2424.121
507,0.843067,2460.405
508,0.844733,2460.405
509,0.8464,2498.031
510,0.848117,2537.444
511,0.849733,2573.058
512,0.8514,2573.058
513,0.853067,2608.299
514,0.854733,2644.286
515,0.8564000000000001,2679.378
516,0.858067,2679.378
517,0.859733,2718.791
518,0.8614000000000001,2757.683
519,0.86305,2797.097
520,0.864833,2797.097
521,0.866383,2836.883
522,0.86805,2876.52
523,0.869717,2918.467
524,0.871383,2918.467
525,0.87305,2959.073
526,0.8747,3003.105
527,0.876367,3003.105
528,0.87805,3044.307
529,0.87975,3086.626
530,0.881483,3130.659
531,0.883033,3130.659
532,0.8847,3171.265
533,0.886367,3215.671
534,0.888033,3261.79
535,0.8897,3261.79
536,0.891367,3308.877
537,0.893033,3355.294
538,0.8947000000000001,3403.127
539,0.896383,3403.127
540,0.898033,3451.183
541,0.8997000000000001,3500.581
542,0.901367,3500.581
543,0.903033,3549.68
544,0.9046999999999999,3597.736
545,0.906367,3643.632
546,0.908067,3643.632
547,0.9097,3689.9
548,0.911367,3740.266
549,0.913033,3787.801
550,0.9147,3787.801
551,0.916367,3839.135
552,0.918033,3887.49
553,0.9197,3933.981
554,0.921367,3933.981
555,0.923033,3981.59
556,0.9247,4027.486
557,0.9263670000000001,4075.468
558,0.928033,4075.468
559,0.9297,4124.716
560,0.9313669999999999,4174.933
561,0.933033,4174.933
562,0.934683,4222.021
563,0.93635,4269.034
564,0.938017,4314.11
565,0.939683,4314.11
566,0.94135,4362.24
567,0.943017,4414.246
568,0.9446830000000001,4464.611
569,0.94635,4464.611
570,0.948017,4510.954
571,0.949717,4554.764
572,0.95135,4595.593
573,0.953017,4595.593
574,0.9546829999999999,4639.402
575,0.956367,4686.49
576,0.958017,4686.49
577,0.959683,4731.789
578,0.96135,4778.281
579,0.963017,4821.792
580,0.964683,4821.792
581,0.9664,4865.974
582,0.968017,4911.05
583,0.969683,4951.283
584,0.97135,4951.283
585,0.973017,4992.783
586,0.974683,5036.369
587,0.9763500000000001,5078.167
588,0.978017,5078.167
589,0.979683,5119.815
590,0.981383,5157.366
591,0.9831,5191.788
592,0.984683,5191.788
593,0.9863499999999999,5225.092
594,0.988017,5261.898
595,0.989683,5261.898
596,0.99135,5304.515
597,0.993017,5344.972
598,0.994667,5382.821
599,0.996333,5382.821
600,0.998,5419.105
601,0.99975,5449.206
602,1.001333,5479.828
603,1.003,5479.828
604,1.004667,5513.281
605,1.006333,5544.722
606,1.008,5576.164
607,1.009667,5576.164
608,1.011333,5607.754
609,1.013,5638.6
610,1.014667,5638.6
611,1.016333,5666.464
612,1.018,5693.212
613,1.019667,5716.979
614,1.021333,5716.979
615,1.023,5738.958
616,1.024667,5764.44
617,1.026333,5789.771
618,1.028,5789.771
619,1.029667,5814.433
620,1.031333,5838.722
621,1.033,5859.36
622,1.034667,5859.36
623,1.036333,5878.136
624,1.038,5898.401
625,1.039667,5898.401
626,1.041333,5915.761
627,1.043,5934.238
628,1.044683,5956.143
629,1.046333,5956.143
630,1.048,5974.323
631,1.049667,5993.843
632,1.05135,6009.862
633,1.053,6009.862
634,1.05465,6020.591
635,1.056317,6034.97
636,1.057983,6048.605
637,1.05965,6048.605
638,1.061317,6060.6
639,1.062983,6075.129
640,1.06465,6085.708
641,1.066317,6085.708
642,1.067983,6094.575
643,1.06965,6106.794
644,1.071317,6106.794
645,1.072983,6118.491
646,1.07465,6127.879
647,1.076317,6133.393
648,1.077983,6133.393
649,1.07965,6137.938
650,1.081317,6142.11
651,1.082983,6145.09
652,1.084667,6145.09
653,1.086317,6152.689
654,1.087983,6161.183
655,1.08965,6166.25
656,1.091317,6166.25
657,1.092983,6169.23
658,1.09465,6169.453
659,1.096317,6169.453
660,1.097983,6171.167
661,1.09965,6171.688
662,1.101317,6173.477
663,1.102983,6173.477
664,1.10465,6173.253
665,1.106317,6170.646
666,1.107983,6168.634
667,1.10965,6168.634
668,1.111317,6166.995
669,1.112983,6165.802
670,1.114633,6164.089
671,1.1163,6164.089
672,1.1181,6158.948
673,1.119633,6157.607
674,1.1213,6154.329
675,1.122967,6154.329
676,1.12465,6149.411
677,1.126317,6144.717
678,1.128033,6144.717
679,1.129633,6137.565
680,1.1313,6133.169
681,1.132967,6128.326
682,1.134633,6128.326
683,1.1363,6122.515
684,1.137967,6116.033
685,1.139633,6108.358
686,1.1413,6108.358
687,1.142967,6099.791
688,1.144633,6095.991
689,1.1463,6091.52
690,1.147967,6091.52
691,1.149633,6083.176
692,1.1513,6075.204
693,1.152967,6075.204
694,1.154617,6064.698
695,1.156283,6051.138
696,1.15795,6040.782
697,1.159617,6040.782
698,1.161283,6032.139
699,1.16295,6020.516
700,1.164617,6010.532
701,1.166283,6010.532
702,1.16795,6001.815
703,1.169617,5991.757
704,1.171283,5982.965
705,1.17295,5982.965
706,1.1746,5973.205
707,1.176267,5960.688
708,1.177933,5960.688
709,1.1796,5943.775
710,1.181267,5929.247
711,1.182933,5915.389
712,1.1846,5915.389
713,1.186267,5903.989
714,1.187933,5893.856
715,1.1896,5881.637
716,1.191267,5881.637
717,1.192933,5868.971
718,1.1946,5855.337
719,1.196267,5843.043
720,1.197933,5843.043
721,1.1996,5831.868
722,1.201267,5817.115
723,1.202933,5800.575
724,1.2046,5800.575
725,1.206267,5784.705
726,1.207933,5767.718
727,1.2096,5767.718
728,1.211267,5752.742
729,1.212933,5738.81
730,1.2146,5726.963
731,1.216267,5726.963
732,1.217933,5713.105
733,1.2196,5701.333
734,1.221267,5690.456
735,1.222933,5690.456
736,1.2246,5674.213
737,1.226267,5662.292
738,1.227933,5648.285
739,1.2296,5648.285
740,1.231267,5633.98
741,1.232933,5619.75
742,1.234583,5619.75
743,1.236367,5602.017
744,1.237917,5584.21
745,1.239583,5566.403
746,1.24125,5566.403
747,1.242917,5549.192
748,1.244583,5533.844
749,1.24625,5519.092
750,1.247917,5519.092
751,1.249583,5506.277
752,1.25125,5493.909
753,1.252917,5478.934
754,1.254583,5478.934
755,1.25625,5463.734
756,1.257917,5444.214
757,1.259583,5425.662
758,1.261267,5425.662
759,1.262917,5409.867
760,1.264633,5391.985
761,1.26625,5391.985
762,1.267917,5378.648
763,1.269583,5363.002
764,1.27125,5347.803
765,1.272917,5347.803
766,1.274583,5333.125
767,1.27625,5313.605
768,1.277917,5298.853
769,1.279583,5298.853
770,1.28125,5280.972
771,1.282917,5267.039
772,1.284583,5253.032
773,1.28625,5253.032
774,1.287917,5236.343
775,1.289583,5219.43
776,1.29125,5219.43
777,1.2929,5201.325
778,1.294567,5186.722
779,1.296233,5168.468
780,1.2979,5168.468
781,1.299583,5154.386
782,1.301233,5138.889
783,1.3029,5123.541
784,1.304567,5123.541
785,1.306233,5108.863
786,1.3079,5092.099
787,1.309567,5078.39
788,1.311233,5078.39
789,1.3129,5059.764
790,1.314567,5044.937
791,1.316233,5030.259
792,1.3179,5030.259
793,1.319567,5012.005
794,1.321283,4995.093
795,1.3229,4995.093
796,1.324567,4979.297
797,1.326233,4965.216
798,1.3279,4952.773
799,1.329567,4952.773
800,1.331233,4938.767
801,1.33295,4926.175
802,1.334583,4912.093
803,1.336233,4912.093
804,1.3379,4894.957
805,1.339567,4882.738
806,1.341233,4867.092
807,1.3429,4867.092
808,1.344567,4851.296
809,1.346233,4836.693
810,1.3479,4836.693
811,1.349567,4820.824
812,1.351233,4801.676
813,1.3529,4787.445
814,1.354667,4787.445
815,1.356217,4771.874
816,1.357883,4758.76
817,1.35955,4748.776
818,1.361217,4748.776
819,1.362883,4730.076
820,1.36455,4718.825
821,1.366217,4703.999
822,1.367883,4703.999
823,1.36955,4688.576
824,1.371217,4675.239
825,1.372883,4675.239
826,1.37455,4658.773
827,1.376217,4640.445
828,1.377883,4624.65
829,1.37955,4624.65
830,1.381217,4611.388
831,1.382883,4600.436
832,1.38455,4589.334
833,1.386217,4589.334
834,1.387883,4576.668
835,1.38955,4558.414
836,1.391217,4539.341
837,1.392883,4539.341
838,1.39455,4523.173
839,1.396217,4509.539
840,1.397883,4496.574
841,1.39955,4496.574
842,1.401217,4483.685
843,1.4029,4470.87
844,1.404567,4470.87
845,1.40625,4452.988
846,1.407883,4441.515
847,1.40955,4427.582
848,1.411217,4427.582
849,1.412883,4415.586
850,1.414533,4402.101
851,1.4162,4391.447
852,1.417867,4391.447
853,1.419533,4379.6
854,1.4212,4364.699
855,1.422867,4354.417
856,1.424533,4354.417
857,1.4262,4337.504
858,1.427867,4321.933
859,1.429533,4321.933
860,1.4312,4306.287
861,1.432867,4292.279
862,1.434533,4278.198
863,1.4362,4278.198
864,1.437867,4267.692
865,1.439583,4258.379
866,1.4412,4246.533
867,1.442867,4246.533
868,1.444533,4236.4
869,1.446183,4222.84
870,1.44785,4207.269
871,1.449517,4207.269
872,1.451183,4193.857
873,1.45285,4180.074
874,1.454517,4169.196
875,1.456183,4169.196
876,1.45785,4156.083
877,1.459517,4142.672
878,1.461183,4142.672
879,1.46285,4132.539
880,1.464517,4118.159
881,1.466183,4108.25
882,1.46785,4108.25
883,1.469517,4098.117
884,1.471183,4083.44
885,1.4729,4070.625
886,1.474517,4070.625
887,1.4762,4059.747
888,1.477833,4045.889
889,1.4795,4032.85
890,1.481167,4032.85
891,1.48285,4021.674
892,1.48455,4008.263
893,1.486167,4008.263
894,1.487833,3998.205
895,1.4895,3988.37
896,1.491167,3979.206
897,1.492833,3979.206
898,1.4945,3969.148
899,1.496167,3958.568
900,1.497833,3944.635
901,1.4995,3944.635
902,1.501167,3930.33
903,1.502833,3920.346
904,1.5045,3908.351
905,1.506167,3908.351
906,1.507833,3899.112
907,1.5095,3886.446
908,1.511167,3872.365
909,1.512833,3872.365
910,1.5145,3859.773
911,1.516167,3848.746
912,1.517833,3848.746
913,1.5195,3841.519
914,1.521167,3832.802
915,1.522833,3824.756
916,1.5245,3824.756
917,1.526167,3816.188
918,1.527833,3802.255
919,1.5295,3788.695
920,1.531167,3788.695
921,1.532817,3776.401
922,1.534483,3765.672
923,1.53615,3756.21
924,1.537817,3756.21
925,1.539483,3746.524
