"ID","sea_time","fid_signal"
1,0,1173.168
2,0.001667,1172.796
3,0.003333,1172.796
4,0.004983,1175.106
5,0.00665,1173.615
6,0.0083,1173.243
7,0.009967,1173.243
8,0.011633,1173.019
9,0.0133,1170.784
10,0.014967,1168.177
11,0.016633,1168.177
12,0.0183,1167.506
13,0.019967,1167.804
14,0.021633,1170.635
15,0.0233,1170.635
16,0.025017,1175.031
17,0.026633,1173.243
18,0.0283,1173.243
19,0.029967,1173.243
20,0.031633,1172.945
21,0.0333,1171.678
22,0.034967,1171.678
23,0.036633,1173.988
24,0.0383,1174.063
25,0.039967,1174.212
26,0.041633,1174.212
27,0.0433,1172.051
28,0.044967,1171.231
29,0.046633,1170.039
30,0.0483,1170.039
31,0.049967,1167.432
32,0.0517,1170.188
33,0.0533,1170.188
34,0.054967,1170.188
35,0.056667,1168.475
36,0.0583,1171.678
37,0.059967,1171.678
38,0.061633,1169.443
39,0.06328300000000001,1168.922
40,0.06494999999999999,1169.816
41,0.066617,1169.816
42,0.068283,1166.239
43,0.06995,1169.443
44,0.071617,1172.647
45,0.073283,1172.647
46,0.07495,1173.913
47,0.076617,1176.968
48,0.07828300000000001,1176.074
49,0.07994999999999999,1176.074
50,0.081617,1172.647
51,0.083283,1169.816
52,0.085067,1167.357
53,0.086617,1167.357
54,0.088283,1164.973
55,0.08995,1164.824
56,0.091617,1164.824
57,0.093283,1165.941
58,0.09495000000000001,1167.879
59,0.09661699999999999,1168.475
60,0.098283,1168.475
61,0.09995,1168.326
62,0.101617,1168.475
63,0.1033,1166.537
64,0.10495,1166.537
65,0.106617,1167.953
66,0.108283,1168.698
67,0.10995,1168.698
68,0.111617,1169.369
69,0.113283,1170.71
70,0.11495,1171.529
71,0.116617,1171.529
72,0.118283,1172.349
73,0.11995,1173.466
74,0.121617,1172.274
75,0.123283,1172.274
76,0.124933,1169.145
77,0.1266,1169.443
78,0.128267,1170.337
79,0.129933,1170.337
80,0.1316,1171.231
81,0.133267,1174.435
82,0.134933,1174.807
83,0.1366,1174.807
84,0.138267,1171.604
85,0.139933,1173.019
86,0.1416,1173.019
87,0.143267,1172.2
88,0.144933,1174.807
89,0.146633,1174.957
90,0.148267,1174.957
91,0.149933,1171.678
92,0.1516,1169.667
93,0.153267,1167.208
94,0.154933,1167.208
95,0.1566,1167.879
96,0.158267,1171.38
97,0.159933,1173.317
98,0.1616,1173.317
99,0.163267,1171.38
100,0.164933,1170.337
101,0.1666,1170.337
102,0.168267,1169.443
103,0.169967,1169.145
104,0.1716,1169.518
105,0.173267,1169.518
106,0.174933,1170.039
107,0.1766,1169.667
108,0.178267,1167.655
109,0.179933,1167.655
110,0.1816,1167.357
111,0.183267,1169.443
112,0.184917,1169.592
113,0.186717,1169.592
114,0.18825,1172.2
115,0.189917,1172.572
116,0.1916,1170.263
117,0.19325,1170.263
118,0.194917,1170.933
119,0.196583,1170.933
120,0.19825,1170.933
121,0.199917,1171.082
122,0.201583,1171.157
123,0.203267,1172.647
124,0.204917,1172.647
125,0.206583,1170.412
126,0.20825,1169.592
127,0.209917,1170.561
128,0.211583,1170.561
129,0.21325,1167.282
130,0.214917,1168.996
131,0.216583,1169.294
132,0.21825,1169.294
133,0.220017,1169.816
134,0.221583,1171.678
135,0.22325,1171.678
136,0.224917,1170.412
137,0.226583,1172.423
138,0.22825,1171.306
139,0.229917,1171.306
140,0.231583,1171.529
141,0.23325,1170.412
142,0.234917,1167.208
143,0.236617,1167.208
144,0.23825,1166.91
145,0.239917,1164.824
146,0.241583,1167.357
147,0.24325,1167.357
148,0.2449,1171.008
149,0.246567,1170.71
150,0.248267,1171.231
151,0.2499,1171.231
152,0.251567,1168.773
153,0.253233,1167.804
154,0.2549,1167.804
155,0.256567,1167.953
156,0.258233,1166.537
157,0.2599,1167.282
158,0.261567,1167.282
159,0.263233,1169.22
160,0.2649,1171.455
161,0.266567,1173.317
162,0.268233,1173.317
163,0.2699,1172.2
164,0.271567,1169.965
165,0.273233,1170.114
166,0.2749,1170.114
167,0.276567,1172.498
168,0.278233,1176.298
169,0.2799,1176.298
170,0.281567,1176.074
171,0.283233,1173.168
172,0.2849,1169.667
173,0.286567,1169.667
174,0.288233,1168.624
175,0.2899,1168.922
176,0.291567,1170.486
177,0.293233,1170.486
178,0.2949,1174.286
179,0.296567,1171.827
180,0.298233,1170.263
181,0.299883,1170.263
182,0.30155,1169.816
183,0.303217,1165.867
184,0.304867,1165.867
185,0.306533,1167.059
186,0.3082,1166.91
187,0.309867,1165.196
188,0.311533,1165.196
189,0.3132,1168.177
190,0.314867,1167.432
191,0.316533,1171.157
192,0.318233,1171.157
193,0.31995,1172.796
194,0.32165,1170.188
195,0.3232,1171.455
196,0.324867,1171.455
197,0.326533,1167.655
198,0.3282,1170.412
199,0.329867,1171.157
200,0.331533,1171.157
201,0.3332,1170.933
202,0.334867,1172.349
203,0.336533,1172.349
204,0.338283,1168.698
205,0.339867,1168.027
206,0.341533,1167.059
207,0.3432,1167.059
208,0.344867,1165.643
209,0.346533,1166.463
210,0.3482,1167.953
211,0.349867,1167.953
212,0.351533,1170.859
213,0.3532,1173.913
214,0.354867,1173.466
215,0.356533,1173.466
216,0.3582,1170.933
217,0.359867,1169.518
218,0.361533,1169.518
219,0.3632,1169.592
220,0.36485,1170.039
221,0.366533,1171.604
222,0.368183,1171.604
223,0.36985,1172.87
224,0.371517,1172.423
225,0.373183,1174.733
226,0.37485,1174.733
227,0.376517,1173.317
228,0.378183,1174.435
229,0.37985,1176.223
230,0.381517,1176.223
231,0.383183,1177.564
232,0.384867,1185.834
233,0.38655,1187.846
234,0.388183,1187.846
235,0.38985,1193.21
236,0.391517,1202.896
237,0.393183,1202.896
238,0.39485,1209.9
239,0.396517,1223.832
240,0.398183,1238.957
241,0.399883,1238.957
242,0.401517,1255.423
243,0.403183,1275.614
244,0.40485,1297.966
245,0.406517,1297.966
246,0.408183,1329.035
247,0.40985,1364.052
248,0.411517,1410.097
249,0.413183,1410.097
250,0.41485,1469.105
251,0.416517,1538.023
252,0.418183,1538.023
253,0.41985,1629.516
254,0.421517,1741.201
255,0.423233,1881.272
256,0.424833,1881.272
257,0.4265,2052.486
258,0.428167,2259.761
259,0.429833,2518.222
260,0.4315,2518.222
261,0.433167,2830.923
262,0.434833,3210.008
263,0.4365,3663.972
264,0.438167,3663.972
265,0.439883,4197.806
266,0.4415,4819.333
267,0.443167,4819.333
268,0.444833,5534.292
269,0.4465,6346.33
270,0.448167,7255.003
271,0.449833,7255.003
272,0.4515,8264.557000000001
273,0.453167,9376.481
274,0.454833,10590.628
275,0.4566,10590.628
276,0.458167,11912.957
277,0.459833,13333.187
278,0.4615,14850.87
279,0.463183,14850.87
280,0.464833,16464.07
281,0.4665,18154.457
282,0.468167,19917.041
283,0.469833,19917.041
284,0.4715,21728.129
285,0.473167,23551.658
286,0.474833,23551.658
287,0.4765,25368.93
288,0.478167,27140.156
289,0.479833,28831.811
290,0.4815,28831.811
291,0.483167,30412.6
292,0.484817,31851.977
293,0.486483,33120.141
294,0.488167,33120.141
295,0.489867,34196.227
296,0.491483,35068.543
297,0.49315,35720.242
298,0.494817,35720.242
299,0.496483,36145.449
300,0.49815,36347.508
301,0.499817,36347.508
302,0.501483,36324.188
303,0.50315,36082.863
304,0.504817,35645.066
305,0.506483,35645.066
306,0.50815,35021.082
307,0.509817,34237.875
308,0.511483,33312.813
309,0.51315,33312.813
310,0.514817,32263.92
311,0.516483,31115.041
312,0.51815,29887.109
313,0.519817,29887.109
314,0.521483,28604.717
315,0.52315,27289.838
316,0.524817,25961.771
317,0.526483,25961.771
318,0.528183,24632.365
319,0.529817,23320.242
320,0.531483,23320.242
321,0.53315,22037.104
322,0.534817,20792.932
323,0.536483,19596.293
324,0.53815,19596.293
325,0.539817,18448.756
326,0.5415,17351.508
327,0.54315,16311.705
328,0.544817,16311.705
329,0.546467,15328.526
330,0.548133,14400.407
331,0.5498,13530.776
332,0.551467,13530.776
333,0.553133,12708.679
334,0.5548,11935.383
335,0.556467,11935.383
336,0.558133,11210.218
337,0.5598,10529.682
338,0.561467,9891.838
339,0.563133,9891.838
340,0.5648,9297.281000000001
341,0.5664670000000001,8740.871999999999
342,0.568133,8217.842000000001
343,0.5698,8217.842000000001
344,0.5714669999999999,7733.106
345,0.573133,7279.217
346,0.57485,6855.428
347,0.576467,6855.428
348,0.578133,6463.751
349,0.5798,6095.022
350,0.581467,5753.487
351,0.583133,5753.487
352,0.5848,5436.912
353,0.586467,5145.371
354,0.588133,5145.371
355,0.5898,4875.362
356,0.59145,4623.234
357,0.593117,4390.776
358,0.594783,4390.776
359,0.59645,4174.039
360,0.598117,3973.544
361,0.599783,3790.706
362,0.60145,3790.706
363,0.6031,3620.312
364,0.6048,3461.54
365,0.606433,3317.296
366,0.6081,3317.296
367,0.6097669999999999,3182.068
368,0.611433,3057.644
369,0.6131,3057.644
370,0.614767,2943.948
371,0.616433,2838.969
372,0.6181,2741.367
373,0.619767,2741.367
374,0.621433,2653.375
375,0.6231,2568.513
376,0.624767,2488.047
377,0.626433,2488.047
378,0.6281,2415.776
379,0.629767,2346.635
380,0.631433,2286.211
381,0.6331,2286.211
382,0.634767,2231.151
383,0.636433,2179.369
384,0.6381,2179.369
385,0.639767,2129.003
386,0.641433,2079.755
387,0.6431,2035.499
388,0.644767,2035.499
389,0.646433,1995.713
390,0.6481,1958.236
391,0.649767,1924.783
392,0.651433,1924.783
393,0.6531,1889.84
394,0.654783,1859.665
395,0.656433,1830.533
396,0.6581,1830.533
397,0.659783,1805.127
398,0.661433,1780.838
399,0.6631,1752.6
400,0.66475,1752.6
401,0.666417,1731.366
402,0.668083,1709.312
403,0.66975,1709.312
404,0.671417,1690.09
405,0.673083,1673.326
406,0.67475,1653.805
407,0.676433,1653.805
408,0.678083,1634.285
409,0.679783,1619.16
410,0.6814170000000001,1603.439
411,0.683083,1603.439
412,0.68475,1590.103
413,0.6864170000000001,1581.386
414,0.688083,1569.39
415,0.68975,1569.39
416,0.6914169999999999,1556.799
417,0.693183,1546.815
418,0.69475,1546.815
419,0.696417,1532.51
420,0.698083,1521.111
421,0.69975,1510.233
422,0.701417,1510.233
423,0.703083,1498.908
424,0.70475,1489.297
425,0.706417,1480.579
426,0.708083,1480.579
427,0.70975,1477.003
428,0.711417,1470.745
429,0.713083,1463.443
430,0.71475,1463.443
431,0.716417,1458.302
432,0.718083,1447.126
433,0.71975,1439.452
434,0.721417,1439.452
435,0.723083,1432.896
436,0.724733,1425.445
437,0.7264,1425.445
438,0.728067,1422.241
439,0.729733,1419.559
440,0.7314000000000001,1418.442
441,0.733067,1418.442
442,0.734733,1412.258
443,0.7364000000000001,1405.031
444,0.738067,1398.548
445,0.739733,1398.548
446,0.7413999999999999,1392.961
447,0.743067,1390.055
448,0.744733,1384.243
449,0.746433,1384.243
450,0.7481,1377.463
451,0.749733,1371.726
452,0.7514,1371.726
453,0.753067,1363.605
454,0.754733,1363.456
455,0.7564,1362.637
456,0.758067,1362.637
457,0.759733,1357.421
458,0.7614,1357.049
459,0.7630670000000001,1350.045
460,0.764733,1350.045
461,0.7664,1345.947
462,0.7680670000000001,1343.861
463,0.769733,1340.136
464,0.7714,1340.136
465,0.7730669999999999,1340.732
466,0.774733,1337.379
467,0.7764,1335.07
468,0.778133,1335.07
469,0.779733,1331.866
470,0.7814,1328.141
471,0.783067,1328.141
472,0.784717,1324.788
473,0.7863830000000001,1322.925
474,0.78805,1321.807
475,0.789717,1321.807
476,0.7913829999999999,1317.859
477,0.79305,1317.337
478,0.794717,1316.592
479,0.796383,1316.592
480,0.79805,1314.804
481,0.799717,1313.537
482,0.801383,1310.706
483,0.80305,1310.706
484,0.804717,1307.428
485,0.806383,1305.342
486,0.80805,1305.342
487,0.809717,1305.491
488,0.811483,1305.342
489,0.8130500000000001,1302.808
490,0.814717,1302.808
491,0.816383,1298.04
492,0.8180500000000001,1292.825
493,0.819717,1288.131
494,0.821383,1288.131
495,0.823067,1285.002
496,0.824733,1283.139
497,0.826433,1283.214
498,0.82805,1283.214
499,0.829717,1284.331
500,0.831383,1285.002
501,0.83305,1285.449
502,0.834717,1285.449
503,0.836383,1282.617
504,0.83805,1278.296
505,0.839717,1278.296
506,0.841383,1275.614
507,0.843033,1276.806
508,0.8447,1277.775
509,0.846367,1277.775
510,0.848033,1276.284
511,0.8497,1272.857
512,0.851367,1269.579
513,0.853033,1269.579
514,0.8547,1267.94
515,0.856367,1268.759
516,0.858033,1268.387
517,0.8597,1268.387
518,0.861367,1268.089
519,0.8630330000000001,1265.63
520,0.8647,1265.63
521,0.866367,1263.022
522,0.8680330000000001,1262.575
523,0.8697,1260.266
524,0.871367,1260.266
525,0.8730329999999999,1259.968
526,0.8747,1259.446
527,0.876367,1258.925
528,0.878033,1258.925
529,0.8797,1257.881
530,0.881367,1256.242
531,0.8830170000000001,1255.497
532,0.884683,1255.497
533,0.88635,1253.858
534,0.8880169999999999,1253.635
535,0.8897,1253.635
536,0.891417,1254.529
537,0.8930169999999999,1254.007
538,0.894683,1253.337
539,0.896417,1253.337
540,0.898017,1250.58
541,0.899683,1249.313
542,0.90135,1248.866
543,0.903017,1248.866
544,0.904667,1245.961
545,0.9063330000000001,1248.643
546,0.908,1248.792
547,0.909667,1248.792
548,0.9113329999999999,1247.376
549,0.913,1250.953
550,0.914667,1250.505
551,0.916333,1250.505
552,0.918,1247.674
553,0.919667,1246.035
554,0.921333,1246.035
555,0.923,1242.608
556,0.924667,1240.149
557,0.926333,1241.639
558,0.928,1241.639
559,0.929767,1242.161
560,0.931333,1240.969
561,0.9330000000000001,1238.436
562,0.934667,1238.436
563,0.936333,1235.53
564,0.9379999999999999,1235.753
565,0.939667,1237.541
566,0.941333,1237.541
567,0.9429999999999999,1237.989
568,0.944667,1236.871
569,0.946333,1236.871
570,0.948,1235.902
571,0.949667,1234.785
572,0.951333,1234.114
573,0.953,1234.114
574,0.954667,1236.051
575,0.956333,1235.902
576,0.958,1236.051
577,0.959667,1236.051
578,0.961333,1234.04
579,0.962983,1232.251
580,0.9646670000000001,1231.656
581,0.966333,1231.656
582,0.968017,1230.91
583,0.96965,1234.785
584,0.971317,1233.816
585,0.972983,1233.816
586,0.97465,1233.667
587,0.976317,1234.71
588,0.977983,1234.71
589,0.97965,1231.581
590,0.981317,1233.742
591,0.9829830000000001,1231.059
592,0.98465,1231.059
593,0.986317,1228.899
594,0.9879829999999999,1230.687
595,0.98965,1228.601
596,0.991317,1228.601
597,0.9929829999999999,1231.581
598,0.99465,1230.91
599,0.996317,1230.761
600,0.998,1230.761
601,0.99965,1229.569
602,1.001317,1225.546
603,1.002983,1225.546
604,1.00465,1224.652
605,1.006317,1222.715
606,1.007983,1221.895
607,1.00965,1221.895
608,1.011317,1222.789
609,1.012983,1222.64
610,1.0147,1220.554
611,1.016317,1220.554
612,1.017983,1223.385
613,1.01965,1221.97
614,1.021317,1221.001
615,1.022983,1221.001
616,1.024633,1220.107
617,1.0263,1218.766
618,1.027967,1218.766
619,1.029633,1217.574
620,1.031367,1216.456
621,1.032967,1219.884
622,1.034683,1219.884
623,1.0363,1217.872
624,1.037967,1220.48
625,1.039633,1224.205
626,1.041333,1224.205
627,1.042967,1221.523
628,1.044633,1222.342
629,1.0463,1221.821
630,1.048067,1221.821
631,1.049633,1219.213
632,1.0513,1216.456
633,1.052967,1215.041
634,1.054633,1215.041
635,1.0563,1214.147
636,1.057967,1216.009
637,1.059633,1216.009
638,1.0613,1219.734
639,1.062967,1219.287
640,1.064733,1220.107
641,1.0663,1220.107
642,1.067967,1217.499
643,1.069633,1214.817
644,1.0713,1213.029
645,1.072967,1213.029
646,1.074633,1213.104
647,1.0763,1213.029
648,1.077967,1214.668
649,1.079633,1214.668
650,1.0813,1216.68
651,1.082967,1214.296
652,1.084617,1214.296
653,1.086283,1213.178
654,1.08795,1209.974
655,1.089617,1208.261
656,1.091283,1208.261
657,1.09295,1207.143
658,1.094617,1207.963
659,1.096283,1209.229
660,1.09795,1209.229
661,1.099617,1210.496
662,1.101283,1212.806
663,1.10295,1209.304
664,1.104633,1209.304
665,1.106283,1207.516
666,1.10795,1207.367
667,1.109617,1205.429
668,1.111283,1205.429
669,1.11295,1206.994
670,1.114617,1208.857
671,1.116283,1208.857
672,1.11795,1206.473
673,1.119617,1208.037
674,1.1213,1209.751
675,1.12295,1209.751
676,1.124617,1209.453
677,1.126283,1209.751
678,1.12795,1210.123
679,1.129617,1210.123
680,1.131283,1211.613
681,1.13295,1211.986
682,1.134617,1214.892
683,1.136283,1214.892
684,1.13795,1213.327
685,1.139617,1210.272
686,1.141283,1210.272
687,1.142933,1208.782
688,1.1446,1206.547
689,1.146267,1206.92
690,1.147933,1206.92
691,1.149683,1207.069
692,1.151267,1209.751
693,1.152933,1211.39
694,1.1546,1211.39
695,1.156267,1209.006
696,1.157933,1207.516
697,1.1596,1205.951
698,1.161267,1205.951
699,1.162933,1203.79
700,1.1646,1205.057
701,1.166333,1206.249
702,1.167933,1206.249
703,1.1696,1206.026
704,1.171267,1204.908
705,1.172933,1204.908
706,1.174583,1203.865
707,1.17625,1203.269
708,1.177917,1201.63
709,1.179583,1201.63
710,1.18125,1206.398
711,1.183033,1208.261
712,1.184583,1210.868
713,1.18625,1210.868
714,1.187917,1210.794
715,1.189583,1207.516
716,1.19125,1205.206
717,1.192917,1205.206
718,1.194583,1201.034
719,1.19625,1203.567
720,1.197917,1203.567
721,1.199583,1202.375
722,1.20125,1200.81
723,1.2029,1197.83
724,1.204567,1197.83
725,1.206233,1193.062
726,1.2079,1193.881
727,1.209567,1195.371
728,1.211233,1195.371
729,1.2129,1202.077
730,1.214567,1208.037
731,1.21625,1207.143
732,1.2179,1207.143
733,1.219567,1205.876
734,1.221233,1203.194
735,1.2229,1203.194
736,1.224567,1200.065
737,1.226233,1198.798
738,1.2279,1201.257
739,1.229567,1201.257
740,1.231233,1200.959
741,1.2329,1201.183
742,1.234567,1202.002
743,1.236233,1202.002
744,1.2379,1200.289
745,1.239567,1199.022
746,1.241233,1197.979
747,1.2429,1197.979
748,1.244567,1199.916
749,1.246233,1203.79
750,1.2479,1204.833
751,1.249567,1204.833
752,1.251233,1204.908
753,1.252933,1204.163
754,1.254567,1204.163
755,1.256233,1197.606
756,1.2579,1196.116
757,1.259567,1195.893
758,1.261233,1195.893
759,1.2629,1195.818
760,1.26455,1195.818
761,1.266217,1197.83
762,1.267917,1197.83
763,1.26955,1199.469
764,1.271217,1200.289
765,1.272883,1202.524
766,1.27455,1202.524
767,1.276217,1198.873
768,1.277883,1197.681
769,1.27955,1197.681
770,1.281217,1195.371
771,1.282883,1195.297
772,1.284583,1196.489
773,1.286217,1196.489
774,1.287883,1194.626
775,1.28955,1195.52
776,1.291217,1195.744
777,1.292883,1195.744
778,1.29455,1197.01
779,1.296217,1196.563
780,1.297883,1196.34
781,1.29955,1196.34
782,1.301317,1195.818
783,1.302883,1197.979
784,1.30455,1198.649
785,1.306267,1198.649
786,1.307883,1197.383
787,1.30955,1198.053
788,1.311217,1198.053
789,1.312883,1196.116
790,1.31455,1197.681
791,1.316217,1198.277
792,1.317883,1198.277
793,1.31955,1199.022
794,1.321217,1198.277
795,1.322883,1196.712
796,1.324533,1196.712
797,1.3262,1197.085
798,1.327867,1194.85
799,1.329533,1196.191
800,1.33125,1196.191
801,1.332867,1194.775
802,1.334533,1191.124
803,1.3362,1191.124
804,1.337867,1192.242
805,1.339533,1192.465
806,1.3412,1195.073
807,1.342867,1195.073
808,1.344533,1199.916
809,1.3462,1199.245
810,1.347867,1197.904
811,1.349533,1197.904
812,1.3512,1196.414
813,1.352867,1192.987
814,1.354533,1193.285
815,1.3562,1193.285
816,1.357867,1191.124
817,1.359533,1191.497
818,1.3612,1194.254
819,1.362867,1194.254
820,1.364533,1194.999
821,1.3662,1196.712
822,1.367867,1196.712
823,1.369533,1195.669
824,1.3712,1190.975
825,1.372867,1188.219
826,1.374533,1188.219
827,1.3762,1185.611
828,1.3779,1184.717
829,1.379533,1186.952
830,1.3812,1186.952
831,1.38285,1189.411
832,1.384517,1193.136
833,1.3862,1193.359
834,1.38785,1193.359
835,1.389517,1193.807
836,1.391183,1193.881
837,1.39285,1193.881
838,1.394517,1192.391
839,1.396183,1194.179
840,1.39785,1193.657
841,1.39955,1193.657
842,1.4012,1193.062
843,1.40285,1192.689
844,1.404517,1193.881
845,1.406183,1193.881
846,1.40785,1195.744
847,1.409517,1193.434
848,1.411183,1194.552
849,1.41285,1194.552
850,1.414517,1190.379
851,1.416183,1186.207
852,1.41785,1186.505
853,1.419583,1186.505
854,1.421183,1184.791
855,1.42285,1188.368
856,1.424517,1188.368
857,1.426183,1193.062
858,1.42785,1194.701
859,1.429517,1196.638
860,1.431183,1196.638
861,1.43285,1194.179
862,1.434517,1193.583
863,1.436183,1193.881
864,1.43785,1193.881
865,1.439517,1194.254
866,1.441183,1196.787
867,1.44285,1192.987
868,1.4445,1192.987
869,1.446167,1192.316
870,1.447833,1191.944
871,1.4495,1191.944
872,1.451167,1189.709
873,1.452833,1189.709
874,1.4545,1188.368
875,1.456167,1188.368
876,1.457833,1186.281
877,1.4595,1185.387
878,1.461167,1186.281
879,1.462833,1186.281
880,1.4645,1186.132
881,1.46615,1188.517
882,1.467833,1190.305
883,1.469483,1190.305
884,1.471167,1192.614
885,1.472817,1194.552
886,1.474483,1194.552
887,1.47615,1194.85
888,1.477817,1194.626
889,1.479483,1190.752
890,1.481167,1190.752
891,1.482817,1188.815
892,1.484483,1184.493
893,1.48615,1185.536
894,1.487817,1185.536
895,1.489483,1186.803
896,1.49115,1189.038
897,1.492817,1190.007
898,1.494483,1190.007
899,1.49615,1186.877
900,1.497817,1186.43
901,1.499483,1183.748
902,1.50115,1183.748
903,1.502817,1183.376
904,1.504467,1185.015
905,1.506133,1185.015
906,1.5078,1188.07
907,1.509467,1191.273
908,1.511133,1194.03
909,1.5128,1194.03
910,1.514467,1194.775
911,1.516133,1191.497
912,1.5178,1187.026
913,1.519467,1187.026
914,1.521133,1185.238
915,1.5228,1182.184
