"ID","sea_time","fid_signal"
1,0,28.157
2,0.001667,28.143
3,0.003333,28.143
4,0.005,28.142
5,0.006667,28.144
6,0.008333,28.123
7,0.01,28.123
8,0.011667,28.073
9,0.013333,27.996
10,0.015,27.996
11,0.016667,27.937
12,0.018317,27.921
13,0.019983,27.949
14,0.02165,27.949
15,0.023317,28.01
16,0.024983,28.064
17,0.02665,28.1
18,0.02835,28.1
19,0.029983,28.132
20,0.03165,28.146
21,0.033333,28.155
22,0.034983,28.155
23,0.03665,28.156
24,0.038317,28.158
25,0.039983,28.16
26,0.04165,28.16
27,0.043317,28.169
28,0.045033,28.18
29,0.04665,28.18
30,0.048317,28.183
31,0.049983,28.189
32,0.05165,28.19
33,0.053317,28.19
34,0.054983,28.197
35,0.05665,28.2
36,0.058317,28.203
37,0.059983,28.203
38,0.061683,28.2
39,0.063317,28.191
40,0.064983,28.186
41,0.06665,28.186
42,0.068317,28.183
43,0.069983,28.182
44,0.07165000000000001,28.182
45,0.07331699999999999,28.184
46,0.07498299999999999,28.186
47,0.07663300000000001,28.186
48,0.0784,28.186
49,0.079967,28.189
50,0.081633,28.187
51,0.0833,28.184
52,0.084967,28.184
53,0.086633,28.174
54,0.0883,28.164
55,0.08996700000000001,28.162
56,0.09163300000000001,28.162
57,0.09329999999999999,28.158
58,0.094967,28.165
59,0.096633,28.163
60,0.0983,28.163
61,0.099967,28.164
62,0.101633,28.167
63,0.1033,28.167
64,0.104967,28.155
65,0.106633,28.158
66,0.108333,28.153
67,0.11,28.153
68,0.111633,28.156
69,0.1133,28.167
70,0.114967,28.165
71,0.11665,28.165
72,0.1183,28.171
73,0.119967,28.165
74,0.121633,28.16
75,0.1233,28.16
76,0.124967,28.171
77,0.126633,28.169
78,0.1283,28.169
79,0.12995,28.183
80,0.131617,28.192
81,0.133283,28.185
82,0.13495,28.185
83,0.1366,28.188
84,0.138267,28.176
85,0.139933,28.178
86,0.1416,28.178
87,0.143267,28.178
88,0.144933,28.18
89,0.1466,28.185
90,0.148267,28.185
91,0.149933,28.184
92,0.1516,28.185
93,0.153267,28.185
94,0.154933,28.19
95,0.1566,28.193
96,0.158267,28.195
97,0.159933,28.195
98,0.1616,28.194
99,0.16335,28.19
100,0.164933,28.192
101,0.1666,28.192
102,0.168267,28.194
103,0.169933,28.199
104,0.1716,28.197
105,0.173267,28.197
106,0.174933,28.189
107,0.1766,28.182
108,0.178267,28.169
109,0.179967,28.169
110,0.1816,28.164
111,0.183267,28.163
112,0.184933,28.163
113,0.1866,28.161
114,0.188267,28.166
115,0.189933,28.164
116,0.1916,28.164
117,0.193267,28.162
118,0.194917,28.159
119,0.196717,28.157
120,0.19825,28.157
121,0.199917,28.159
122,0.201583,28.159
123,0.20325,28.166
124,0.204917,28.166
125,0.206583,28.169
126,0.20825,28.165
127,0.209917,28.165
128,0.211583,28.164
129,0.21325,28.158
130,0.214917,28.151
131,0.216583,28.151
132,0.21825,28.157
133,0.219917,28.156
134,0.221583,28.165
135,0.22325,28.165
136,0.224917,28.173
137,0.226583,28.175
138,0.22825,28.173
139,0.229917,28.173
140,0.231583,28.16
141,0.23325,28.152
142,0.234917,28.144
143,0.236583,28.144
144,0.23825,28.144
145,0.239917,28.144
146,0.241583,28.144
147,0.24325,28.145
148,0.244917,28.15
149,0.246583,28.157
150,0.24825,28.157
151,0.24995,28.165
152,0.251583,28.17
153,0.25325,28.17
154,0.254917,28.17
155,0.256567,28.17
156,0.258233,28.172
157,0.2599,28.172
158,0.2616,28.172
159,0.263267,28.177
160,0.2649,28.174
161,0.266567,28.174
162,0.268233,28.168
163,0.2699,28.165
164,0.271567,28.157
165,0.273233,28.157
166,0.2749,28.159
167,0.276567,28.156
168,0.278233,28.159
169,0.2799,28.159
170,0.281633,28.171
171,0.283233,28.18
172,0.2849,28.187
173,0.286567,28.187
174,0.288233,28.19
175,0.2899,28.183
176,0.291583,28.175
177,0.293233,28.175
178,0.2949,28.176
179,0.296567,28.17
180,0.298233,28.17
181,0.2999,28.173
182,0.301567,28.172
183,0.303233,28.171
184,0.3049,28.171
185,0.306567,28.168
186,0.308233,28.167
187,0.3099,28.171
188,0.311567,28.171
189,0.313233,28.164
190,0.315017,28.165
191,0.316567,28.166
192,0.318217,28.166
193,0.319883,28.163
194,0.32155,28.174
195,0.323217,28.174
196,0.324883,28.183
197,0.32655,28.187
198,0.328233,28.193
199,0.329883,28.193
200,0.33155,28.192
201,0.333217,28.191
202,0.334883,28.188
203,0.33655,28.188
204,0.338217,28.187
205,0.339883,28.186
206,0.34155,28.188
207,0.343217,28.188
208,0.344883,28.194
209,0.34655,28.204
210,0.348217,28.204
211,0.349883,28.215
212,0.35155,28.228
213,0.353233,28.242
214,0.354883,28.242
215,0.35655,28.246
216,0.358217,28.255
217,0.359883,28.263
218,0.36155,28.263
219,0.363217,28.275
220,0.364883,28.296
221,0.36655,28.315
222,0.368217,28.315
223,0.369883,28.339
224,0.37155,28.36
225,0.373217,28.383
226,0.374883,28.383
227,0.376533,28.411
228,0.3782,28.449
229,0.379867,28.449
230,0.381533,28.495
231,0.3832,28.555
232,0.384867,28.62
233,0.386533,28.62
234,0.3882,28.699
235,0.389867,28.801
236,0.391533,28.93
237,0.3932,28.93
238,0.394867,29.087
239,0.396583,29.276
240,0.3982,29.496
241,0.399917,29.496
242,0.401533,29.757
243,0.4032,30.074
244,0.404867,30.074
245,0.406533,30.452
246,0.4082,30.904
247,0.409867,31.436
248,0.411533,31.436
249,0.4132,32.059
250,0.414867,32.787
251,0.416533,33.628
252,0.4182,33.628
253,0.419867,34.597
254,0.421517,35.701
255,0.423183,36.954
256,0.42485,36.954
257,0.426517,38.358
258,0.428183,39.905
259,0.42985,41.612
260,0.431517,41.612
261,0.433267,43.465
262,0.43485,45.459
263,0.4365,45.459
264,0.438167,47.6
265,0.439833,49.861
266,0.4415,52.235
267,0.443167,52.235
268,0.444833,54.71
269,0.4465,57.266
270,0.448183,59.884
271,0.449833,59.884
272,0.4515,62.54
273,0.453167,65.20399999999999
274,0.454833,67.848
275,0.4565,67.848
276,0.458167,70.443
277,0.459833,72.968
278,0.4615,72.968
279,0.463167,75.38800000000001
280,0.464833,77.688
281,0.466517,79.83199999999999
282,0.468167,79.83199999999999
283,0.469833,81.8
284,0.4715,83.584
285,0.473167,85.149
286,0.474883,85.149
287,0.4765,86.492
288,0.478167,87.59099999999999
289,0.479833,88.443
290,0.4815,88.443
291,0.483167,89.04000000000001
292,0.484833,89.39
293,0.4865,89.488
294,0.488167,89.488
295,0.489833,89.334
296,0.4915,88.93899999999999
297,0.493167,88.93899999999999
298,0.494833,88.301
299,0.496483,87.447
300,0.49815,86.39
301,0.499817,86.39
302,0.501483,85.149
303,0.50315,83.747
304,0.504817,82.19
305,0.506483,82.19
306,0.50815,80.502
307,0.509817,78.69499999999999
308,0.511483,76.789
309,0.51315,76.789
310,0.514817,74.81699999999999
311,0.516483,72.788
312,0.5182,72.788
313,0.519817,70.718
314,0.521483,68.624
315,0.523183,66.512
316,0.524817,66.512
317,0.526483,64.411
318,0.52815,62.341
319,0.529817,60.308
320,0.531483,60.308
321,0.53315,58.321
322,0.534817,56.375
323,0.536483,54.489
324,0.53815,54.489
325,0.539817,52.666
326,0.541483,50.916
327,0.54315,50.916
328,0.544817,49.25
329,0.546517,47.652
330,0.54815,46.135
331,0.549817,46.135
332,0.551583,44.701
333,0.55315,43.352
334,0.554817,42.098
335,0.556467,42.098
336,0.558133,40.921
337,0.5598,39.821
338,0.561467,38.796
339,0.563133,38.796
340,0.5648,37.83
341,0.5664670000000001,36.945
342,0.568133,36.129
343,0.5698,36.129
344,0.5714669999999999,35.372
345,0.573133,34.679
346,0.5748,34.679
347,0.576467,34.037
348,0.578133,33.453
349,0.5798,32.922
350,0.581467,32.922
351,0.583133,32.439
352,0.5848,32.007
353,0.586467,31.611
354,0.588133,31.611
355,0.5898,31.243
356,0.591467,30.913
357,0.593133,30.614
358,0.5948,30.614
359,0.596467,30.346
360,0.598133,30.114
361,0.5998,30.114
362,0.601467,29.912
363,0.603133,29.724
364,0.6048,29.556
365,0.606467,29.556
366,0.608133,29.399
367,0.6098,29.253
368,0.6115,29.135
369,0.613133,29.135
370,0.614783,29.025
371,0.6164500000000001,28.936
372,0.618117,28.867
373,0.619783,28.867
374,0.6214499999999999,28.8
375,0.62315,28.736
376,0.624783,28.678
377,0.62645,28.678
378,0.628117,28.62
379,0.629783,28.574
380,0.63145,28.574
381,0.633117,28.543
382,0.634783,28.521
383,0.636517,28.498
384,0.638117,28.498
385,0.639783,28.468
386,0.64145,28.445
387,0.643117,28.426
388,0.644783,28.426
389,0.64645,28.41
390,0.6481170000000001,28.39
391,0.649783,28.38
392,0.65145,28.38
393,0.653217,28.368
394,0.654783,28.362
395,0.65645,28.362
396,0.658117,28.365
397,0.659783,28.36
398,0.66145,28.351
399,0.663117,28.351
400,0.664783,28.336
401,0.66645,28.327
402,0.668117,28.318
403,0.669883,28.318
404,0.67145,28.321
405,0.673117,28.325
406,0.674783,28.318
407,0.676433,28.318
408,0.6781,28.317
409,0.679767,28.315
410,0.681433,28.309
411,0.6831,28.309
412,0.684767,28.316
413,0.686567,28.321
414,0.6881,28.321
415,0.689767,28.321
416,0.691433,28.324
417,0.6931,28.321
418,0.694783,28.321
419,0.696433,28.316
420,0.6981000000000001,28.313
421,0.699767,28.311
422,0.701433,28.311
423,0.7030999999999999,28.305
424,0.704767,28.309
425,0.706433,28.299
426,0.7081,28.299
427,0.709767,28.298
428,0.711417,28.304
429,0.713083,28.304
430,0.71475,28.289
431,0.716417,28.294
432,0.718083,28.296
433,0.71975,28.296
434,0.721417,28.297
435,0.723083,28.308
436,0.72475,28.315
437,0.726417,28.315
438,0.728083,28.313
439,0.72975,28.31
440,0.731417,28.307
441,0.733083,28.307
442,0.73475,28.294
443,0.7364000000000001,28.293
444,0.738067,28.293
445,0.739733,28.293
446,0.7413999999999999,28.294
447,0.743067,28.296
448,0.744733,28.296
449,0.7464,28.307
450,0.748067,28.307
451,0.749733,28.304
452,0.7514,28.304
453,0.753067,28.312
454,0.754767,28.304
455,0.7564,28.31
456,0.758067,28.31
457,0.759733,28.317
458,0.7614,28.313
459,0.7630670000000001,28.312
460,0.76475,28.312
461,0.766433,28.313
462,0.7681,28.316
463,0.769733,28.316
464,0.77145,28.312
465,0.7730669999999999,28.31
466,0.774733,28.306
467,0.7764,28.306
468,0.778067,28.292
469,0.779733,28.294
470,0.7814,28.295
471,0.783067,28.295
472,0.784733,28.297
473,0.7864,28.298
474,0.788067,28.298
475,0.789733,28.298
476,0.7914,28.297
477,0.793067,28.3
478,0.794733,28.3
479,0.796383,28.3
480,0.79805,28.301
481,0.799717,28.306
482,0.801383,28.306
483,0.80305,28.306
484,0.80485,28.311
485,0.806383,28.311
486,0.80805,28.311
487,0.809717,28.31
488,0.811383,28.311
489,0.8130500000000001,28.309
490,0.814717,28.309
491,0.816383,28.312
492,0.8180500000000001,28.311
493,0.819717,28.313
494,0.821383,28.313
495,0.8230499999999999,28.321
496,0.824717,28.33
497,0.826383,28.33
498,0.82805,28.335
499,0.829717,28.335
500,0.831383,28.331
501,0.83305,28.331
502,0.834717,28.327
503,0.836383,28.327
504,0.83805,28.324
505,0.839717,28.324
506,0.8414,28.324
507,0.84305,28.325
508,0.84475,28.325
509,0.846383,28.325
510,0.84805,28.324
511,0.8497169999999999,28.322
512,0.851383,28.322
513,0.85305,28.322
514,0.8547169999999999,28.325
515,0.856383,28.325
516,0.858033,28.325
517,0.8597,28.326
518,0.861367,28.327
519,0.8630330000000001,28.321
520,0.8647,28.321
521,0.866367,28.336
522,0.8680330000000001,28.339
523,0.869717,28.34
524,0.871367,28.34
525,0.87305,28.349
526,0.8747,28.346
527,0.876367,28.35
528,0.878033,28.35
529,0.8797,28.354
530,0.881367,28.357
531,0.883033,28.357
532,0.8847,28.364
533,0.886367,28.364
534,0.888033,28.363
535,0.88975,28.363
536,0.891367,28.36
537,0.893033,28.352
538,0.8947000000000001,28.364
539,0.896367,28.364
540,0.898033,28.368
541,0.8997000000000001,28.375
542,0.901367,28.375
543,0.903033,28.375
544,0.9046999999999999,28.37
545,0.90645,28.366
546,0.908033,28.366
547,0.9097,28.369
548,0.911367,28.371
549,0.913033,28.375
550,0.914683,28.375
551,0.916367,28.385
552,0.918017,28.381
553,0.919683,28.383
554,0.92135,28.383
555,0.923133,28.377
556,0.924683,28.368
557,0.92635,28.367
558,0.928017,28.367
559,0.929683,28.369
560,0.93135,28.376
561,0.933017,28.376
562,0.934683,28.378
563,0.93635,28.379
564,0.938017,28.381
565,0.939683,28.381
566,0.94135,28.376
567,0.943017,28.374
568,0.9446830000000001,28.378
569,0.94635,28.378
570,0.948017,28.377
571,0.9496830000000001,28.382
572,0.95135,28.388
573,0.953017,28.388
574,0.9546829999999999,28.385
575,0.95635,28.384
576,0.958017,28.376
577,0.959683,28.376
578,0.96135,28.374
579,0.963017,28.374
580,0.964683,28.374
581,0.96635,28.366
582,0.968017,28.375
583,0.969683,28.385
584,0.97135,28.385
585,0.973017,28.389
586,0.974683,28.4
587,0.976333,28.397
588,0.978,28.397
589,0.979667,28.387
590,0.981333,28.386
591,0.983,28.379
592,0.984667,28.379
593,0.986333,28.38
594,0.9880330000000001,28.384
595,0.989667,28.384
596,0.991333,28.391
597,0.993,28.402
598,0.994667,28.407
599,0.996333,28.407
600,0.998,28.41
601,0.999667,28.407
602,1.001333,28.404
603,1.002983,28.404
604,1.00465,28.405
605,1.006317,28.403
606,1.008017,28.407
607,1.00965,28.407
608,1.011317,28.416
609,1.012983,28.419
610,1.01465,28.424
611,1.016317,28.424
612,1.017983,28.422
613,1.01965,28.417
614,1.021317,28.417
615,1.022983,28.408
616,1.024667,28.407
617,1.026317,28.407
618,1.027983,28.407
619,1.02965,28.411
620,1.031317,28.422
621,1.032983,28.425
622,1.03465,28.425
623,1.0363,28.425
624,1.037967,28.422
625,1.039633,28.417
626,1.041433,28.417
627,1.042967,28.419
628,1.04465,28.427
629,1.0463,28.427
630,1.047967,28.427
631,1.049633,28.427
632,1.0513,28.425
633,1.052967,28.425
634,1.054633,28.424
635,1.0563,28.43
636,1.057967,28.434
637,1.059633,28.434
638,1.0613,28.432
639,1.062967,28.431
640,1.064633,28.425
641,1.0663,28.425
642,1.067967,28.422
643,1.069633,28.428
644,1.0713,28.427
645,1.072967,28.427
646,1.074633,28.44
647,1.0763,28.444
648,1.077967,28.444
649,1.079633,28.44
650,1.0813,28.435
651,1.082967,28.422
652,1.084633,28.422
653,1.0863,28.426
654,1.087967,28.429
655,1.089633,28.436
656,1.0913,28.436
657,1.092967,28.444
658,1.094633,28.446
659,1.096283,28.451
660,1.09795,28.451
661,1.099617,28.455
662,1.101283,28.455
663,1.10295,28.455
664,1.104617,28.453
665,1.106283,28.456
666,1.10795,28.455
667,1.109617,28.455
668,1.111283,28.459
669,1.11295,28.458
670,1.114617,28.454
671,1.116283,28.454
672,1.11795,28.455
673,1.119617,28.457
674,1.121283,28.466
675,1.12295,28.466
676,1.124617,28.469
677,1.1263,28.473
678,1.12795,28.473
679,1.129617,28.469
680,1.131283,28.468
681,1.13295,28.472
682,1.134667,28.472
683,1.136283,28.469
684,1.137983,28.472
685,1.139617,28.465
686,1.141283,28.465
687,1.14295,28.458
688,1.144617,28.465
689,1.146283,28.462
690,1.14795,28.462
691,1.149617,28.474
692,1.151283,28.486
693,1.15295,28.491
694,1.154617,28.491
695,1.156267,28.495
696,1.157933,28.491
697,1.159717,28.482
698,1.161267,28.482
699,1.162933,28.48
700,1.1646,28.477
701,1.166267,28.477
702,1.167933,28.471
703,1.1696,28.466
704,1.171267,28.457
705,1.172933,28.457
706,1.1746,28.457
707,1.176267,28.467
708,1.177933,28.473
709,1.1796,28.473
710,1.181267,28.48
711,1.182933,28.485
712,1.1846,28.485
713,1.186267,28.488
714,1.187933,28.484
715,1.1896,28.479
716,1.191267,28.479
717,1.192933,28.478
718,1.1946,28.467
719,1.196267,28.47
720,1.197933,28.47
721,1.1996,28.477
722,1.201267,28.483
723,1.202933,28.496
724,1.2046,28.496
725,1.206283,28.497
726,1.207933,28.495
727,1.2096,28.491
728,1.211267,28.491
729,1.212933,28.487
730,1.2146,28.485
731,1.21625,28.485
732,1.217917,28.485
733,1.219583,28.487
734,1.22125,28.488
735,1.222917,28.488
736,1.224583,28.489
737,1.22625,28.488
738,1.227917,28.48
739,1.229617,28.48
740,1.23125,28.473
741,1.232917,28.476
742,1.234583,28.475
743,1.23625,28.475
744,1.237917,28.486
745,1.239583,28.491
746,1.24125,28.491
747,1.242917,28.495
748,1.24465,28.501
749,1.24625,28.497
750,1.247917,28.497
751,1.249583,28.498
752,1.25125,28.495
753,1.252917,28.487
754,1.254583,28.487
755,1.25625,28.485
756,1.257917,28.485
757,1.259583,28.48
758,1.26125,28.48
759,1.262917,28.481
760,1.264583,28.483
761,1.26625,28.483
762,1.267917,28.483
763,1.269583,28.495
764,1.27125,28.505
765,1.272917,28.505
766,1.274583,28.503
767,1.276233,28.5
768,1.278,28.492
769,1.279567,28.492
770,1.281233,28.485
771,1.2829,28.487
772,1.284583,28.493
773,1.2863,28.493
774,1.2879,28.495
775,1.289567,28.493
776,1.291233,28.489
777,1.2929,28.489
778,1.29455,28.486
779,1.296217,28.489
780,1.297883,28.489
781,1.29955,28.497
782,1.301217,28.504
783,1.302883,28.51
784,1.30455,28.51
785,1.306217,28.511
786,1.307883,28.514
787,1.30955,28.515
788,1.311217,28.515
789,1.312883,28.515
790,1.31455,28.514
791,1.316217,28.509
792,1.317933,28.509
793,1.31955,28.51
794,1.321217,28.507
795,1.322883,28.507
796,1.32455,28.507
797,1.326217,28.508
798,1.327883,28.495
799,1.32955,28.495
800,1.331217,28.485
801,1.332883,28.48
802,1.33455,28.479
803,1.336217,28.479
804,1.337867,28.492
805,1.339533,28.502
806,1.3412,28.505
807,1.342867,28.505
808,1.344533,28.5
809,1.3462,28.497
810,1.347867,28.498
811,1.349533,28.498
812,1.3512,28.496
813,1.352883,28.508
814,1.354533,28.508
815,1.3562,28.505
816,1.357867,28.499
817,1.359533,28.503
818,1.3612,28.503
819,1.362933,28.501
820,1.364533,28.506
821,1.3662,28.51
822,1.367867,28.51
823,1.369533,28.508
824,1.3712,28.504
825,1.372867,28.495
826,1.374533,28.495
827,1.3762,28.49
828,1.377867,28.487
829,1.379533,28.487
830,1.3812,28.483
831,1.382867,28.492
832,1.384533,28.493
833,1.3862,28.493
834,1.387867,28.493
835,1.389533,28.488
836,1.3912,28.484
837,1.392867,28.484
838,1.394517,28.479
839,1.396317,28.478
840,1.39785,28.486
841,1.399517,28.486
842,1.401183,28.491
843,1.40285,28.505
844,1.404517,28.514
845,1.406183,28.514
846,1.40785,28.517
847,1.409517,28.519
848,1.411183,28.519
849,1.412967,28.515
850,1.414517,28.514
851,1.416183,28.516
852,1.41785,28.516
853,1.419517,28.511
854,1.421183,28.51
855,1.42285,28.509
856,1.424517,28.509
857,1.426183,28.512
858,1.42785,28.511
859,1.429517,28.51
860,1.431183,28.51
861,1.432917,28.508
862,1.434517,28.498
863,1.436183,28.498
864,1.43785,28.503
865,1.439517,28.508
866,1.441183,28.513
867,1.44285,28.513
868,1.444517,28.519
869,1.446183,28.521
870,1.44785,28.519
871,1.449517,28.519
872,1.451183,28.52
873,1.45285,28.523
874,1.454517,28.524
875,1.456167,28.524
876,1.457833,28.525
877,1.4595,28.521
878,1.461167,28.514
879,1.462833,28.514
880,1.4645,28.512
881,1.466167,28.512
882,1.467833,28.512
883,1.4695,28.51
884,1.471167,28.515
885,1.472833,28.514
886,1.4745,28.514
887,1.476167,28.51
888,1.477833,28.511
889,1.4795,28.511
890,1.481233,28.511
891,1.482833,28.508
892,1.4845,28.512
893,1.486167,28.522
894,1.48785,28.522
895,1.4895,28.528
896,1.491167,28.534
897,1.492833,28.534
898,1.4945,28.536
899,1.496167,28.528
900,1.497917,28.519
901,1.4995,28.519
902,1.501183,28.517
903,1.502833,28.517
904,1.5045,28.523
905,1.506167,28.523
906,1.507833,28.53
907,1.5095,28.532
908,1.511167,28.53
909,1.512833,28.53
910,1.5146,28.528
911,1.516167,28.519
912,1.517817,28.519
913,1.519483,28.517
914,1.52115,28.514
915,1.522817,28.513
916,1.524483,28.513
917,1.52615,28.52
918,1.527817,28.522
919,1.529483,28.523
920,1.53115,28.523
921,1.532817,28.519
922,1.534483,28.514
923,1.53615,28.508
924,1.537817,28.508
925,1.539483,28.51
926,1.54115,28.514
927,1.542817,28.52
928,1.544483,28.52
929,1.54615,28.522
930,1.547817,28.521
931,1.549483,28.521
932,1.55115,28.518
933,1.552817,28.516
934,1.554483,28.521
935,1.55615,28.521
936,1.557817,28.521
937,1.559483,28.522
938,1.56115,28.521
939,1.562817,28.521
940,1.564483,28.525
941,1.56615,28.528
942,1.567817,28.525
943,1.569483,28.525
944,1.57115,28.522
945,1.572817,28.513
946,1.574483,28.513
947,1.576133,28.504
948,1.5778,28.503
949,1.579467,28.502
950,1.581133,28.502
951,1.5828,28.505
952,1.584467,28.514
953,1.586117,28.516
954,1.587783,28.516
955,1.58945,28.527
956,1.591117,28.528
957,1.592783,28.531
958,1.59445,28.531
959,1.596117,28.536
960,1.597783,28.535
961,1.599467,28.535
962,1.601117,28.535
963,1.602783,28.527
964,1.60445,28.52
965,1.606117,28.52
966,1.607783,28.515
967,1.60945,28.516
968,1.611117,28.526
969,1.612783,28.526
970,1.61445,28.538
971,1.616183,28.539
972,1.617783,28.532
973,1.61945,28.532
974,1.621117,28.521
975,1.622783,28.509
976,1.62445,28.51
977,1.626117,28.51
978,1.627783,28.517
979,1.62945,28.52
980,1.631117,28.52
981,1.632883,28.522
982,1.63445,28.524
983,1.6361,28.524
984,1.637767,28.524
985,1.639433,28.527
986,1.6411,28.531
987,1.642767,28.531
988,1.644433,28.531
989,1.6461,28.536
990,1.647783,28.536
991,1.649567,28.531
992,1.65115,28.531
993,1.652767,28.528
994,1.654433,28.518
995,1.6561,28.514
996,1.657767,28.514
997,1.659433,28.521
998,1.6611,28.521
999,1.662767,28.521
1000,1.664433,28.529
1001,1.6661,28.538
1002,1.667767,28.536
1003,1.669433,28.536
1004,1.6711,28.534
1005,1.672767,28.533
1006,1.674433,28.526
1007,1.676117,28.526
1008,1.677767,28.519
1009,1.679433,28.514
1010,1.6811,28.504
1011,1.682767,28.504
1012,1.684433,28.5
