"ID","sea_time","fid_signal"
1,0,1176.521
2,0.001667,1174.51
3,0.003333,1174.51
4,0.005,1173.243
5,0.006667,1170.859
6,0.008333,1172.647
7,0.010033,1172.647
8,0.011667,1174.733
9,0.013333,1171.157
10,0.015017,1171.157
11,0.016667,1170.114
12,0.018333,1172.051
13,0.02,1169.294
14,0.021667,1169.294
15,0.023333,1170.71
16,0.025,1170.412
17,0.026667,1171.008
18,0.028417,1171.008
19,0.03,1173.392
20,0.031667,1172.498
21,0.033333,1171.678
22,0.035,1171.678
23,0.036667,1167.208
24,0.038333,1165.271
25,0.04,1165.271
26,0.041667,1165.718
27,0.043333,1166.388
28,0.045,1167.58
29,0.046667,1167.58
30,0.048333,1166.91
31,0.05,1165.792
32,0.051667,1168.475
33,0.053333,1168.475
34,0.055,1170.561
35,0.05665,1172.349
36,0.058317,1174.659
37,0.059983,1174.659
38,0.061767,1172.274
39,0.063317,1172.051
40,0.064983,1170.412
41,0.06665,1170.412
42,0.068317,1168.251
43,0.069983,1171.008
44,0.07165000000000001,1171.008
45,0.07331699999999999,1170.933
46,0.07498299999999999,1172.051
47,0.07665,1174.807
48,0.078317,1174.807
49,0.079983,1175.329
50,0.08165,1174.137
51,0.083317,1173.094
52,0.084983,1173.094
53,0.08666699999999999,1171.231
54,0.08833299999999999,1168.847
55,0.08998299999999999,1170.784
56,0.09165,1170.784
57,0.093317,1171.678
58,0.094983,1173.765
59,0.09665,1173.765
60,0.098317,1172.498
61,0.099983,1170.039
62,0.10165,1168.624
63,0.103317,1168.624
64,0.105,1166.984
65,0.10665,1168.773
66,0.108317,1171.827
67,0.109983,1171.827
68,0.11165,1174.882
69,0.113317,1174.882
70,0.114983,1173.019
71,0.116633,1173.019
72,0.1183,1172.2
73,0.119967,1169.518
74,0.121633,1169.518
75,0.1233,1168.326
76,0.124967,1167.655
77,0.126633,1166.314
78,0.1283,1166.314
79,0.129967,1166.388
80,0.131633,1169.145
81,0.1333,1173.168
82,0.134967,1173.168
83,0.136633,1173.392
84,0.1383,1173.913
85,0.139967,1170.71
86,0.141633,1170.71
87,0.1433,1168.922
88,0.144967,1168.251
89,0.1467,1167.58
90,0.1483,1167.58
91,0.149967,1167.357
92,0.151667,1164.824
93,0.1533,1164.824
94,0.154967,1163.855
95,0.156633,1165.271
96,0.1583,1167.953
97,0.159967,1167.953
98,0.161633,1170.039
99,0.163367,1173.839
100,0.164967,1176
101,0.166633,1176
102,0.1683,1173.839
103,0.169967,1174.584
104,0.171617,1173.243
105,0.173283,1173.243
106,0.17495,1172.945
107,0.1766,1172.945
108,0.178267,1172.945
109,0.180033,1171.008
110,0.1816,1169.294
111,0.183267,1169.369
112,0.184933,1169.369
113,0.1866,1169.667
114,0.188267,1168.922
115,0.189933,1170.188
116,0.1916,1170.188
117,0.193267,1169.816
118,0.194933,1169.294
119,0.1967,1170.188
120,0.198267,1170.188
121,0.19995,1168.624
122,0.2016,1168.996
123,0.203267,1171.902
124,0.204933,1171.902
125,0.2066,1171.753
126,0.208267,1171.902
127,0.209933,1171.902
128,0.2116,1168.102
129,0.213267,1165.42
130,0.214933,1166.388
131,0.2166,1166.388
132,0.218267,1165.569
133,0.219933,1167.357
134,0.2216,1167.58
135,0.223267,1167.58
136,0.224933,1166.463
137,0.2266,1166.314
138,0.2283,1167.357
139,0.229933,1167.357
140,0.2316,1167.432
141,0.233267,1170.486
142,0.234933,1170.486
143,0.236583,1172.572
144,0.23825,1169.22
145,0.239917,1169.741
146,0.241583,1169.741
147,0.24325,1166.91
148,0.244917,1165.643
149,0.246583,1167.357
150,0.24825,1167.357
151,0.249917,1166.314
152,0.251583,1166.612
153,0.25325,1167.58
154,0.254917,1167.58
155,0.256583,1170.561
156,0.25825,1171.753
157,0.259917,1171.678
158,0.261583,1171.678
159,0.263267,1169.89
160,0.264933,1168.698
161,0.266583,1168.698
162,0.26825,1168.027
163,0.269917,1169.667
164,0.271583,1169.965
165,0.273283,1169.965
166,0.274917,1167.879
167,0.276583,1169.667
168,0.27825,1171.008
169,0.279917,1171.008
170,0.281683,1174.435
171,0.28325,1176.67
172,0.284917,1173.615
173,0.286583,1173.615
174,0.28825,1172.945
175,0.289917,1170.933
176,0.291583,1170.933
177,0.29325,1171.38
178,0.294917,1175.478
179,0.296583,1172.796
180,0.298317,1172.796
181,0.299917,1171.38
182,0.301617,1171.157
183,0.303233,1169.89
184,0.3049,1169.89
185,0.306567,1171.604
186,0.308233,1174.584
187,0.3099,1173.913
188,0.311567,1173.913
189,0.313233,1174.36
190,0.314917,1173.019
191,0.316567,1173.019
192,0.318233,1171.455
193,0.3199,1169.965
194,0.321567,1170.337
195,0.323233,1170.337
196,0.3249,1172.2
197,0.326567,1170.412
198,0.328233,1169.89
199,0.3299,1169.89
200,0.331567,1170.114
201,0.333233,1170.859
202,0.3349,1172.498
203,0.336567,1172.498
204,0.338233,1174.286
205,0.3399,1173.615
206,0.341567,1173.541
207,0.343233,1173.541
208,0.3449,1171.008
209,0.346567,1170.337
210,0.348233,1170.337
211,0.3499,1171.306
212,0.351567,1171.157
213,0.353233,1174.51
214,0.3549,1174.51
215,0.35655,1175.404
216,0.358217,1173.392
217,0.3599,1170.784
218,0.3616,1170.784
219,0.363217,1171.306
220,0.364883,1174.063
221,0.36655,1174.659
222,0.368217,1174.659
223,0.369883,1175.553
224,0.371583,1172.498
225,0.373217,1172.498
226,0.374883,1171.082
227,0.37655,1170.933
228,0.378217,1173.243
229,0.379883,1173.243
230,0.38155,1176.223
231,0.383217,1176.894
232,0.384883,1182.631
233,0.38655,1182.631
234,0.388217,1185.76
235,0.389883,1188.517
236,0.39155,1193.583
237,0.393217,1193.583
238,0.394883,1194.477
239,0.39655,1197.83
240,0.398217,1202.822
241,0.39995,1202.822
242,0.40155,1206.026
243,0.403217,1211.464
244,0.404883,1211.464
245,0.40655,1218.393
246,0.408217,1227.483
247,0.409883,1237.69
248,0.41155,1237.69
249,0.413217,1249.76
250,0.414883,1263.097
251,0.416583,1277.477
252,0.4182,1277.477
253,0.419867,1294.166
254,0.421533,1314.58
255,0.4232,1338.05
256,0.424867,1338.05
257,0.426533,1363.68
258,0.4282,1397.282
259,0.429867,1397.282
260,0.431533,1434.982
261,0.4333,1478.642
262,0.434867,1531.467
263,0.436533,1531.467
264,0.4382,1589.73
265,0.439867,1662.746
266,0.441533,1754.165
267,0.4432,1754.165
268,0.444867,1869.649
269,0.446567,2022.684
270,0.448217,2223.03
271,0.449867,2223.03
272,0.451533,2485.067
273,0.4532,2833.754
274,0.454867,3289.58
275,0.456533,3289.58
276,0.4582,3882.87
277,0.459867,4654.303
278,0.461533,4654.303
279,0.463183,5640.164
280,0.46485,6889.179
281,0.466517,8453.802
282,0.468183,8453.802
283,0.46985,10393.485
284,0.471517,12775.883
285,0.473183,15678.033
286,0.47485,15678.033
287,0.476517,19186.213
288,0.478167,23397.432
289,0.479833,28407.648
290,0.4815,28407.648
291,0.483167,34290.254
292,0.484833,41101.203
293,0.4865,41101.203
294,0.488167,48848.242
295,0.489833,57502.91
296,0.4915,67001.06299999999
297,0.493167,67001.06299999999
298,0.494833,77235.031
299,0.4965,88075.625
300,0.498167,99363.773
301,0.499833,99363.773
302,0.5014999999999999,110924.617
303,0.503167,122573.672
304,0.504833,134116.641
305,0.5065,134116.641
306,0.508167,145367.688
307,0.509833,156144.875
308,0.5115,156144.875
309,0.513167,166274.156
310,0.514833,175597.672
311,0.5165,183975.406
312,0.518267,183975.406
313,0.519833,191292.984
314,0.5215,197463.328
315,0.523167,202422.516
316,0.524833,202422.516
317,0.5265,206136.547
318,0.5281670000000001,208592.109
319,0.529833,209803.734
320,0.5315,209803.734
321,0.5331669999999999,209801.938
322,0.53485,208645.984
323,0.536483,206404.547
324,0.53815,206404.547
325,0.539817,203176.656
326,0.541483,199088.531
327,0.54315,199088.531
328,0.544817,194248.406
329,0.5464830000000001,188773.578
330,0.54815,182770.781
331,0.549817,182770.781
332,0.551617,176338.188
333,0.55315,169577.219
334,0.554817,162597.594
335,0.5564829999999999,162597.594
336,0.55815,155485.578
337,0.559817,148322.656
338,0.561483,141178.672
339,0.56315,141178.672
340,0.564817,134109.781
341,0.566483,127170.008
342,0.56815,127170.008
343,0.569817,120401.234
344,0.571483,113841.367
345,0.57315,107517.242
346,0.574817,107517.242
347,0.576483,101448.227
348,0.5781500000000001,95647.20299999999
349,0.579817,90125.42999999999
350,0.581483,90125.42999999999
351,0.5831499999999999,84883.5
352,0.584817,79923.867
353,0.586483,75244.156
354,0.58815,75244.156
355,0.5898330000000001,70833.93799999999
356,0.5915,66689.25
357,0.59315,62800.199
358,0.5948,62800.199
359,0.596467,59155.598
360,0.598133,55744.945
361,0.5998,55744.945
362,0.601467,52554.234
363,0.603133,49573.406
364,0.6048,46791.582
365,0.606467,46791.582
366,0.608133,44196.918
367,0.6098,41777.938
368,0.611467,39521.309
369,0.613133,39521.309
370,0.6148,37412.27
371,0.616467,35446.137
372,0.618133,33613.668
373,0.6198,33613.668
374,0.621467,31905.324
375,0.623133,30313.506
376,0.6248,30313.506
377,0.626467,28824.582
378,0.6281330000000001,27433.709
379,0.6298,26128.441
380,0.631467,26128.441
381,0.6331329999999999,24905.727
382,0.6348,23760.051
383,0.636467,22684.037
384,0.638133,22684.037
385,0.6398,21675.602
386,0.641467,20728.186
387,0.643133,19834.936
388,0.6448,19834.936
389,0.646467,18995.627
390,0.648133,18206.313
391,0.6498,17456.934
392,0.651467,17456.934
393,0.653183,16752.332
394,0.6548,16082.749
395,0.65645,16082.749
396,0.658117,15445.202
397,0.659783,14845.804
398,0.66145,14276.505
399,0.663167,14276.505
400,0.6648500000000001,13735.518
401,0.666467,13221.278
402,0.668117,12733.489
403,0.669883,12733.489
404,0.67145,12269.021
405,0.673117,11826.902
406,0.674783,11404.977
407,0.67645,11404.977
408,0.678117,11002.049
409,0.679783,10618.344
410,0.68145,10618.344
411,0.683117,10249.987
412,0.684783,9900.778
413,0.68645,9566.546
414,0.688117,9566.546
415,0.689783,9246.021000000001
416,0.69145,8940.026
417,0.693117,8644.387000000001
418,0.694783,8644.387000000001
419,0.69645,8363.798000000001
420,0.698117,8096.099
421,0.699783,7840.097
422,0.70145,7840.097
423,0.703117,7598.549
424,0.704783,7360.578
425,0.70645,7132.068
426,0.708117,7132.068
427,0.7097830000000001,6912.276
428,0.71145,6700.083
429,0.713117,6700.083
430,0.7147829999999999,6500.408
431,0.716467,6307.662
432,0.7181,6122.887
433,0.719767,6122.887
434,0.721433,5947.575
435,0.7231,5775.392
436,0.7247670000000001,5611.107
437,0.726433,5611.107
438,0.7281,5453.303
439,0.729833,5299.821
440,0.731433,5153.045
441,0.7331,5153.045
442,0.7347669999999999,5011.633
443,0.736433,4876.777
444,0.738117,4876.777
445,0.739767,4744.977
446,0.741433,4622.042
447,0.7431,4500.97
448,0.744767,4500.97
449,0.746433,4385.784
450,0.7481,4276.261
451,0.749767,4167.631
452,0.751433,4167.631
453,0.7530829999999999,4065.335
454,0.754817,3963.709
455,0.756417,3867.447
456,0.758083,3867.447
457,0.75975,3775.507
458,0.761417,3683.567
459,0.763083,3683.567
460,0.76475,3599.599
461,0.766417,3518.611
462,0.768083,3439.188
463,0.76975,3439.188
464,0.771417,3368.333
465,0.773083,3297.701
466,0.77475,3225.282
467,0.776417,3225.282
468,0.778067,3156.14
469,0.779733,3087.968
470,0.7814,3021.956
471,0.783067,3021.956
472,0.784733,2963.319
473,0.7864,2905.503
474,0.7882,2847.984
475,0.789733,2847.984
476,0.7914,2792.627
477,0.793067,2739.504
478,0.794733,2739.504
479,0.7964,2689.213
480,0.798067,2641.603
481,0.799733,2595.112
482,0.8014,2595.112
483,0.803067,2546.981
484,0.80475,2502.352
485,0.80645,2460.554
486,0.808067,2460.554
487,0.809733,2420.619
488,0.8114,2383.59
489,0.813067,2348.498
490,0.814733,2348.498
491,0.8164,2313.778
492,0.818067,2278.164
493,0.819733,2278.164
494,0.8214,2244.934
495,0.823067,2211.779
496,0.824733,2179.146
497,0.826433,2179.146
498,0.828067,2148.896
499,0.8297330000000001,2115.89
500,0.8314,2083.331
501,0.833067,2083.331
502,0.834717,2056.733
503,0.836383,2028.421
504,0.83805,2004.206
505,0.839717,2004.206
506,0.8414,1982.525
507,0.84305,1957.119
508,0.8447170000000001,1939.014
509,0.846383,1939.014
510,0.84805,1919.344
511,0.8497169999999999,1898.259
512,0.851383,1898.259
513,0.85305,1877.174
514,0.8547169999999999,1853.779
515,0.856383,1836.196
516,0.85805,1836.196
517,0.859717,1816.154
518,0.861383,1799.837
519,0.86305,1781.508
520,0.864717,1781.508
521,0.866383,1760.572
522,0.86805,1745.298
523,0.869717,1730.397
524,0.871417,1730.397
525,0.873117,1716.986
526,0.874717,1702.756
527,0.876383,1702.756
528,0.87805,1688.451
529,0.879717,1673.773
530,0.881383,1662.597
531,0.88305,1662.597
532,0.884717,1648.813
533,0.886383,1634.881
534,0.88805,1620.874
535,0.889717,1620.874
536,0.891383,1607.016
537,0.89305,1599.938
538,0.894717,1590.625
539,0.896367,1590.625
540,0.898033,1581.758
541,0.8997000000000001,1573.339
542,0.901367,1573.339
543,0.903033,1562.759
544,0.9046999999999999,1554.191
545,0.9065,1544.505
546,0.908033,1544.505
547,0.9097,1534.224
548,0.911367,1523.793
549,0.913033,1515.448
550,0.9147,1515.448
551,0.916367,1505.837
552,0.918033,1497.641
553,0.9197,1488.552
554,0.921383,1488.552
555,0.923033,1480.728
556,0.9247,1474.544
557,0.9263670000000001,1467.168
558,0.928033,1467.168
559,0.9297,1462.698
560,0.9313669999999999,1457.11
561,0.933033,1457.11
562,0.9347,1452.044
563,0.9363669999999999,1448.244
564,0.938033,1443.922
565,0.9397,1443.922
566,0.941367,1438.782
567,0.943033,1435.205
568,0.9447,1427.978
569,0.946367,1427.978
570,0.948033,1421.198
571,0.9497,1415.387
572,0.951367,1408.011
573,0.953033,1408.011
574,0.9547,1405.999
575,0.95635,1402.274
576,0.958017,1402.274
577,0.959683,1395.643
578,0.96135,1391.694
579,0.963017,1387.82
580,0.964683,1387.82
581,0.96635,1384.914
582,0.968017,1385.063
583,0.969683,1379.848
584,0.97135,1379.848
585,0.973017,1374.185
586,0.974683,1370.087
587,0.9763500000000001,1364.425
588,0.978017,1364.425
589,0.979683,1361.296
590,0.9813499999999999,1356.453
591,0.983017,1352.131
592,0.984683,1352.131
593,0.9863499999999999,1347.735
594,0.988017,1345.947
595,0.989683,1345.947
596,0.991417,1342.669
597,0.993017,1338.199
598,0.994683,1336.858
599,0.99635,1336.858
600,0.998017,1333.952
601,0.999683,1333.579
602,1.0014,1333.207
603,1.003017,1333.207
604,1.004683,1331.344
605,1.00635,1327.47
606,1.008067,1324.639
607,1.009683,1324.639
608,1.01135,1323.67
609,1.01305,1320.541
610,1.014683,1320.541
611,1.016333,1321.807
612,1.018,1320.019
613,1.019667,1316.741
614,1.021333,1316.741
615,1.023,1312.345
616,1.024767,1308.471
617,1.026333,1305.863
618,1.028,1305.863
619,1.029667,1304.522
620,1.031333,1305.044
621,1.033,1304.82
622,1.034667,1304.82
623,1.036333,1302.361
624,1.038,1299.605
625,1.039667,1299.009
626,1.041433,1299.009
627,1.043,1296.476
628,1.04465,1295.805
629,1.046317,1295.805
630,1.047983,1296.699
631,1.04965,1296.252
632,1.051317,1293.868
633,1.052983,1293.868
634,1.05465,1291.856
635,1.056317,1290.366
636,1.057983,1288.205
637,1.05965,1288.205
638,1.061317,1288.652
639,1.062983,1286.268
640,1.06465,1281.5
641,1.066317,1281.5
642,1.067983,1276.88
643,1.06965,1270.622
644,1.071317,1270.622
645,1.072983,1270.547
646,1.07465,1267.791
647,1.0763,1267.791
648,1.077967,1267.791
649,1.079633,1270.92
650,1.0813,1271.218
651,1.082967,1273.826
652,1.084633,1273.826
653,1.086367,1272.783
654,1.087967,1268.759
655,1.089633,1265.556
656,1.0913,1265.556
657,1.092967,1262.948
658,1.094633,1261.905
659,1.0963,1261.905
660,1.097967,1261.458
661,1.099633,1259.521
662,1.1013,1261.309
663,1.102967,1261.309
664,1.104633,1264.289
665,1.1063,1265.332
666,1.107967,1268.238
667,1.109633,1268.238
668,1.1113,1265.407
669,1.112967,1263.469
670,1.114633,1261.234
671,1.1163,1261.234
672,1.117967,1255.423
673,1.119633,1253.858
674,1.1213,1251.027
675,1.122967,1251.027
676,1.124633,1249.686
677,1.126383,1252.368
678,1.127967,1252.368
679,1.129633,1252.517
680,1.1313,1253.188
681,1.132967,1253.784
682,1.134633,1253.784
683,1.136283,1251.698
684,1.13795,1248.345
685,1.139617,1245.141
686,1.141283,1245.141
687,1.143017,1246.78
688,1.144617,1245.812
689,1.146283,1248.941
690,1.14795,1248.941
691,1.149617,1250.803
692,1.151283,1246.557
693,1.15295,1246.557
694,1.154617,1247.302
695,1.156283,1245.812
696,1.15795,1243.427
697,1.15975,1243.427
698,1.161317,1243.129
699,1.16295,1240
700,1.164617,1239.33
701,1.166283,1239.33
702,1.16795,1240.894
703,1.169617,1242.31
704,1.171283,1243.204
705,1.17295,1243.204
706,1.174617,1242.906
707,1.176283,1239.926
708,1.17795,1237.989
709,1.179617,1237.989
710,1.181283,1238.361
711,1.18295,1236.796
712,1.184617,1236.796
713,1.186283,1236.424
714,1.18795,1237.765
715,1.189617,1236.126
716,1.191283,1236.126
717,1.19295,1236.2
718,1.194617,1233.667
719,1.196267,1231.432
720,1.197933,1231.432
721,1.1996,1232.773
722,1.201267,1229.718
723,1.202933,1232.251
724,1.2046,1232.251
725,1.206267,1230.165
726,1.207933,1227.036
727,1.2096,1227.036
728,1.211267,1229.346
729,1.212933,1229.569
730,1.2146,1232.55
731,1.216267,1232.55
732,1.217933,1232.251
733,1.2196,1232.028
734,1.221267,1232.028
735,1.222933,1232.028
736,1.2246,1228.824
737,1.226283,1229.197
738,1.227933,1227.185
739,1.229617,1227.185
740,1.231267,1223.013
741,1.232933,1224.279
742,1.2346,1226.366
743,1.236267,1226.366
744,1.237933,1225.173
745,1.2396,1228.675
746,1.241267,1228.675
747,1.242933,1226.142
748,1.2446,1224.577
749,1.246267,1223.832
750,1.247933,1223.832
751,1.2496,1219.586
752,1.251267,1219.213
753,1.252933,1219.437
754,1.254583,1219.437
755,1.25625,1220.778
756,1.257917,1222.268
757,1.259583,1222.342
758,1.2613,1222.342
759,1.262917,1223.907
760,1.264583,1222.491
761,1.26625,1222.491
762,1.267917,1221.374
763,1.269583,1223.758
764,1.27125,1220.405
765,1.272917,1220.405
766,1.274583,1220.331
767,1.27625,1220.256
768,1.278017,1217.276
769,1.279583,1217.276
770,1.28125,1214.966
771,1.282917,1215.637
772,1.284583,1216.158
773,1.28625,1216.158
774,1.287917,1216.903
775,1.289583,1218.17
776,1.29125,1215.786
777,1.292917,1215.786
778,1.294583,1213.327
779,1.29625,1212.135
780,1.297933,1212.135
781,1.299583,1211.986
782,1.30125,1211.837
783,1.302917,1215.339
784,1.304583,1215.339
785,1.306267,1218.468
786,1.307917,1219.287
787,1.309583,1221.374
788,1.31125,1221.374
789,1.312917,1219.362
790,1.314583,1214.147
791,1.316233,1212.582
792,1.3179,1212.582
793,1.319583,1209.9
794,1.321283,1209.527
795,1.3229,1209.527
796,1.324567,1209.602
797,1.326233,1210.645
798,1.3279,1213.402
799,1.329567,1213.402
800,1.331233,1210.645
801,1.3329,1210.943
802,1.334567,1212.209
803,1.336217,1212.209
804,1.337883,1209.304
805,1.33955,1208.857
806,1.341217,1208.782
807,1.342883,1208.782
808,1.34455,1205.206
809,1.346217,1204.684
810,1.347883,1204.684
811,1.34955,1208.782
812,1.351217,1211.017
813,1.352883,1213.551
814,1.35455,1213.551
815,1.356217,1215.041
816,1.357883,1214.445
817,1.35955,1214.147
818,1.361217,1214.147
819,1.3629,1211.39
820,1.36455,1211.39
821,1.366217,1207.888
822,1.367883,1207.888
823,1.36955,1205.057
824,1.371217,1205.653
825,1.372883,1204.535
826,1.374533,1204.535
827,1.3762,1204.163
828,1.377867,1205.057
829,1.3796,1205.057
830,1.3812,1207.739
831,1.382867,1210.123
832,1.384533,1211.911
833,1.3862,1211.911
834,1.387867,1210.421
835,1.389533,1205.355
836,1.3912,1201.555
837,1.392867,1201.555
838,1.394533,1201.034
839,1.396217,1200.736
840,1.397867,1204.535
841,1.399533,1204.535
842,1.4012,1204.908
843,1.402867,1204.386
844,1.404533,1204.386
845,1.4062,1204.461
846,1.407867,1201.257
847,1.409533,1201.704
848,1.4112,1201.704
849,1.412917,1202.226
850,1.414533,1203.939
851,1.4162,1204.163
852,1.417867,1204.163
853,1.419533,1202.747
854,1.4212,1201.555
855,1.422867,1200.661
856,1.424533,1200.661
857,1.4262,1204.386
858,1.427867,1208.112
859,1.429533,1207.665
860,1.4312,1207.665
861,1.432867,1204.833
862,1.434533,1200.661
863,1.436183,1200.661
864,1.43785,1197.457
865,1.439517,1197.755
866,1.441183,1199.245
867,1.44285,1199.245
868,1.444517,1199.469
869,1.446183,1199.767
870,1.44785,1201.257
871,1.449533,1201.257
872,1.451233,1201.034
873,1.45285,1204.088
874,1.454517,1203.567
875,1.456183,1203.567
876,1.45785,1200.736
877,1.459517,1201.406
878,1.461183,1201.406
879,1.46285,1198.798
880,1.464517,1200.363
881,1.466183,1202.449
882,1.46785,1202.449
883,1.469517,1203.12
884,1.471183,1202.598
885,1.472867,1201.108
886,1.474517,1201.108
887,1.476183,1201.034
888,1.47785,1200.661
889,1.479517,1201.108
890,1.481233,1201.108
891,1.48285,1203.939
892,1.484517,1203.865
893,1.486183,1202.598
894,1.48785,1202.598
895,1.489517,1201.034
896,1.491183,1197.085
897,1.49285,1197.085
898,1.49455,1198.053
899,1.496167,1199.767
900,1.497833,1200.885
901,1.4995,1200.885
902,1.501167,1203.567
903,1.502833,1200.885
904,1.5045,1199.096
905,1.506167,1199.096
906,1.507833,1197.606
907,1.5095,1193.881
908,1.511167,1194.552
909,1.512833,1194.552
910,1.5146,1196.042
