"ID","sea_time","fid_signal"
1,0,140.302
2,0.00165,140.302
3,0.00335,140.496
4,0.004983,140.518
5,0.00665,140.518
6,0.008317,140.488
7,0.009983000000000001,140.108
8,0.01165,139.84
9,0.013317,139.84
10,0.014983,139.527
11,0.01665,139.326
12,0.018317,139.773
13,0.019983,139.773
14,0.02165,140.116
15,0.023317,140.533
16,0.024983,140.794
17,0.02665,140.794
18,0.028317,140.779
19,0.029983,140.667
20,0.03165,140.63
21,0.033317,140.63
22,0.035017,140.689
23,0.03665,140.488
24,0.038317,140.488
25,0.039983,140.496
26,0.04165,140.451
27,0.043317,140.421
28,0.044983,140.421
29,0.04665,140.689
30,0.048317,140.421
31,0.049983,140.376
32,0.05165,140.376
33,0.053317,140.108
34,0.054983,139.654
35,0.05665,139.855
36,0.058317,139.855
37,0.059983,139.832
38,0.06165,139.959
39,0.0633,139.959
40,0.064967,140.25
41,0.066633,140.063
42,0.06841700000000001,139.914
43,0.069967,139.914
44,0.071633,140.16
45,0.0733,140.145
46,0.07496700000000001,140.242
47,0.07663300000000001,140.242
48,0.078317,140.175
49,0.08005,139.713
50,0.08165,139.587
51,0.0833,139.587
52,0.084967,139.43
53,0.086633,139.475
54,0.0883,139.579
55,0.08996700000000001,139.579
56,0.091617,139.467
57,0.093283,139.445
58,0.09495000000000001,139.445
59,0.09661699999999999,139.378
60,0.098283,139.587
61,0.09995,139.765
62,0.101617,139.765
63,0.103283,139.78
64,0.10495,140.004
65,0.106617,139.765
66,0.108283,139.765
67,0.10995,139.847
68,0.111617,140.063
69,0.113283,140.116
70,0.11495,140.116
71,0.116617,140.361
72,0.118283,140.436
73,0.11995,140.436
74,0.121617,140.332
75,0.123267,140.369
76,0.124933,140.25
77,0.1266,140.25
78,0.128267,140.145
79,0.129933,140.242
80,0.1316,140.458
81,0.133267,140.458
82,0.134933,140.324
83,0.1366,140.332
84,0.138267,140.309
85,0.13995,140.309
86,0.1416,139.803
87,0.1433,139.736
88,0.144933,139.736
89,0.1466,139.631
90,0.148267,139.669
91,0.149933,139.758
92,0.1516,139.758
93,0.153333,139.832
94,0.154933,140.175
95,0.1566,140.108
96,0.158267,140.108
97,0.159933,140.145
98,0.1616,140.205
99,0.163267,140.235
100,0.164933,140.235
101,0.1666,140.294
102,0.168267,140.622
103,0.169933,140.816
104,0.1716,140.816
105,0.173267,140.488
106,0.174933,140.563
107,0.1766,140.563
108,0.178267,140.287
109,0.179933,140.227
110,0.181583,140.257
111,0.18325,140.257
112,0.184917,140.332
113,0.186717,140.421
114,0.18825,140.339
115,0.189917,140.339
116,0.191583,140.518
117,0.19325,140.309
118,0.194917,140.525
119,0.196583,140.525
120,0.19825,140.533
121,0.199917,140.391
122,0.201583,140.391
123,0.20325,140.138
124,0.204917,139.84
125,0.206583,139.751
126,0.20825,139.751
127,0.209917,139.534
128,0.211583,139.691
129,0.21325,139.862
130,0.214917,139.862
131,0.216583,140.19
132,0.218267,140.436
133,0.219917,140.302
134,0.221617,140.302
135,0.22325,140.242
136,0.224917,140.093
137,0.226583,140.361
138,0.22825,140.361
139,0.229917,140.712
140,0.231583,140.652
141,0.23325,140.652
142,0.234917,140.689
143,0.236583,140.503
144,0.23825,140.503
145,0.239917,140.503
146,0.241567,140.704
147,0.243233,140.898
148,0.2449,140.95
149,0.246567,140.95
150,0.248233,141.054
151,0.2499,141.084
152,0.251567,141.025
153,0.253233,141.025
154,0.2549,140.913
155,0.256583,140.853
156,0.258233,140.853
157,0.2599,140.376
158,0.261567,140.235
159,0.263233,140.026
160,0.2649,140.026
161,0.266567,140.011
162,0.268233,140.637
163,0.2699,140.652
164,0.271617,140.652
165,0.273233,140.689
166,0.2749,140.592
167,0.276567,140.175
168,0.278233,140.175
169,0.2799,140.168
170,0.281567,140.22
171,0.283233,140.205
172,0.2849,140.205
173,0.286567,140.145
174,0.288317,140.026
175,0.289917,140.026
176,0.291633,140.138
177,0.293233,140.332
178,0.2949,140.347
179,0.296567,140.347
180,0.298233,140.376
181,0.2999,140.369
182,0.30155,139.944
183,0.303217,139.944
184,0.305,139.952
185,0.30655,140.026
186,0.308217,140.004
187,0.309883,140.004
188,0.31155,140.324
189,0.313217,140.674
190,0.314883,140.674
191,0.31655,140.674
192,0.318217,140.578
193,0.319883,140.488
194,0.32165,140.488
195,0.323217,140.332
196,0.324883,140.205
197,0.32655,140.16
198,0.328217,140.16
199,0.329883,139.974
200,0.33155,139.751
201,0.333217,139.81
202,0.334883,139.81
203,0.33655,140.19
204,0.338217,140.458
205,0.339883,140.458
206,0.34155,140.563
207,0.343217,140.6
208,0.344883,140.198
209,0.34655,140.198
210,0.348217,140.309
211,0.349883,140.667
212,0.35155,140.727
213,0.353217,140.727
214,0.354883,140.898
215,0.35655,140.741
216,0.358217,140.376
217,0.359867,140.376
218,0.361533,140.175
219,0.363233,140.198
220,0.3649,139.907
221,0.366583,139.907
222,0.36825,139.959
223,0.369867,140.034
224,0.371533,140.034
225,0.3732,139.832
226,0.374867,140.026
227,0.376533,139.907
228,0.3782,139.907
229,0.379867,140.22
230,0.381533,140.6
231,0.383183,140.533
232,0.38485,140.533
233,0.386517,140.563
234,0.388183,140.354
235,0.3899,140.376
236,0.391517,140.376
237,0.393183,140.809
238,0.39485,141.263
239,0.396517,141.263
240,0.398183,141.434
241,0.39985,141.352
242,0.401517,141.233
243,0.403183,141.233
244,0.40485,141.092
245,0.406583,141.196
246,0.408183,141.434
247,0.40985,141.434
248,0.411517,141.844
249,0.413183,142.358
250,0.41485,142.813
251,0.416517,142.813
252,0.418183,143.111
253,0.419833,143.26
254,0.4215,143.349
255,0.423283,143.349
256,0.424833,143.379
257,0.4265,143.923
258,0.428167,143.923
259,0.429833,144.176
260,0.431517,144.541
261,0.433167,145.324
262,0.434833,145.324
263,0.4365,145.689
264,0.438167,146.247
265,0.4399,146.709
266,0.441517,146.709
267,0.4432,147.201
268,0.444833,147.752
269,0.4465,148.252
270,0.448167,148.252
271,0.449833,148.758
272,0.4515,149.079
273,0.453167,149.079
274,0.454833,149.548
275,0.4565,149.935
276,0.458167,150.539
277,0.459833,150.539
278,0.4615,150.904
279,0.463167,150.971
280,0.464833,151.306
281,0.4665,151.306
282,0.468167,151.12
283,0.469833,151.202
284,0.4715,151.098
285,0.473167,151.098
286,0.474833,151.165
287,0.4765,151.262
288,0.478167,151.262
289,0.479833,151.023
290,0.481483,151.262
291,0.48315,150.882
292,0.484817,150.882
293,0.486483,150.725
294,0.48815,150.405
295,0.489817,150.003
296,0.491483,150.003
297,0.49315,149.69
298,0.494817,149.347
299,0.496483,149.071
300,0.49815,149.071
301,0.499817,148.714
302,0.501483,148.594
303,0.50315,148.006
304,0.504817,148.006
305,0.506483,147.521
306,0.5082,147.104
307,0.509817,147.104
308,0.511483,146.821
309,0.51315,146.635
310,0.514817,146.568
311,0.516517,146.568
312,0.51815,146.173
313,0.519817,145.584
314,0.521483,145.525
315,0.52315,145.525
316,0.52485,145.309
317,0.526483,145.115
318,0.52815,144.884
319,0.529817,144.884
320,0.531483,144.489
321,0.53315,143.968
322,0.534817,143.968
323,0.536483,143.558
324,0.53815,143.185
325,0.539817,142.671
326,0.541533,142.671
327,0.543133,142.545
328,0.5448,142.53
329,0.546467,142.507
330,0.548133,142.507
331,0.5498,142.381
332,0.551467,142.269
333,0.553133,142.023
334,0.5548,142.023
335,0.556467,141.986
336,0.55825,142.06
337,0.5598,142.135
338,0.561467,142.135
339,0.563133,142.261
340,0.5648,142.381
341,0.5664670000000001,142.381
342,0.568133,142.194
343,0.5698,141.911
344,0.5714669999999999,141.628
345,0.573133,141.628
346,0.5748,141.509
347,0.576467,141.68
348,0.578133,141.829
349,0.5798,141.829
350,0.581467,142.157
351,0.583133,141.963
352,0.5848,142.03
353,0.586483,142.03
354,0.588133,142.112
355,0.5898,141.889
356,0.591467,141.889
357,0.593133,142.075
358,0.5948,141.859
359,0.596467,141.606
360,0.598133,141.606
361,0.5998,141.524
362,0.60145,141.568
363,0.603117,141.628
364,0.604783,141.628
365,0.606483,141.568
366,0.608117,141.568
367,0.609783,141.203
368,0.61145,141.203
369,0.613117,141.442
370,0.614783,141.449
371,0.6164500000000001,141.472
372,0.618117,141.472
373,0.619783,141.464
374,0.6214499999999999,141.338
375,0.623117,141.338
376,0.624783,141.39
377,0.62645,141.487
378,0.628117,141.308
379,0.629783,141.308
380,0.63145,141.36
381,0.633117,141.636
382,0.634783,141.688
383,0.63645,141.688
384,0.638117,142.016
385,0.639783,142.112
386,0.64145,141.926
387,0.6432,141.926
388,0.644783,141.747
389,0.64645,141.807
390,0.6481170000000001,141.807
391,0.649783,141.412
392,0.65145,141.241
393,0.6531169999999999,140.95
394,0.654783,140.95
395,0.65645,140.682
396,0.658117,140.846
397,0.659867,141.002
398,0.661433,141.002
399,0.6631,141.248
400,0.664767,141.3
401,0.6664330000000001,141.174
402,0.6681,141.174
403,0.669767,141.181
404,0.6714329999999999,141.159
405,0.6731,141.397
406,0.67475,141.397
407,0.6765330000000001,141.419
408,0.678083,141.189
409,0.67975,141.189
410,0.6814170000000001,141.375
411,0.683083,141.144
412,0.68475,141.054
413,0.6864170000000001,141.054
414,0.688083,141.338
415,0.68975,141.278
416,0.6914169999999999,141.449
417,0.693083,141.449
418,0.69475,141.74
419,0.6964669999999999,141.494
420,0.698083,141.487
421,0.69975,141.487
422,0.701417,141.583
423,0.703083,141.323
424,0.70475,141.323
425,0.706417,141.397
426,0.708083,141.405
427,0.70975,141.419
428,0.711417,141.419
429,0.713083,141.494
430,0.71475,141.338
431,0.716417,141.345
432,0.718083,141.345
433,0.71975,141.203
434,0.7214,141.203
435,0.723067,141.151
436,0.724733,141.151
437,0.7264,141.189
438,0.728067,141.099
439,0.72975,141.099
440,0.731433,141.002
441,0.733067,141.218
442,0.734733,141.33
443,0.7364000000000001,141.33
444,0.738067,141.315
445,0.739733,141.494
446,0.7413999999999999,141.583
447,0.743067,141.583
448,0.744733,141.397
449,0.7464,141.129
450,0.748067,140.958
451,0.749733,140.958
452,0.7514,140.928
453,0.753067,140.913
454,0.754733,141.248
455,0.7564,141.248
456,0.758067,141.367
457,0.759733,141.472
458,0.7614,141.472
459,0.7630670000000001,141.382
460,0.764733,141.39
461,0.7664,141.338
462,0.7680670000000001,141.338
463,0.769733,141.069
464,0.7714,141.025
465,0.7730669999999999,140.846
466,0.774767,140.846
467,0.7764,140.868
468,0.778067,140.786
469,0.779733,140.913
470,0.7814,140.913
471,0.78305,140.92
472,0.784717,140.883
473,0.7863830000000001,140.883
474,0.78805,141.3
475,0.789717,141.144
476,0.7913829999999999,141.233
477,0.79305,141.233
478,0.794833,141.159
479,0.796383,141.092
480,0.79805,141.039
481,0.799717,141.039
482,0.801383,141.129
483,0.803067,141.099
484,0.804717,140.555
485,0.806383,140.555
486,0.80805,140.399
487,0.809717,140.443
488,0.811383,140.533
489,0.8130500000000001,140.533
490,0.814717,140.779
491,0.816383,141.047
492,0.8180500000000001,141.047
493,0.819717,141.129
494,0.821383,141.129
495,0.8230499999999999,141.39
496,0.824717,141.39
497,0.826383,141.427
498,0.82805,141.181
499,0.829717,141.084
500,0.831383,141.084
501,0.83305,140.756
502,0.834717,140.406
503,0.836383,140.131
504,0.83805,140.131
505,0.839717,140.227
506,0.841367,140.399
507,0.843033,140.399
508,0.8447,140.816
509,0.846367,141.114
510,0.848033,141.3
511,0.8497,141.3
512,0.851367,141.211
513,0.853033,141.3
514,0.8547,141.576
515,0.856367,141.576
516,0.858033,141.419
517,0.8597,141.501
518,0.861383,141.323
519,0.8630330000000001,141.323
520,0.86475,141.218
521,0.866367,141.159
522,0.8680330000000001,140.898
523,0.8697,140.898
524,0.871367,141.084
525,0.8730329999999999,140.741
526,0.8747,140.741
527,0.876367,140.488
528,0.878033,140.51
529,0.879783,140.257
530,0.881367,140.257
531,0.883033,140.399
532,0.8847,140.481
533,0.886367,140.689
534,0.88805,140.689
535,0.8897,140.719
536,0.891367,140.816
537,0.893033,140.771
538,0.8947000000000001,140.771
539,0.896367,140.794
540,0.898033,140.615
541,0.8997000000000001,140.615
542,0.90135,140.287
543,0.903017,140.6
544,0.904683,140.317
545,0.90635,140.317
546,0.908017,140.302
547,0.909683,140.309
548,0.91135,140.272
549,0.913133,140.272
550,0.914683,140.749
551,0.91635,141.017
552,0.918017,141.211
553,0.919683,141.211
554,0.92135,140.89
555,0.923017,140.749
556,0.924683,140.749
557,0.92635,141.002
558,0.928017,141.01
559,0.929683,141.427
560,0.93135,141.427
561,0.933017,141.621
562,0.934683,141.434
563,0.93635,141.345
564,0.938017,141.345
565,0.939683,141.196
566,0.94135,140.935
567,0.943017,140.749
568,0.9446830000000001,140.749
569,0.94635,141.039
570,0.948017,140.987
571,0.9496830000000001,140.764
572,0.95135,140.764
573,0.953017,140.54
574,0.9546829999999999,140.123
575,0.95635,140.123
576,0.958017,140.145
577,0.959683,140.361
578,0.961333,140.645
579,0.963,140.645
580,0.9646670000000001,141.107
581,0.966317,141.345
582,0.967983,141.539
583,0.96965,141.539
584,0.971317,141.583
585,0.972983,141.39
586,0.97465,141.285
587,0.976317,141.285
588,0.977983,141.129
589,0.97965,141.099
590,0.981317,141.099
591,0.9829830000000001,141.084
592,0.98465,141.039
593,0.986317,140.838
594,0.9879829999999999,140.838
595,0.98965,140.429
596,0.991317,140.384
597,0.9929829999999999,140.265
598,0.99465,140.265
599,0.996317,140.451
600,0.9980329999999999,141.039
601,0.99965,140.972
602,1.001317,140.972
603,1.002983,141.01
604,1.00465,140.905
605,1.006317,140.637
606,1.007983,140.637
607,1.00965,140.741
608,1.011317,140.607
609,1.012983,140.607
610,1.01465,140.481
611,1.016317,140.518
612,1.017983,140.257
613,1.01965,140.257
614,1.0213,140.257
615,1.022967,140.54
616,1.024633,140.361
617,1.0263,140.361
618,1.027967,140.645
619,1.029633,140.697
620,1.031417,140.674
621,1.032967,140.674
622,1.034633,140.913
623,1.0363,140.838
624,1.037967,140.838
625,1.039633,140.838
626,1.0413,140.838
627,1.042967,140.846
628,1.044633,140.846
629,1.0463,140.749
630,1.047967,141.107
631,1.049633,141.308
632,1.0513,141.308
633,1.052967,141.412
634,1.054633,141.896
635,1.0563,141.576
636,1.057967,141.576
637,1.059633,141.263
638,1.0613,140.987
639,1.062983,140.488
640,1.064633,140.488
641,1.0663,140.555
642,1.067967,140.533
643,1.069633,140.533
644,1.0713,140.645
645,1.072967,140.652
646,1.074633,140.607
647,1.0763,140.607
648,1.077967,140.704
649,1.079633,141.017
650,1.0813,141.405
651,1.08295,141.405
652,1.08465,141.472
653,1.086283,141.591
654,1.08795,141.39
655,1.089617,141.39
656,1.091283,141.293
657,1.09295,141.367
658,1.094617,141.367
659,1.096283,141.278
660,1.09795,141.211
661,1.099617,141.405
662,1.101283,141.405
663,1.10295,141.442
664,1.104617,141.487
665,1.106283,141.576
666,1.10795,141.576
667,1.109617,141.449
668,1.111283,141.159
669,1.11295,140.987
670,1.114617,140.987
671,1.116317,140.972
672,1.11795,141.032
673,1.119617,141.032
674,1.121283,141.196
675,1.12295,141.062
676,1.124617,140.95
677,1.126283,140.95
678,1.12795,140.727
679,1.129617,140.943
680,1.131283,141.099
681,1.133033,141.099
682,1.134617,141.189
683,1.136283,141.159
684,1.13795,141.144
685,1.139617,141.144
686,1.141267,141.434
687,1.142933,141.457
688,1.1446,141.65
689,1.146267,141.65
690,1.147933,141.568
691,1.149733,141.419
692,1.151267,141.419
693,1.152933,141.442
694,1.1546,141.606
695,1.156267,141.919
696,1.157933,141.919
697,1.1596,142.008
698,1.161283,141.948
699,1.162933,142.008
700,1.1646,142.008
701,1.166267,141.74
702,1.167933,142.008
703,1.1696,142.328
704,1.171267,142.328
705,1.172933,142.179
706,1.1746,142.001
707,1.176267,142.001
708,1.177933,141.531
709,1.1796,141.539
710,1.181267,141.494
711,1.182933,141.494
712,1.184617,141.71
713,1.186267,142.075
714,1.187933,141.814
715,1.1896,141.814
716,1.191267,141.948
717,1.192933,142.097
718,1.1946,142.314
719,1.196267,142.314
720,1.197933,142.753
721,1.199583,142.902
722,1.201267,142.746
723,1.202917,142.746
724,1.204583,142.217
725,1.20625,142.15
726,1.207917,142.15
727,1.209583,141.956
728,1.21125,141.896
729,1.212917,142.038
730,1.214583,142.038
731,1.21625,141.717
732,1.217917,141.412
733,1.219583,141.636
734,1.22125,141.636
735,1.222917,141.867
736,1.224583,142.038
737,1.226267,142.433
738,1.227917,142.433
739,1.229583,142.604
740,1.23125,142.694
741,1.232917,142.694
742,1.2346,142.641
743,1.23625,142.694
744,1.237917,142.604
745,1.239583,142.604
746,1.24125,142.686
747,1.242917,143.103
748,1.244583,143.014
749,1.24625,143.014
750,1.247917,143.267
751,1.249583,143.386
752,1.251267,143.081
753,1.252917,143.081
754,1.254583,143.304
755,1.256233,143.126
756,1.2579,143.126
757,1.259567,142.88
758,1.261217,143.23
759,1.262883,143.372
760,1.26455,143.372
761,1.266217,143.319
762,1.267983,143.61
763,1.26955,143.655
764,1.271217,143.655
765,1.272917,143.483
766,1.27455,143.558
767,1.276217,143.461
768,1.277883,143.461
769,1.27955,143.208
770,1.281217,143.29
771,1.282883,143.357
772,1.284667,143.357
773,1.286217,143.372
774,1.287883,143.431
775,1.28955,143.431
776,1.291217,143.424
777,1.292883,143.595
778,1.29455,143.811
779,1.296217,143.811
780,1.297883,143.878
781,1.29955,144.161
782,1.301217,144.325
783,1.302883,144.325
784,1.30455,144.318
785,1.30625,144.206
786,1.307883,143.938
787,1.30955,143.938
788,1.311217,143.848
789,1.312883,143.819
790,1.31455,143.819
791,1.316217,143.99
792,1.317883,144.392
793,1.31955,144.504
794,1.321217,144.504
795,1.322867,144.571
796,1.324533,145.018
797,1.3262,145.115
798,1.327867,145.115
799,1.329533,145.197
800,1.3312,145.301
801,1.332867,145.011
802,1.334533,145.011
803,1.3362,144.877
804,1.337867,144.854
805,1.339533,145.145
806,1.3412,145.145
807,1.342867,145.599
808,1.344533,145.942
809,1.3462,145.942
810,1.347867,146.337
811,1.349533,146.136
812,1.3512,145.957
813,1.352883,145.957
814,1.354533,145.562
815,1.3562,145.413
816,1.357867,145.502
817,1.359533,145.502
818,1.3612,145.458
819,1.362867,145.86
820,1.364533,145.897
821,1.3662,145.897
822,1.367867,145.704
823,1.369583,145.674
824,1.3712,145.674
825,1.372867,145.584
826,1.374533,145.726
827,1.3762,145.964
828,1.3779,145.964
829,1.379533,146.292
830,1.381183,146.478
831,1.38285,146.486
832,1.384517,146.486
833,1.386233,146.843
834,1.38785,146.694
835,1.389517,146.56
836,1.391183,146.56
837,1.39285,146.747
838,1.394517,146.694
839,1.396183,146.985
840,1.39785,146.985
841,1.399517,147.32
842,1.401183,147.261
843,1.402967,147.201
844,1.404517,147.201
845,1.406183,147.559
846,1.40785,147.626
847,1.409517,147.626
848,1.411183,147.589
849,1.41285,147.708
850,1.414517,147.328
851,1.416183,147.328
852,1.41785,147.358
853,1.419517,147.41
854,1.421183,147.738
855,1.42285,147.738
856,1.424517,148.14
857,1.426183,148.311
858,1.42785,148.311
859,1.429517,148.371
860,1.431183,148.311
861,1.43285,148.073
862,1.434517,148.073
863,1.436183,147.82
864,1.43785,148.118
865,1.439517,148.401
866,1.441167,148.401
867,1.44285,148.974
868,1.44455,149.429
869,1.446167,149.608
870,1.447833,149.608
871,1.4495,149.496
872,1.451167,149.213
873,1.4529,148.974
874,1.4545,148.974
875,1.456167,148.892
876,1.457833,148.803
877,1.4595,148.803
878,1.461167,148.952
879,1.462833,149.265
880,1.4645,149.235
881,1.466183,149.235
882,1.467833,149.406
883,1.4695,149.362
884,1.471167,149.235
885,1.472833,149.235
886,1.4745,149.347
887,1.476167,149.257
888,1.477833,149.6
889,1.4795,149.6
890,1.481167,149.578
891,1.482833,149.697
892,1.4845,149.697
893,1.486167,150.003
894,1.48785,149.846
895,1.4895,150.368
896,1.491167,150.368
897,1.492833,150.807
898,1.4945,151.001
899,1.496167,151.075
900,1.497833,151.075
901,1.4995,150.897
902,1.50115,150.882
903,1.502817,150.792
904,1.504533,150.792
905,1.50615,151.128
906,1.507817,151.098
907,1.509483,151.098
908,1.51115,151.142
909,1.512817,151.388
910,1.514483,151.441
911,1.51615,151.441
912,1.517817,151.575
913,1.519483,151.373
914,1.521267,151.56
915,1.522817,151.56
916,1.5245,151.761
917,1.526217,152.357
918,1.527817,152.625
919,1.529483,152.625
920,1.53115,152.707
921,1.532817,152.677
922,1.534483,152.372
923,1.53615,152.372
924,1.537817,152.424
925,1.539483,152.513
926,1.54115,152.513
927,1.542817,152.767
928,1.544483,153.102
929,1.54615,153.154
930,1.5478,153.154
931,1.549467,153.184
932,1.551133,153.311
933,1.5528,153.527
934,1.554467,153.527
935,1.556133,153.683
936,1.5578,153.81
937,1.559467,153.802
938,1.561133,153.802
939,1.562783,153.527
940,1.56445,153.661
941,1.566117,153.661
942,1.567783,153.728
943,1.56945,153.914
944,1.571117,154.205
945,1.572783,154.205
946,1.57445,154.436
947,1.576117,154.562
948,1.577783,154.451
949,1.57945,154.451
950,1.581117,154.518
951,1.582783,154.51
952,1.58445,154.771
953,1.586117,154.771
954,1.587783,154.927
955,1.58945,154.994
956,1.591133,155.069
957,1.592783,155.069
958,1.59445,154.778
959,1.596117,154.875
960,1.597783,154.875
961,1.59945,155.032
