"ID","sea_time","fid_signal"
1,0,139.706
2,0.001667,139.557
3,0.003333,139.557
4,0.005,139.892
5,0.006667,140.205
6,0.008333,140.16
7,0.01,140.16
8,0.011667,139.907
9,0.013333,139.832
10,0.015,139.572
11,0.016783,139.572
12,0.018333,139.602
13,0.02,139.721
14,0.021667,139.385
15,0.023333,139.385
16,0.025,139.371
17,0.026667,139.706
18,0.028333,139.706
19,0.03,139.847
20,0.031667,139.937
21,0.033367,140.153
22,0.034983,140.153
23,0.03665,140.049
24,0.038317,140.078
25,0.039983,140.22
26,0.04165,140.22
27,0.043317,140.287
28,0.044983,140.548
29,0.04665,140.473
30,0.048317,140.473
31,0.049983,140.317
32,0.05165,140.406
33,0.053317,139.952
34,0.054983,139.952
35,0.056683,139.967
36,0.058317,140.332
37,0.059983,140.332
38,0.06165,140.026
39,0.063317,140.063
40,0.064983,139.922
41,0.06665,139.922
42,0.068317,139.616
43,0.069983,139.482
44,0.07165000000000001,139.393
45,0.07331699999999999,139.393
46,0.07498299999999999,139.639
47,0.07665,139.765
48,0.078317,139.832
49,0.079983,139.832
50,0.08165,140.131
51,0.083317,140.108
52,0.084983,140.108
53,0.08665,140.287
54,0.08831700000000001,140.712
55,0.08998299999999999,140.674
56,0.09165,140.674
57,0.09329999999999999,140.6
58,0.094967,140.265
59,0.096633,139.847
60,0.0983,139.847
61,0.099983,139.691
62,0.101717,139.885
63,0.1033,139.989
64,0.104967,139.989
65,0.106633,139.959
66,0.1083,139.907
67,0.109967,139.49
68,0.111633,139.49
69,0.1133,139.229
70,0.114967,139.423
71,0.116633,139.423
72,0.1183,139.549
73,0.119967,139.914
74,0.121633,140.376
75,0.1233,140.376
76,0.124967,140.287
77,0.126633,140.257
78,0.1283,140.287
79,0.129967,140.287
80,0.131633,140.19
81,0.1333,140.391
82,0.135067,140.54
83,0.13665,140.54
84,0.1383,140.175
85,0.139967,140.16
86,0.141633,140.16
87,0.1433,140.108
88,0.144967,139.892
89,0.146633,140.071
90,0.1483,140.071
91,0.149967,140.004
92,0.151633,139.996
93,0.153283,140.168
94,0.15495,140.168
95,0.156617,140.212
96,0.158283,140.138
97,0.15995,140.235
98,0.161617,140.235
99,0.163283,140.198
100,0.16495,140.108
101,0.166617,140.019
102,0.168283,140.019
103,0.16995,140.011
104,0.171617,139.982
105,0.1733,139.982
106,0.174983,140.041
107,0.176617,140.309
108,0.178283,140.153
109,0.17995,140.153
110,0.181617,140.034
111,0.183283,140.131
112,0.18495,139.937
113,0.186617,139.937
114,0.188283,140.235
115,0.18995,140.265
116,0.191617,140.093
117,0.193283,140.093
118,0.19495,140.198
119,0.196617,139.877
120,0.198283,139.877
121,0.199967,140.168
122,0.201617,140.309
123,0.203283,140.235
124,0.20495,140.235
125,0.206617,140.168
126,0.208283,139.847
127,0.20995,139.885
128,0.211617,139.885
129,0.213317,140.175
130,0.214933,140.309
131,0.2166,140.414
132,0.218267,140.414
133,0.219983,140.116
134,0.2216,139.721
135,0.223267,139.721
136,0.224933,139.691
137,0.2266,139.922
138,0.228267,140.041
139,0.229933,140.041
140,0.2316,140.049
141,0.233267,140.22
142,0.234933,140.198
143,0.2366,140.198
144,0.238267,140.116
145,0.239933,140.369
146,0.2416,140.361
147,0.243267,140.361
148,0.244933,140.376
149,0.2466,140.51
150,0.248283,140.466
151,0.249933,140.466
152,0.2516,140.406
153,0.253367,140.324
154,0.254933,140.324
155,0.2566,140.272
156,0.25825,140.019
157,0.259917,139.914
158,0.261583,139.914
159,0.26325,140.078
160,0.264917,140.28
161,0.266583,140.361
162,0.26825,140.361
163,0.269917,140.287
164,0.271583,140.25
165,0.273233,139.944
166,0.2749,139.944
167,0.276567,140.026
168,0.278233,139.922
169,0.2799,139.922
170,0.281567,139.497
171,0.283233,139.557
172,0.2849,139.773
173,0.286567,139.773
174,0.288233,140.011
175,0.2899,140.019
176,0.291567,139.959
177,0.293233,139.959
178,0.2949,139.974
179,0.296567,140.071
180,0.298233,140.339
181,0.2999,140.339
182,0.301567,140.794
183,0.303233,140.704
184,0.3049,140.682
185,0.3066,140.682
186,0.308233,140.876
187,0.3099,140.771
188,0.311567,140.771
189,0.313233,140.533
190,0.3149,140.354
191,0.316567,139.982
192,0.318233,139.982
193,0.319933,139.877
194,0.321567,139.982
195,0.323233,140.071
196,0.3249,140.071
197,0.326567,140.406
198,0.328233,140.451
199,0.3299,140.399
200,0.331567,140.399
201,0.333217,140.332
202,0.334883,139.989
203,0.33655,139.989
204,0.338233,139.751
205,0.339883,139.676
206,0.34155,139.773
207,0.343217,139.773
208,0.344883,139.914
209,0.34655,139.877
210,0.348217,140.004
211,0.349883,140.004
212,0.35155,139.9
213,0.353217,139.825
214,0.354983,140.116
215,0.35655,140.116
216,0.358217,140.406
217,0.359883,140.756
218,0.36155,140.972
219,0.363217,140.972
220,0.364883,140.972
221,0.36655,140.712
222,0.368217,140.712
223,0.369883,140.503
224,0.371633,140.503
225,0.373217,140.533
226,0.3749,140.533
227,0.37655,140.689
228,0.378217,140.555
229,0.379883,140.622
230,0.38155,140.622
231,0.383217,140.384
232,0.384883,140.138
233,0.38655,139.959
234,0.388317,139.959
235,0.389883,139.698
236,0.391533,139.87
237,0.3932,139.87
238,0.3949,140.086
239,0.396533,140.339
240,0.3982,140.265
241,0.399867,140.265
242,0.401533,140.369
243,0.4032,140.205
244,0.404867,140.272
245,0.406533,140.272
246,0.4082,140.287
247,0.409867,140.265
248,0.411533,140.391
249,0.4132,140.391
250,0.414867,140.332
251,0.416533,140.235
252,0.4182,140.235
253,0.419867,140.063
254,0.421533,140.108
255,0.4232,139.929
256,0.424867,139.929
257,0.426533,140.108
258,0.4282,140.287
259,0.429867,140.354
260,0.431533,140.354
261,0.4332,140.361
262,0.434867,140.265
263,0.436533,140.376
264,0.4382,140.376
265,0.439867,140.242
266,0.441533,140.257
267,0.4432,140.414
268,0.444867,140.414
269,0.446533,140.265
270,0.4482,140.265
271,0.449867,140.265
272,0.451517,140.399
273,0.453183,140.414
274,0.45485,140.51
275,0.456567,140.51
276,0.458183,140.6
277,0.45985,140.756
278,0.461517,140.95
279,0.463183,140.95
280,0.46485,140.876
281,0.466517,140.98
282,0.468183,141.241
283,0.469883,141.241
284,0.471517,141.196
285,0.473283,141.36
286,0.47485,141.36
287,0.476517,141.501
288,0.478183,141.248
289,0.47985,141.643
290,0.481517,141.643
291,0.483183,141.673
292,0.48485,142.008
293,0.486517,142.41
294,0.488183,142.41
295,0.489917,142.701
296,0.491517,143.453
297,0.493183,143.64
298,0.49485,143.64
299,0.496517,144.042
300,0.498183,144.392
301,0.49985,144.482
302,0.501517,144.482
303,0.503183,144.862
304,0.50485,145.532
305,0.506617,146.3
306,0.5081830000000001,146.3
307,0.50985,147.253
308,0.511517,148.229
309,0.513167,148.229
310,0.514833,149.265
311,0.5165,150.375
312,0.518167,151.94
313,0.519833,151.94
314,0.5215,153.549
315,0.523167,155.166
316,0.524833,156.999
317,0.5265,156.999
318,0.5281670000000001,159.152
319,0.529833,161.722
320,0.531517,161.722
321,0.5331669999999999,164.703
322,0.534833,167.824
323,0.5365,171.229
324,0.538167,171.229
325,0.539833,174.686
326,0.5415,178.531
327,0.543167,182.83
328,0.544833,182.83
329,0.5465,187.457
330,0.54815,192.612
331,0.549833,198.059
332,0.5514829999999999,198.059
333,0.55315,204.116
334,0.554817,210.233
335,0.5565,217.207
336,0.55815,217.207
337,0.559817,224.426
338,0.561483,231.907
339,0.56315,231.907
340,0.564817,240.274
341,0.566483,248.961
342,0.56815,258.423
343,0.569817,258.423
344,0.571483,268.273
345,0.573133,278.54
346,0.5748,289.314
347,0.576467,289.314
348,0.578133,300.46
349,0.5798,312.626
350,0.581467,324.942
351,0.583133,324.942
352,0.5848,338.085
353,0.586467,351.943
354,0.588133,351.943
355,0.5898,365.712
356,0.5915,380.427
357,0.593133,395.492
358,0.5948,395.492
359,0.596467,411.153
360,0.598133,428.073
361,0.5998,445.426
362,0.601467,445.426
363,0.603167,463.128
364,0.6048,481.419
365,0.606467,499.83
366,0.608183,499.83
367,0.6098,519
368,0.611467,539.213
369,0.613133,539.213
370,0.6148,559.889
371,0.616467,581.309
372,0.618133,603.378
373,0.6198,603.378
374,0.621467,625.7670000000001
375,0.623133,649.02
376,0.6249169999999999,672.84
377,0.626467,672.84
378,0.6281330000000001,697.114
379,0.6298,722.371
380,0.631467,748.023
381,0.633117,748.023
382,0.634783,774.22
383,0.63645,801.25
384,0.638117,828.415
385,0.639783,828.415
386,0.64145,856.206
387,0.643117,885.196
388,0.644783,885.196
389,0.64645,914.484
390,0.6481170000000001,944.436
391,0.649783,975.05
392,0.651467,975.05
393,0.6531169999999999,1005.471
394,0.654783,1036.696
395,0.65645,1068.309
396,0.658117,1068.309
397,0.659783,1100.205
398,0.66145,1132.563
399,0.663117,1165.025
400,0.664783,1165.025
401,0.66645,1198.076
402,0.668117,1231.462
403,0.669783,1231.462
404,0.67145,1265.056
405,0.673117,1299.143
406,0.674783,1333.177
407,0.676467,1333.177
408,0.678117,1367.316
409,0.679783,1401.678
410,0.68145,1435.846
411,0.683117,1435.846
412,0.684783,1470.23
413,0.68645,1504.637
414,0.688117,1539.104
415,0.689783,1539.104
416,0.69145,1573.332
417,0.6931,1607.493
418,0.694767,1641.259
419,0.696433,1641.259
420,0.6981000000000001,1674.622
421,0.699767,1708.016
422,0.701433,1708.016
423,0.7030999999999999,1741.208
424,0.704767,1774.132
425,0.706433,1806.594
426,0.7081,1806.594
427,0.709767,1838.312
428,0.711433,1869.515
429,0.7131,1900.367
430,0.714767,1900.367
431,0.716433,1930.788
432,0.7181,1960.918
433,0.719767,1990.259
434,0.721433,1990.259
435,0.7231,2018.884
436,0.7247670000000001,2046.764
437,0.72645,2046.764
438,0.7281,2073.899
439,0.7297670000000001,2100.416
440,0.731433,2126.261
441,0.7331,2126.261
442,0.734783,2151.415
443,0.736433,2175.719
444,0.7381,2199.225
445,0.739767,2199.225
446,0.741433,2221.689
447,0.743217,2243.31
448,0.744767,2264.202
449,0.746433,2264.202
450,0.7481,2284.102
451,0.749767,2303.384
452,0.751433,2321.936
453,0.753117,2321.936
454,0.7548,2339.646
455,0.756417,2356.961
456,0.758083,2356.961
457,0.75975,2373.308
458,0.761417,2388.88
459,0.763083,2403.475
460,0.76475,2403.475
461,0.766417,2416.544
462,0.768083,2428.874
463,0.76975,2440.534
464,0.771417,2440.534
465,0.773083,2451.479
466,0.77475,2462.007
467,0.776417,2471.648
468,0.7781,2471.648
469,0.7797500000000001,2480.187
470,0.781417,2488.04
471,0.783083,2488.04
472,0.7847499999999999,2494.924
473,0.786417,2500.914
474,0.788083,2506.42
475,0.78975,2506.42
476,0.791417,2511.047
477,0.793083,2515.085
478,0.79475,2518.885
479,0.796417,2518.885
480,0.798083,2521.537
481,0.79975,2523.594
482,0.801417,2524.845
483,0.803083,2524.845
484,0.80475,2525.166
485,0.8064170000000001,2525.188
486,0.808083,2525.188
487,0.80975,2524.547
488,0.8114,2523.311
489,0.813067,2521.634
490,0.81475,2521.634
491,0.816433,2519.004
492,0.818067,2515.644
493,0.819733,2511.852
494,0.8214,2511.852
495,0.823083,2507.828
496,0.824733,2503.365
497,0.8264,2498.731
498,0.828133,2498.731
499,0.8297330000000001,2493.203
500,0.8314,2486.847
501,0.833067,2480.485
502,0.8347329999999999,2480.485
503,0.8364,2473.302
504,0.838067,2466.142
505,0.839717,2466.142
506,0.841383,2458.52
507,0.84305,2450.563
508,0.8447170000000001,2442.159
509,0.846383,2442.159
510,0.84805,2433.442
511,0.8497169999999999,2424.568
512,0.851383,2414.823
513,0.85305,2414.823
514,0.8547169999999999,2404.958
515,0.856383,2394.818
516,0.85805,2384.171
517,0.859717,2384.171
518,0.8615,2373.449
519,0.86305,2362.788
520,0.864717,2362.788
521,0.866383,2351.858
522,0.86805,2340.786
523,0.869717,2329.387
524,0.871383,2329.387
525,0.8730329999999999,2317.697
526,0.8747,2305.56
527,0.876367,2293.207
528,0.878033,2293.207
529,0.8797,2280.906
530,0.881367,2268.232
531,0.883033,2255.634
532,0.8847,2255.634
533,0.886367,2242.975
534,0.888033,2230.234
535,0.8897,2217.293
536,0.891367,2217.293
537,0.8930670000000001,2204.336
538,0.894733,2191.126
539,0.896367,2191.126
540,0.898033,2177.805
541,0.8997000000000001,2164.677
542,0.901367,2151.132
543,0.903033,2151.132
544,0.9046999999999999,2137.817
545,0.906367,2124.347
546,0.908033,2110.645
547,0.9097,2110.645
548,0.911367,2096.966
549,0.913033,2083.197
550,0.9147,2069.257
551,0.916367,2069.257
552,0.918033,2055.205
553,0.9197,2041.31
554,0.921367,2041.31
555,0.923033,2026.99
556,0.9247,2013.259
557,0.9263670000000001,1999.49
558,0.928033,1999.49
559,0.9297,1985.602
560,0.9313669999999999,1971.863
561,0.933017,1957.908
562,0.934683,1957.908
563,0.93635,1943.924
564,0.938017,1929.984
565,0.939683,1915.954
566,0.94135,1915.954
567,0.943017,1901.478
568,0.9446830000000001,1887.359
569,0.946417,1873.374
570,0.948017,1873.374
571,0.9496830000000001,1859.494
572,0.95135,1845.948
573,0.953033,1845.948
574,0.9546829999999999,1832.239
575,0.95635,1818.255
576,0.958017,1804.56
577,0.959683,1804.56
578,0.96135,1790.851
579,0.9631,1777.478
580,0.964683,1764.163
581,0.966367,1764.163
582,0.968017,1750.752
583,0.969683,1737.244
584,0.97135,1723.833
585,0.973017,1723.833
586,0.974683,1710.4
587,0.9763500000000001,1697.041
588,0.978017,1697.041
589,0.9798,1684.032
590,0.9813499999999999,1670.636
591,0.983017,1657.359
592,0.984683,1657.359
593,0.9863499999999999,1644.179
594,0.988017,1630.835
595,0.989683,1617.715
596,0.99135,1617.715
597,0.993,1604.907
598,0.994667,1592.226
599,0.996333,1579.657
600,0.998,1579.657
601,0.999667,1567.118
602,1.001333,1554.69
603,1.003,1554.69
604,1.004667,1542.114
605,1.006333,1530.081
606,1.008,1517.668
607,1.009667,1517.668
608,1.011333,1505.427
609,1.013,1493.402
610,1.014667,1481.153
611,1.016333,1481.153
612,1.018,1469.128
613,1.019667,1456.924
614,1.021333,1445.055
615,1.023,1445.055
616,1.024667,1433.32
617,1.026333,1421.958
618,1.028,1410.387
619,1.029667,1410.387
620,1.031333,1398.414
621,1.033,1386.568
622,1.034667,1386.568
623,1.036333,1374.774
624,1.038033,1363.575
625,1.039667,1352.653
626,1.041333,1352.653
627,1.043,1341.76
628,1.044667,1331.165
629,1.046333,1320.504
630,1.048,1320.504
631,1.049667,1309.82
632,1.051317,1298.949
633,1.053017,1288.228
634,1.054683,1288.228
635,1.056317,1277.521
636,1.057983,1266.666
637,1.05965,1266.666
638,1.061317,1256.168
639,1.062983,1245.469
640,1.0647,1235.001
641,1.066317,1235.001
642,1.067983,1224.89
643,1.06965,1214.594
644,1.071317,1204.707
645,1.072983,1204.707
646,1.07465,1194.924
647,1.076317,1185.127
648,1.077983,1175.433
649,1.07965,1175.433
650,1.081367,1165.487
651,1.082983,1155.667
652,1.08465,1145.929
653,1.086317,1145.929
654,1.087983,1136.392
655,1.08965,1126.967
656,1.091317,1126.967
657,1.092983,1117.818
658,1.09465,1108.728
659,1.096317,1099.84
660,1.0981,1099.84
661,1.09965,1090.832
662,1.101317,1081.824
663,1.102983,1072.869
664,1.10465,1072.869
665,1.106317,1064.084
666,1.107983,1055.375
667,1.10965,1046.717
668,1.111317,1046.717
669,1.112967,1038.253
670,1.114633,1029.625
671,1.116333,1029.625
672,1.117967,1021.288
673,1.119633,1012.765
674,1.1213,1004.025
675,1.122967,1004.025
676,1.124633,995.748
677,1.1263,987.582
678,1.127967,979.2
679,1.129633,979.2
680,1.131283,971.6079999999999
681,1.13295,963.703
682,1.134617,956.0359999999999
683,1.136283,956.0359999999999
684,1.13795,948.347
685,1.139617,940.4640000000001
686,1.141283,932.664
687,1.14295,932.664
688,1.144617,924.669
689,1.1463,917.375
690,1.14795,917.375
691,1.149617,909.992
692,1.151283,902.653
693,1.15295,895.277
694,1.154617,895.277
695,1.156283,887.588
696,1.15795,880.145
697,1.159617,872.694
698,1.161283,872.694
699,1.16295,865.683
700,1.164617,858.746
701,1.166283,852.0410000000001
702,1.16795,852.0410000000001
703,1.169617,845.253
704,1.171283,838.384
705,1.172933,838.384
706,1.1746,831.746
707,1.176267,824.682
708,1.177933,817.984
709,1.1796,817.984
710,1.181267,811.383
711,1.182967,804.812
712,1.1846,798.434
713,1.186267,798.434
714,1.187933,792.0940000000001
715,1.1896,785.798
716,1.191267,779.487
717,1.192933,779.487
718,1.1946,773.139
719,1.196267,766.776
720,1.197933,766.776
721,1.1997,760.473
722,1.201267,754.513
723,1.202933,748.552
724,1.2046,748.552
725,1.206267,742.875
726,1.207933,737.153
727,1.2096,731.319
728,1.211267,731.319
729,1.212933,725.754
730,1.2146,720.2329999999999
731,1.21635,714.421
732,1.217933,714.421
733,1.2196,708.736
734,1.221267,703.022
735,1.222933,697.367
736,1.2246,697.367
737,1.226267,692.0170000000001
738,1.227933,686.519
739,1.2296,686.519
740,1.23125,681.527
741,1.23305,676.133
742,1.234583,671.044
743,1.23625,671.044
744,1.237917,666.1559999999999
745,1.239583,660.673
746,1.241267,655.591
747,1.242967,655.591
748,1.244583,650.458
749,1.24625,645.451
750,1.247917,640.638
751,1.249583,640.638
752,1.25125,635.773
753,1.252917,630.87
754,1.254583,630.87
755,1.25625,625.908
756,1.257933,621.095
757,1.259583,616.349
758,1.26125,616.349
759,1.262917,611.797
760,1.264583,607.207
761,1.26625,602.663
762,1.267917,602.663
763,1.269583,598.177
764,1.27125,593.8339999999999
765,1.272917,589.415
766,1.274583,589.415
767,1.27625,585.087
768,1.277917,580.75
769,1.279583,576.466
770,1.28125,576.466
771,1.282917,572.1079999999999
772,1.284583,567.973
773,1.28625,567.973
774,1.287917,563.778
775,1.289583,559.323
776,1.29125,555.21
777,1.2929,555.21
778,1.294567,551.254
779,1.296233,547.29
780,1.2979,543.721
781,1.299567,543.721
782,1.301233,540.063
783,1.3029,535.928
784,1.304567,531.726
785,1.306233,531.726
786,1.3079,527.509
787,1.309567,523.5
788,1.311233,523.5
789,1.3129,519.641
790,1.314567,516.2140000000001
791,1.316233,512.764
792,1.317967,512.764
793,1.319567,509.299
794,1.321267,505.641
795,1.3229,501.908
796,1.324567,501.908
797,1.326233,498.004
798,1.3279,494.547
799,1.329567,491.209
800,1.33125,491.209
801,1.3329,487.849
802,1.334667,484.608
803,1.336233,481.077
804,1.3379,481.077
805,1.339567,477.724
806,1.341233,474.714
807,1.3429,474.714
808,1.344567,471.748
809,1.346233,468.582
810,1.3479,465.415
811,1.349567,465.415
812,1.35135,461.914
813,1.352883,458.501
814,1.35455,455.424
815,1.356233,455.424
816,1.357883,452.288
817,1.35955,449.419
818,1.361217,446.767
819,1.362883,446.767
820,1.36455,443.839
821,1.366217,441.35
822,1.367883,441.35
823,1.36955,438.511
824,1.371217,435.33
825,1.372883,432.253
826,1.37455,432.253
827,1.376217,428.96
828,1.377883,425.92
829,1.37955,423.118
830,1.381217,423.118
831,1.382883,420.406
832,1.38455,417.985
833,1.386217,415.429
834,1.387883,415.429
835,1.38955,412.822
836,1.391217,410.281
837,1.392883,407.539
838,1.39455,407.539
839,1.396217,404.887
840,1.397883,401.966
841,1.39955,401.966
842,1.40125,399.128
843,1.4029,396.393
844,1.40455,393.726
845,1.406217,393.726
846,1.407883,391.528
847,1.40955,389.151
848,1.411217,386.909
849,1.412867,386.909
850,1.414533,384.696
851,1.4162,382.364
852,1.417867,380.3
853,1.419533,380.3
854,1.4212,378.08
855,1.42285,376.09
856,1.424517,376.09
857,1.426183,373.907
858,1.42785,371.478
859,1.429517,368.968
860,1.431183,368.968
861,1.43285,366.345
862,1.434517,363.991
863,1.436217,361.823
864,1.43785,361.823
865,1.439517,359.789
866,1.441183,357.807
867,1.44285,355.631
868,1.444517,355.631
869,1.446183,353.619
870,1.44785,351.697
871,1.449517,351.697
872,1.451183,349.693
873,1.452883,347.897
874,1.454517,345.983
875,1.456183,345.983
876,1.45785,344.098
877,1.459517,342.332
878,1.461183,340.521
879,1.46285,340.521
880,1.464517,338.51
881,1.466183,336.513
882,1.46785,334.606
883,1.46955,334.606
884,1.471183,332.408
885,1.472833,330.202
886,1.4745,328.369
887,1.476167,328.369
888,1.477833,326.455
889,1.4795,324.681
890,1.481167,324.681
891,1.482867,323.273
892,1.4845,321.522
893,1.486167,319.928
894,1.487833,319.928
895,1.4895,318.281
896,1.491167,316.493
897,1.492833,314.876
898,1.4945,314.876
899,1.496167,313.036
900,1.497833,311.509
901,1.4995,309.959
902,1.501167,309.959
903,1.502833,308.223
904,1.5045,306.755
905,1.506167,306.755
906,1.507833,305.288
907,1.5095,303.961
908,1.511167,302.3
909,1.512833,302.3
910,1.5145,300.691
911,1.516167,298.969
912,1.517833,297.159
913,1.5195,297.159
914,1.521167,295.803
915,1.522833,294.32
916,1.5245,293.046
917,1.526167,293.046
918,1.527833,291.623
919,1.5295,290.379
920,1.531167,289.038
921,1.532817,289.038
922,1.534483,287.443
923,1.53615,286.259
924,1.53785,286.259
925,1.539483,284.791
926,1.54115,283.584
927,1.542817,282.474
928,1.544483,282.474
929,1.54615,281.073
930,1.547817,279.717
931,1.5495,278.339
932,1.551233,278.339
933,1.552817,277.042
934,1.55455,275.798
935,1.55615,274.502
936,1.557817,274.502
937,1.559483,273.25
938,1.56115,271.872
939,1.562817,271.872
940,1.564483,270.531
941,1.56615,269.242
942,1.567817,267.848
943,1.569483,267.848
944,1.57115,266.917
945,1.572817,265.65
946,1.574483,264.51
