"ID","sea_time","fid_signal"
1,0,151.91
2,0.001667,151.91
3,0.003333,152.037
4,0.005,152.186
5,0.006667,152.186
6,0.00835,151.992
7,0.01,151.031
8,0.011667,151.031
9,0.013333,150.353
10,0.015,149.943
11,0.016667,149.824
12,0.018333,149.824
13,0.02,149.95
14,0.021667,150.085
15,0.023333,150.077
16,0.025,150.077
17,0.026667,149.95
18,0.028333,149.935
19,0.03,149.742
20,0.03175,149.742
21,0.033333,149.876
22,0.035,150.248
23,0.036667,150.412
24,0.038333,150.412
25,0.04,150.688
26,0.04165,150.569
27,0.043317,150.569
28,0.044983,150.315
29,0.04665,150.301
30,0.048433,150.129
31,0.049983,150.129
32,0.05165,150.129
33,0.053317,150.234
34,0.054983,150.263
35,0.056667,150.263
36,0.058317,150.152
37,0.059983,150.248
38,0.06165,149.928
39,0.063317,149.928
40,0.06505,149.816
41,0.06665,149.98
42,0.068317,149.98
43,0.069983,149.995
44,0.07165000000000001,150.383
45,0.07331699999999999,150.688
46,0.07498299999999999,150.688
47,0.07665,150.777
48,0.078317,150.539
49,0.079983,150.412
50,0.08176700000000001,150.412
51,0.083317,150.107
52,0.084983,149.921
53,0.08666699999999999,150.017
54,0.08831700000000001,150.017
55,0.08998299999999999,149.906
56,0.09165,149.794
57,0.093317,149.794
58,0.094983,149.995
59,0.09665,150.219
60,0.098317,150.345
61,0.099983,150.345
62,0.101633,150.561
63,0.1033,150.539
64,0.104967,150.286
65,0.106633,150.286
66,0.1083,150.174
67,0.109967,150.174
68,0.111633,150.062
69,0.1133,150.062
70,0.114967,150.204
71,0.116633,150.256
72,0.1183,150.427
73,0.119967,150.427
74,0.121633,150.39
75,0.1233,150.278
76,0.124967,150.278
77,0.126633,150.01
78,0.1283,149.757
79,0.129967,150.092
80,0.131633,150.092
81,0.1333,150.137
82,0.134967,150.39
83,0.136633,150.673
84,0.1383,150.673
85,0.139967,150.561
86,0.141633,150.919
87,0.143333,150.964
88,0.144967,150.964
89,0.146633,150.77
90,0.1483,150.748
91,0.149967,150.748
92,0.15165,150.464
93,0.1533,150.636
94,0.154967,150.666
95,0.156633,150.666
96,0.1583,150.569
97,0.159967,150.248
98,0.161617,150.241
99,0.163283,150.241
100,0.16495,150.196
101,0.16665,149.995
102,0.168283,150.323
103,0.16995,150.323
104,0.171617,150.137
105,0.173283,150.181
106,0.17495,150.621
107,0.176617,150.621
108,0.178283,150.852
109,0.17995,151.001
110,0.181617,151.001
111,0.183317,151.12
112,0.18495,150.815
113,0.186617,150.613
114,0.188283,150.613
115,0.18995,150.636
116,0.191617,150.517
117,0.193283,150.464
118,0.19495,150.464
119,0.196617,150.45
120,0.198283,150.651
121,0.200067,150.926
122,0.201617,150.926
123,0.203283,151.12
124,0.20495,151.284
125,0.206617,151.284
126,0.208283,150.941
127,0.20995,150.688
128,0.211617,150.613
129,0.213283,150.613
130,0.21495,150.293
131,0.216617,150.472
132,0.218283,150.189
133,0.21995,150.189
134,0.2216,150.196
135,0.223267,150.517
136,0.224933,150.517
137,0.2266,150.517
138,0.228267,150.882
139,0.229967,150.651
140,0.2316,150.472
141,0.23325,150.472
142,0.234917,150.39
143,0.236583,150.129
144,0.23825,150.129
145,0.239917,150.107
146,0.241583,150.025
147,0.24325,149.734
148,0.244917,149.734
149,0.246583,149.958
150,0.24825,150.315
151,0.249917,150.159
152,0.251583,150.159
153,0.25325,150.166
154,0.254917,149.898
155,0.256583,149.779
156,0.25825,149.779
157,0.259917,149.764
158,0.261583,149.682
159,0.26325,149.682
160,0.264917,149.727
161,0.266583,149.675
162,0.26825,149.697
163,0.269917,149.697
164,0.271583,149.779
165,0.27325,149.898
166,0.274917,149.898
167,0.276583,149.898
168,0.27825,149.98
169,0.279917,149.846
170,0.281567,149.66
171,0.283233,149.66
172,0.284967,149.861
173,0.286567,150.07
174,0.288233,150.07
175,0.2899,150.39
176,0.291567,150.464
177,0.293233,150.189
178,0.2949,150.189
179,0.296567,150.129
180,0.29825,150.301
181,0.299983,150.405
182,0.301583,150.405
183,0.303233,150.561
184,0.3049,150.166
185,0.306567,149.891
186,0.308233,149.891
187,0.3099,149.824
188,0.311567,149.712
189,0.313233,149.965
190,0.3149,149.965
191,0.316567,150.107
192,0.318333,150.219
193,0.3199,150.219
194,0.321567,150.099
195,0.323233,150.301
196,0.3249,150.174
197,0.326567,150.174
198,0.328233,150.189
199,0.3299,150.412
200,0.331567,150.256
201,0.333233,150.256
202,0.3349,150.144
203,0.336567,149.876
204,0.338233,149.652
205,0.3399,149.652
206,0.34155,149.436
207,0.343217,149.451
208,0.344883,149.451
209,0.34655,149.63
210,0.348217,149.749
211,0.349883,149.958
212,0.35155,149.958
213,0.353217,149.809
214,0.354883,149.749
215,0.35655,149.831
216,0.358217,149.831
217,0.359883,149.816
218,0.36155,150.055
219,0.363217,149.988
220,0.364883,149.988
221,0.36655,149.779
222,0.36825,149.913
223,0.369917,149.898
224,0.37155,149.898
225,0.373217,150.003
226,0.374883,150.152
227,0.37655,150.152
228,0.378217,149.883
229,0.379883,149.749
230,0.38155,149.488
231,0.383217,149.488
232,0.384883,149.272
233,0.38655,149.444
234,0.388217,149.734
235,0.389883,149.734
236,0.39155,149.988
237,0.393217,150.181
238,0.394883,150.181
239,0.39655,150.181
240,0.398217,150.055
241,0.399867,150.032
242,0.401533,150.032
243,0.403283,150.032
244,0.404867,150.04
245,0.406533,150.181
246,0.4082,150.181
247,0.409867,150.07
248,0.411533,150.085
249,0.4132,149.757
250,0.414867,149.757
251,0.416533,149.265
252,0.4182,149.295
253,0.419867,149.108
254,0.421533,149.108
255,0.4232,149.235
256,0.424867,149.585
257,0.426533,149.742
258,0.4282,149.742
259,0.429867,149.988
260,0.431533,149.988
261,0.4332,149.988
262,0.434867,149.824
263,0.4366,149.451
264,0.4382,149.466
265,0.439867,149.466
266,0.441533,149.436
267,0.4432,149.496
268,0.444883,149.898
269,0.4466,149.898
270,0.4482,149.764
271,0.449867,150.01
272,0.451533,150.107
273,0.4532,150.107
274,0.454867,150.025
275,0.456533,150.278
276,0.4582,150.278
277,0.459867,150.204
278,0.461517,150.613
279,0.463183,151.381
280,0.46485,151.381
281,0.466517,152.7
282,0.468183,154.972
283,0.46985,158.273
284,0.471517,158.273
285,0.473183,163.101
286,0.47485,170.06
287,0.476517,180.185
288,0.478183,180.185
289,0.47985,194.408
290,0.481517,214.405
291,0.483183,241.227
292,0.48485,241.227
293,0.486517,276.983
294,0.488183,323.638
295,0.48985,323.638
296,0.491517,383.176
297,0.493183,458.315
298,0.49485,551
299,0.496517,551
300,0.498183,663.377
301,0.49985,796.773
302,0.501517,953.272
303,0.503183,953.272
304,0.50485,1134.083
305,0.506517,1339.704
306,0.5081830000000001,1570.977
307,0.509867,1570.977
308,0.511517,1826.674
309,0.5131829999999999,2105.467
310,0.51485,2105.467
311,0.516517,2405.644
312,0.5181829999999999,2725.631
313,0.519867,3062.077
314,0.521583,3062.077
315,0.523167,3412.038
316,0.524817,3772.289
317,0.526483,4138.127
318,0.52815,4138.127
319,0.529817,4506.334
320,0.531483,4873.171
321,0.53315,5233.966
322,0.534817,5233.966
323,0.536483,5585.373
324,0.53815,5923.867
325,0.539817,5923.867
326,0.541483,6246.641
327,0.54315,6551.109
328,0.544817,6834.254
329,0.5464830000000001,6834.254
330,0.54815,7094.391
331,0.549817,7329.628
332,0.5514829999999999,7539.161
333,0.55315,7539.161
334,0.554917,7722.422
335,0.5564829999999999,7879.011
336,0.55815,8009.017
337,0.559817,8009.017
338,0.561483,8112.676
339,0.56315,8191.116
340,0.564817,8245.050999999999
341,0.566483,8245.050999999999
342,0.56815,8275.322
343,0.569817,8283.302
344,0.571483,8283.302
345,0.57315,8270.241
346,0.574817,8237.734
347,0.576483,8187.972
348,0.5781500000000001,8187.972
349,0.579817,8122.563
350,0.581467,8043.006
351,0.583133,7951.178
352,0.5848,7951.178
353,0.586467,7847.697
354,0.588167,7734.634
355,0.5898,7613.212
356,0.591467,7613.212
357,0.593133,7485.017
358,0.5948,7351.212
359,0.596467,7351.212
360,0.598133,7212.49
361,0.5998,7070.765
362,0.601467,6925.97
363,0.603133,6925.97
364,0.6048,6779.194
365,0.606467,6631.531
366,0.608133,6482.594
367,0.6098,6482.594
368,0.6115,6333.709
369,0.613133,6185.815
370,0.6148,6038.964
371,0.616467,6038.964
372,0.618133,5893.767
373,0.6198,5750.462
374,0.621467,5609.199
375,0.623133,5609.199
376,0.6248,5470.395
377,0.626467,5334.117
378,0.6281330000000001,5334.117
379,0.6298,5200.662
380,0.631467,5069.926
381,0.6331329999999999,4941.739
382,0.6348,4941.739
383,0.636467,4816.83
384,0.638133,4694.976
385,0.639867,4576.229
386,0.64145,4576.229
387,0.643117,4460.789
388,0.644783,4348.047
389,0.64645,4238.345
390,0.6481170000000001,4238.345
391,0.649783,4131.645
392,0.65145,4028.007
393,0.6531169999999999,4028.007
394,0.654817,3927.298
395,0.65645,3829.181
396,0.658117,3734.365
397,0.659783,3734.365
398,0.66145,3642.119
399,0.663117,3552.78
400,0.664783,3466.435
401,0.66645,3466.435
402,0.668117,3382.154
403,0.669783,3300.428
404,0.67145,3221.579
405,0.6732,3221.579
406,0.674783,3144.994
407,0.67645,3071.137
408,0.678117,2999.41
409,0.679783,2999.41
410,0.68145,2929.673
411,0.683117,2861.82
412,0.684783,2861.82
413,0.68645,2796.002
414,0.688133,2732.307
415,0.689783,2670.676
416,0.69145,2670.676
417,0.693117,2611.108
418,0.694783,2552.919
419,0.69645,2496.816
420,0.698117,2496.816
421,0.6998,2442.002
422,0.701483,2388.827
423,0.7030999999999999,2337.478
424,0.704767,2337.478
425,0.706433,2287.544
426,0.7081,2238.967
427,0.709767,2238.967
428,0.711433,2192.155
429,0.7131,2146.572
430,0.714767,2102.017
431,0.716433,2102.017
432,0.7181,2059.02
433,0.719767,2017.364
434,0.721433,1976.989
435,0.7231,1976.989
436,0.7247670000000001,1937.963
437,0.726467,1900.226
438,0.7281,1862.861
439,0.7297670000000001,1862.861
440,0.731433,1826.651
441,0.7331,1791.753
442,0.7347669999999999,1791.753
443,0.736433,1757.57
444,0.7381,1724.616
445,0.739767,1692.489
446,0.741433,1692.489
447,0.7431,1661.018
448,0.744767,1630.738
449,0.746433,1601.301
450,0.7481,1601.301
451,0.749767,1572.833
452,0.751433,1544.938
453,0.7531,1517.698
454,0.754767,1517.698
455,0.756433,1491.211
456,0.7581,1465.03
457,0.759767,1439.84
458,0.761417,1439.84
459,0.763083,1415.096
460,0.76475,1391.172
461,0.766417,1391.172
462,0.768083,1368.135
463,0.76975,1345.702
464,0.771417,1323.879
465,0.773083,1323.879
466,0.7748,1302.533
467,0.776417,1281.686
468,0.778083,1261.368
469,0.7797500000000001,1261.368
470,0.781417,1241.282
471,0.783083,1221.992
472,0.784767,1202.852
473,0.786417,1202.852
474,0.788083,1184.307
475,0.78975,1166.694
476,0.791533,1148.678
477,0.793083,1148.678
478,0.79475,1131.907
479,0.796417,1115.158
480,0.798083,1115.158
481,0.79975,1098.573
482,0.801417,1082.577
483,0.803083,1066.737
484,0.804767,1066.737
485,0.8064170000000001,1051.486
486,0.808183,1036.905
487,0.80975,1022.704
488,0.8114170000000001,1022.704
489,0.813083,1008.63
490,0.81475,994.965
491,0.8164,981.212
492,0.818067,981.212
493,0.819733,968.263
494,0.821383,955.455
495,0.8230499999999999,955.455
496,0.824717,942.551
497,0.826383,930.101
498,0.82805,917.599
499,0.829717,917.599
500,0.831383,905.76
501,0.83305,894.621
502,0.834717,883.691
503,0.836383,883.691
504,0.83805,873.081
505,0.839717,862.487
506,0.841383,851.884
507,0.84305,851.884
508,0.8447170000000001,841.528
509,0.846383,830.986
510,0.84805,830.986
511,0.8497169999999999,820.577
512,0.851383,810.675
513,0.85305,800.878
514,0.8547169999999999,800.878
515,0.856383,791.87
516,0.85805,783.101
517,0.859717,774.249
518,0.861383,774.249
519,0.863067,765.353
520,0.864717,756.606
521,0.8663999999999999,748.292
522,0.86805,748.292
523,0.869733,740.223
524,0.871383,732.258
525,0.87305,732.258
526,0.874717,724.457
527,0.876383,716.388
528,0.87805,708.58
529,0.879717,708.58
530,0.881367,701.316
531,0.883033,693.843
532,0.8847,686.847
533,0.886367,686.847
534,0.888033,679.91
535,0.8897,673.175
536,0.891367,666.41
537,0.893117,666.41
538,0.8947000000000001,659.6
539,0.896367,652.8200000000001
540,0.898033,646.092
541,0.8997000000000001,646.092
542,0.901367,639.908
543,0.903033,633.769
544,0.9046999999999999,633.769
545,0.906367,627.875
546,0.908033,622.2430000000001
547,0.909767,616.364
548,0.911367,616.364
549,0.913033,610.62
550,0.9147,604.898
551,0.916367,599.116
552,0.918033,599.116
553,0.9197,593.722
554,0.921367,588.141
555,0.923033,582.702
556,0.9247,582.702
557,0.9264829999999999,577.539
558,0.928033,572.614
559,0.9297,572.614
560,0.9313669999999999,567.973
561,0.933033,563.249
562,0.9347,558.384
563,0.9363669999999999,558.384
564,0.938033,553.355
565,0.9397,548.72
566,0.94135,544.362
567,0.943017,544.362
568,0.9446830000000001,539.832
569,0.94635,535.54
570,0.948033,531.13
571,0.9497,531.13
572,0.95135,526.443
573,0.953017,522.576
574,0.9546829999999999,518.404
575,0.95635,518.404
576,0.958017,514.351
577,0.959683,510.558
578,0.96135,510.558
579,0.963017,506.468
580,0.964683,502.415
581,0.96635,498.615
582,0.968017,498.615
583,0.969683,494.719
584,0.97135,490.807
585,0.973017,487.283
586,0.974683,487.283
587,0.9763500000000001,483.52
588,0.978017,479.996
589,0.979683,476.472
590,0.9813499999999999,476.472
591,0.983017,472.911
592,0.984683,469.372
593,0.9863499999999999,469.372
594,0.988017,465.974
595,0.989683,462.942
596,0.99135,460.081
597,0.993017,460.081
598,0.994683,457.197
599,0.99635,454.083
600,0.998017,451.118
601,0.999683,451.118
602,1.001333,448.048
603,1.003,445.083
604,1.004667,442.311
605,1.006333,442.311
606,1.008,439.256
607,1.009667,436.366
608,1.011417,433.579
609,1.013,433.579
610,1.014667,430.606
611,1.01635,427.753
612,1.018,427.753
613,1.019667,424.936
614,1.021367,422.299
615,1.023,419.892
616,1.024667,419.892
617,1.026333,417.382
618,1.02805,415.064
619,1.029667,412.531
620,1.031333,412.531
621,1.033,410.028
622,1.034667,407.688
623,1.036333,405.334
624,1.038,405.334
625,1.039667,402.883
626,1.041333,400.595
627,1.043,400.595
628,1.044783,398.561
629,1.046333,396.058
630,1.048,393.815
631,1.049667,393.815
632,1.051333,391.513
633,1.053,388.92
634,1.054667,386.804
635,1.056333,386.804
636,1.058,384.778
637,1.059667,382.759
638,1.061317,380.501
639,1.062983,380.501
640,1.06465,378.445
641,1.066317,376.441
642,1.067983,374.22
643,1.06965,374.22
644,1.071317,372.417
645,1.072983,370.532
646,1.07465,370.532
647,1.076317,368.461
648,1.077983,366.807
649,1.07965,365.093
650,1.081317,365.093
651,1.082983,363.372
652,1.08465,361.614
653,1.086317,360.057
654,1.088,360.057
655,1.08965,358.44
656,1.091333,356.324
657,1.092983,354.618
658,1.09465,354.618
659,1.096317,352.547
660,1.097983,350.535
661,1.09965,350.535
662,1.101317,349.194
663,1.102983,347.637
664,1.10465,346.221
665,1.10635,346.221
666,1.107967,344.716
667,1.109633,342.958
668,1.1113,341.453
669,1.112967,341.453
670,1.114633,339.657
671,1.1163,338.39
672,1.117967,337.005
673,1.119633,337.005
674,1.1213,335.321
675,1.12295,333.92
676,1.124617,333.92
677,1.126283,332.139
678,1.12795,330.701
679,1.129617,329.435
680,1.131283,329.435
681,1.13295,327.982
682,1.134617,326.775
683,1.136283,325.3
684,1.13795,325.3
685,1.139617,323.907
686,1.141283,322.752
687,1.14295,321.388
688,1.144617,321.388
689,1.1463,320.271
690,1.14795,318.721
691,1.149617,317.171
692,1.151283,317.171
693,1.15295,315.726
694,1.154617,314.467
695,1.156283,314.467
696,1.15795,313.543
697,1.159617,312.388
698,1.161283,311.382
699,1.16305,311.382
700,1.164617,309.825
701,1.166283,308.298
702,1.16795,307.232
703,1.169617,307.232
704,1.171283,305.839
705,1.17295,304.99
706,1.174617,304.289
707,1.176283,304.289
708,1.17795,303.008
709,1.1796,302.099
710,1.181267,302.099
711,1.182933,300.72
712,1.1846,299.543
713,1.186267,298.575
714,1.187933,298.575
715,1.1896,297.524
716,1.191267,296.615
717,1.192933,295.259
718,1.1946,295.259
719,1.196267,294.343
720,1.197933,293.225
721,1.199617,292.256
722,1.201267,292.256
723,1.202933,291.333
724,1.2046,290.193
725,1.206267,289.157
726,1.207933,289.157
727,1.2096,288.263
728,1.211267,287.339
729,1.212933,287.339
730,1.2146,286.795
731,1.216267,286.035
732,1.217933,285.335
733,1.2196,285.335
734,1.221267,284.553
735,1.222933,283.36
736,1.2246,282.504
737,1.226267,282.504
738,1.227967,281.17
739,1.2296,280.119
740,1.231267,279.106
741,1.232933,279.106
742,1.2346,277.981
743,1.236267,277.244
744,1.237933,277.244
745,1.2396,276.297
746,1.24125,275.522
747,1.242917,274.695
748,1.244583,274.695
749,1.24625,273.854
750,1.247917,273.332
751,1.249583,272.505
752,1.25125,272.505
753,1.252917,271.73
754,1.254583,270.844
755,1.25625,269.987
756,1.257917,269.987
757,1.259583,269.227
758,1.26125,268.392
759,1.262917,267.975
760,1.264583,267.975
761,1.266267,267.252
762,1.267917,266.485
763,1.269583,266.485
764,1.27125,265.919
765,1.272917,265.092
766,1.274583,264.317
767,1.27625,264.317
768,1.277917,263.453
769,1.279583,262.67
770,1.281367,261.866
771,1.282917,261.866
772,1.284583,261.001
773,1.28625,260.39
774,1.287933,259.802
775,1.289583,259.802
776,1.29125,259.31
777,1.292917,258.625
778,1.294583,258.625
779,1.29625,258.081
780,1.297917,257.313
781,1.299583,256.442
782,1.301233,256.442
783,1.3029,255.801
784,1.304567,255.153
785,1.306267,254.706
786,1.3079,254.706
787,1.309567,254.288
788,1.311233,253.744
789,1.3129,253.297
790,1.314567,253.297
791,1.316233,252.642
792,1.3179,252.15
793,1.319567,252.15
794,1.321233,251.807
795,1.3229,251.07
796,1.324567,250.34
797,1.326233,250.34
798,1.3279,249.475
799,1.329567,249.065
800,1.331233,248.417
801,1.3329,248.417
802,1.334567,247.829
803,1.336233,247.121
804,1.3379,246.376
805,1.339567,246.376
806,1.341233,245.929
807,1.3429,245.526
808,1.344567,245.161
809,1.346233,245.161
810,1.3479,244.327
811,1.349567,243.723
812,1.351233,243.723
813,1.3529,243.247
814,1.354567,242.837
815,1.356233,242.852
816,1.3579,242.852
817,1.359567,242.613
818,1.361217,241.756
819,1.362917,240.915
820,1.3646,240.915
821,1.366283,240.058
822,1.367883,239.417
823,1.36955,239.037
824,1.371217,239.037
825,1.372883,238.62
826,1.37455,238.128
827,1.376233,238.128
828,1.377883,237.569
829,1.37955,237.368
830,1.381217,236.936
831,1.382883,236.936
832,1.38455,236.325
833,1.386217,235.595
834,1.387883,234.775
835,1.38955,234.775
836,1.391217,234.351
837,1.392883,234.134
838,1.39455,234.03
839,1.396217,234.03
840,1.397867,233.866
841,1.39965,233.561
842,1.4012,232.965
843,1.402867,232.965
844,1.404533,232.503
845,1.4062,231.564
846,1.407867,231.564
847,1.409533,230.663
848,1.4112,230.238
849,1.412867,229.798
850,1.414533,229.798
851,1.4162,229.888
852,1.417867,229.605
853,1.419533,229.18
854,1.421183,229.18
855,1.42285,228.733
856,1.424517,228.018
857,1.426183,227.474
858,1.42785,227.474
859,1.429517,227.101
860,1.431183,226.572
861,1.43285,226.572
862,1.434517,226.334
863,1.436183,226.021
864,1.43785,225.596
865,1.439517,225.596
866,1.4412,225.238
867,1.44285,224.829
868,1.444517,224.598
869,1.4462,224.598
870,1.447883,224.069
871,1.449533,223.733
872,1.451183,223.331
873,1.45285,223.331
874,1.454517,223.1
875,1.456183,222.884
876,1.45785,222.363
877,1.459517,222.363
878,1.461183,221.871
879,1.46285,221.26
880,1.464517,221.26
881,1.466183,220.723
882,1.46785,220.5
883,1.469517,219.993
884,1.471183,219.993
885,1.47285,219.502
886,1.474517,219.04
887,1.476183,218.697
888,1.47785,218.697
889,1.479517,218.757
890,1.481167,218.622
891,1.482833,218.458
892,1.484583,218.458
893,1.486167,217.967
894,1.487833,217.445
895,1.4895,217.445
896,1.491167,217.147
897,1.492833,216.976
898,1.4945,216.633
899,1.496167,216.633
900,1.497833,216.253
901,1.4995,215.799
902,1.501167,215.396
903,1.502833,215.396
904,1.5045,214.763
905,1.506167,214.532
906,1.507833,214.316
907,1.5095,214.316
908,1.511167,213.854
909,1.512833,213.869
910,1.5145,213.869
911,1.516167,213.437
912,1.517933,213.146
913,1.5195,212.952
914,1.5212,212.952
915,1.522833,212.945
916,1.5245,212.751
917,1.526167,212.334
918,1.527867,212.334
919,1.5295,212.103
920,1.531167,211.604
921,1.532833,211.418
922,1.5345,211.418
923,1.536167,210.993
924,1.537833,210.531
925,1.5395,209.987
926,1.54115,209.987
927,1.542817,209.615
928,1.544483,209.57
929,1.54615,209.57
930,1.547817,209.399
931,1.549483,209.16
932,1.55115,208.616
933,1.552817,208.616
934,1.554483,208.475
935,1.55615,208.013
936,1.557817,207.782
937,1.559483,207.782
938,1.56115,207.439
939,1.562817,206.828
940,1.564483,206.59
941,1.56615,206.59
942,1.567817,206.202
943,1.569483,206.135
944,1.57115,206.135
945,1.572817,205.934
946,1.574483,205.658
947,1.57615,205.576
948,1.577817,205.576
949,1.579483,205.234
950,1.58115,205.062
951,1.582817,205.047
952,1.584483,205.047
953,1.58615,204.98
