"ID","sea_time","fid_signal"
1,0,29.497
2,0.001667,29.497
3,0.003333,29.5
4,0.005,29.505
5,0.006683,29.505
6,0.008333,29.497
7,0.01,29.448
8,0.011667,29.359
9,0.013333,29.359
10,0.015,29.264
11,0.016667,29.189
12,0.018333,29.181
13,0.02,29.181
14,0.021667,29.212
15,0.023433,29.259
16,0.025,29.297
17,0.026667,29.297
18,0.028333,29.32
19,0.03,29.343
20,0.031667,29.356
21,0.033333,29.356
22,0.035,29.364
23,0.036667,29.369
24,0.038333,29.369
25,0.04,29.374
26,0.041667,29.382
27,0.043333,29.385
28,0.045,29.385
29,0.046667,29.389
30,0.04835,29.39
31,0.050033,29.391
32,0.0517,29.391
33,0.053317,29.397
34,0.054983,29.398
35,0.05665,29.398
36,0.058317,29.398
37,0.059983,29.4
38,0.06165,29.409
39,0.063317,29.409
40,0.064983,29.414
41,0.06665,29.417
42,0.068317,29.423
43,0.069983,29.423
44,0.07165000000000001,29.424
45,0.07331699999999999,29.431
46,0.07498299999999999,29.441
47,0.07665,29.441
48,0.078317,29.447
49,0.079983,29.45
50,0.08165,29.45
51,0.083317,29.45
52,0.084983,29.449
53,0.08665,29.446
54,0.08831700000000001,29.445
55,0.08998299999999999,29.445
56,0.09165,29.446
57,0.093317,29.442
58,0.094983,29.442
59,0.09665,29.438
60,0.098317,29.438
61,0.099983,29.439
62,0.10165,29.439
63,0.103317,29.44
64,0.104983,29.442
65,0.106633,29.442
66,0.108383,29.442
67,0.109967,29.443
68,0.111633,29.443
69,0.1133,29.446
70,0.114967,29.446
71,0.116633,29.445
72,0.1183,29.442
73,0.119967,29.442
74,0.121633,29.444
75,0.1233,29.439
76,0.124983,29.448
77,0.126633,29.448
78,0.1283,29.453
79,0.129967,29.455
80,0.131633,29.462
81,0.1333,29.462
82,0.134967,29.46
83,0.136633,29.462
84,0.1383,29.465
85,0.139967,29.465
86,0.14175,29.466
87,0.1433,29.468
88,0.144967,29.468
89,0.146633,29.476
90,0.1483,29.481
91,0.149967,29.481
92,0.151633,29.481
93,0.1533,29.483
94,0.15495,29.479
95,0.156617,29.476
96,0.158283,29.476
97,0.15995,29.477
98,0.161617,29.474
99,0.163283,29.474
100,0.16495,29.474
101,0.166617,29.469
102,0.168267,29.462
103,0.169933,29.462
104,0.1716,29.462
105,0.173267,29.458
106,0.174933,29.463
107,0.1766,29.463
108,0.178267,29.468
109,0.179933,29.465
110,0.1816,29.469
111,0.183267,29.469
112,0.184933,29.472
113,0.1866,29.474
114,0.188267,29.481
115,0.189933,29.481
116,0.1916,29.481
117,0.193267,29.48
118,0.194967,29.486
119,0.196617,29.486
120,0.198267,29.488
121,0.199933,29.493
122,0.2016,29.493
123,0.203267,29.493
124,0.204933,29.49
125,0.2066,29.482
126,0.208267,29.482
127,0.209933,29.478
128,0.2116,29.48
129,0.213267,29.476
130,0.214933,29.476
131,0.2166,29.483
132,0.218267,29.48
133,0.219933,29.478
134,0.2216,29.478
135,0.223267,29.481
136,0.224933,29.485
137,0.226633,29.489
138,0.228267,29.489
139,0.229917,29.486
140,0.231583,29.488
141,0.23325,29.488
142,0.234917,29.487
143,0.236583,29.488
144,0.23825,29.489
145,0.239917,29.489
146,0.241583,29.482
147,0.24325,29.475
148,0.244917,29.475
149,0.246583,29.475
150,0.24825,29.479
151,0.249917,29.481
152,0.251583,29.479
153,0.25325,29.479
154,0.254917,29.479
155,0.256583,29.474
156,0.25825,29.474
157,0.260033,29.475
158,0.261583,29.479
159,0.26325,29.475
160,0.264917,29.475
161,0.266583,29.477
162,0.26825,29.476
163,0.269917,29.476
164,0.271583,29.476
165,0.273267,29.482
166,0.274933,29.482
167,0.2766,29.484
168,0.27825,29.484
169,0.279917,29.485
170,0.281583,29.492
171,0.28325,29.492
172,0.284917,29.492
173,0.286583,29.49
174,0.288233,29.489
175,0.2899,29.489
176,0.291567,29.486
177,0.293233,29.494
178,0.2949,29.494
179,0.296567,29.494
180,0.298233,29.5
181,0.2999,29.501
182,0.301567,29.494
183,0.303233,29.494
184,0.3049,29.494
185,0.306567,29.495
186,0.308233,29.495
187,0.3099,29.495
188,0.311567,29.504
189,0.313233,29.513
190,0.3149,29.513
191,0.316567,29.51
192,0.318233,29.506
193,0.3199,29.496
194,0.321567,29.496
195,0.323233,29.49
196,0.3249,29.495
197,0.326567,29.501
198,0.328233,29.501
199,0.3299,29.51
200,0.331567,29.51
201,0.333233,29.503
202,0.3349,29.503
203,0.336567,29.502
204,0.338267,29.505
205,0.3399,29.505
206,0.341583,29.505
207,0.343233,29.506
208,0.344967,29.5
209,0.346567,29.5
210,0.348217,29.492
211,0.349883,29.5
212,0.35155,29.507
213,0.353217,29.507
214,0.354883,29.512
215,0.35655,29.513
216,0.358217,29.507
217,0.359883,29.507
218,0.36155,29.507
219,0.363217,29.504
220,0.364883,29.509
221,0.36655,29.509
222,0.368217,29.515
223,0.369883,29.511
224,0.37155,29.511
225,0.373217,29.515
226,0.374883,29.51
227,0.37655,29.508
228,0.378333,29.508
229,0.379883,29.51
230,0.38155,29.51
231,0.383217,29.516
232,0.384883,29.516
233,0.38655,29.518
234,0.388217,29.521
235,0.389883,29.529
236,0.39155,29.529
237,0.393217,29.533
238,0.394883,29.535
239,0.39655,29.535
240,0.398217,29.536
241,0.399883,29.532
242,0.40155,29.534
243,0.403217,29.534
244,0.404883,29.54
245,0.406533,29.548
246,0.4082,29.557
247,0.409867,29.557
248,0.411533,29.565
249,0.4132,29.572
250,0.4149,29.575
251,0.416533,29.575
252,0.4182,29.578
253,0.419867,29.582
254,0.421533,29.59
255,0.4232,29.59
256,0.424867,29.603
257,0.426533,29.613
258,0.4282,29.613
259,0.429867,29.617
260,0.431533,29.622
261,0.433233,29.632
262,0.434867,29.632
263,0.436533,29.641
264,0.4382,29.655
265,0.439867,29.667
266,0.441533,29.667
267,0.4432,29.675
268,0.444867,29.682
269,0.446517,29.692
270,0.448183,29.692
271,0.44985,29.699
272,0.451533,29.707
273,0.453183,29.707
274,0.45485,29.728
275,0.456517,29.743
276,0.458183,29.763
277,0.45985,29.763
278,0.461517,29.775
279,0.4632,29.78
280,0.46485,29.776
281,0.466517,29.776
282,0.468167,29.773
283,0.469833,29.774
284,0.4715,29.775
285,0.473167,29.775
286,0.474833,29.788
287,0.4765,29.789
288,0.478167,29.789
289,0.479867,29.794
290,0.481533,29.797
291,0.483167,29.786
292,0.484833,29.786
293,0.4865,29.786
294,0.488167,29.781
295,0.489833,29.775
296,0.4915,29.775
297,0.493167,29.775
298,0.494833,29.769
299,0.496617,29.76
300,0.498167,29.76
301,0.499833,29.752
302,0.5014999999999999,29.746
303,0.503167,29.74
304,0.504833,29.74
305,0.5065,29.735
306,0.508167,29.727
307,0.509833,29.727
308,0.5115,29.718
309,0.513167,29.716
310,0.514833,29.708
311,0.5165,29.708
312,0.518167,29.703
313,0.519833,29.694
314,0.521533,29.683
315,0.523167,29.683
316,0.524833,29.675
317,0.5265,29.666
318,0.52815,29.658
319,0.529817,29.658
320,0.531483,29.645
321,0.53315,29.628
322,0.534817,29.628
323,0.536483,29.614
324,0.53815,29.612
325,0.539817,29.607
326,0.541483,29.607
327,0.54315,29.603
328,0.544817,29.604
329,0.5464830000000001,29.602
330,0.54815,29.602
331,0.549817,29.605
332,0.5514829999999999,29.605
333,0.55315,29.596
334,0.55485,29.596
335,0.5564829999999999,29.584
336,0.55815,29.575
337,0.559817,29.568
338,0.561483,29.568
339,0.56315,29.568
340,0.564817,29.568
341,0.566483,29.568
342,0.56815,29.569
343,0.569817,29.571
344,0.571483,29.57
345,0.57315,29.57
346,0.574817,29.566
347,0.576483,29.555
348,0.5781500000000001,29.547
349,0.579817,29.547
350,0.5815,29.548
351,0.5831499999999999,29.55
352,0.584817,29.553
353,0.586467,29.553
354,0.588133,29.56
355,0.5898,29.558
356,0.591467,29.558
357,0.593133,29.556
358,0.5948,29.561
359,0.596467,29.558
360,0.598183,29.558
361,0.5998,29.557
362,0.601467,29.563
363,0.60315,29.564
364,0.6048,29.564
365,0.606467,29.563
366,0.608133,29.559
367,0.6098,29.557
368,0.611467,29.557
369,0.613133,29.554
370,0.614917,29.554
371,0.616467,29.557
372,0.618133,29.557
373,0.6198,29.558
374,0.621467,29.562
375,0.623133,29.562
376,0.6248,29.567
377,0.626467,29.568
378,0.6281330000000001,29.566
379,0.6298,29.566
380,0.631467,29.557
381,0.633167,29.556
382,0.6348,29.556
383,0.636467,29.556
384,0.638133,29.556
385,0.6398,29.56
386,0.641467,29.564
387,0.643133,29.564
388,0.6448,29.566
389,0.646467,29.569
390,0.6481170000000001,29.569
391,0.649783,29.574
392,0.65145,29.576
393,0.6531169999999999,29.583
394,0.654783,29.583
395,0.65645,29.592
396,0.658117,29.594
397,0.659783,29.594
398,0.66145,29.594
399,0.663117,29.597
400,0.664783,29.595
401,0.66645,29.598
402,0.668117,29.598
403,0.669783,29.599
404,0.67145,29.6
405,0.673117,29.604
406,0.674783,29.604
407,0.67645,29.612
408,0.678117,29.618
409,0.6798,29.618
410,0.68145,29.622
411,0.683117,29.621
412,0.6848,29.623
413,0.68645,29.623
414,0.688117,29.636
415,0.689783,29.646
416,0.69145,29.661
417,0.693117,29.661
418,0.694783,29.669
419,0.69645,29.673
420,0.698117,29.683
421,0.6998,29.683
422,0.70145,29.688
423,0.703117,29.7
424,0.704783,29.7
425,0.70645,29.713
426,0.7081,29.722
427,0.709767,29.736
428,0.711433,29.736
429,0.7131,29.743
430,0.714767,29.752
431,0.716533,29.765
432,0.7181,29.765
433,0.719767,29.784
434,0.721433,29.805
435,0.7231,29.822
436,0.7247670000000001,29.822
437,0.726433,29.839
438,0.7281,29.849
439,0.7297670000000001,29.849
440,0.731433,29.86
441,0.733167,29.876
442,0.7347669999999999,29.889
443,0.736433,29.889
444,0.738083,29.902
445,0.73975,29.924
446,0.741417,29.947
447,0.743083,29.947
448,0.74475,29.971
449,0.746417,29.999
450,0.7480830000000001,30.02
451,0.74975,30.02
452,0.751417,30.037
453,0.7530829999999999,30.068
454,0.75475,30.101
455,0.756417,30.101
456,0.758083,30.134
457,0.75975,30.168
458,0.761417,30.168
459,0.763083,30.197
460,0.76475,30.228
461,0.766417,30.26
462,0.768083,30.26
463,0.769733,30.292
464,0.7714,30.327
465,0.7730669999999999,30.357
466,0.774733,30.357
467,0.7764,30.388
468,0.7781,30.425
469,0.779733,30.465
470,0.7814,30.465
471,0.783067,30.512
472,0.784733,30.558
473,0.7864,30.558
474,0.788067,30.598
475,0.789733,30.639
476,0.7914,30.675
477,0.793067,30.675
478,0.794733,30.719
479,0.7964,30.769
480,0.798067,30.818
481,0.799733,30.818
482,0.8014,30.866
483,0.803067,30.913
484,0.804733,30.958
485,0.8064,30.958
486,0.808067,31.003
487,0.809733,31.052
488,0.8114,31.102
489,0.813067,31.102
490,0.814733,31.156
491,0.8164,31.212
492,0.818067,31.212
493,0.819733,31.266
494,0.8214,31.327
495,0.823067,31.386
496,0.824733,31.386
497,0.826383,31.441
498,0.82805,31.508
499,0.829717,31.573
500,0.831383,31.573
501,0.83305,31.638
502,0.8347830000000001,31.703
503,0.836383,31.768
504,0.83805,31.768
505,0.839717,31.833
506,0.841383,31.905
507,0.84305,31.905
508,0.8447170000000001,31.977
509,0.8464,32.049
510,0.848117,32.124
511,0.8497169999999999,32.124
512,0.851433,32.193
513,0.85305,32.267
514,0.854733,32.339
515,0.856383,32.339
516,0.85805,32.41
517,0.859717,32.486
518,0.861383,32.563
519,0.86305,32.563
520,0.864717,32.646
521,0.866383,32.73
522,0.868133,32.819
523,0.869717,32.819
524,0.871383,32.905
525,0.87305,32.987
526,0.874717,32.987
527,0.876383,33.07
528,0.87805,33.153
529,0.879717,33.244
530,0.881383,33.244
531,0.88305,33.331
532,0.884717,33.423
533,0.886383,33.515
534,0.888033,33.515
535,0.8897,33.605
536,0.891367,33.7
537,0.893033,33.797
538,0.8947000000000001,33.797
539,0.896367,33.89
540,0.898033,33.985
541,0.8997000000000001,33.985
542,0.901367,34.082
543,0.903033,34.179
544,0.9046999999999999,34.281
545,0.906367,34.281
546,0.908033,34.381
547,0.9097,34.484
548,0.911367,34.585
549,0.913033,34.585
550,0.9147,34.69
551,0.916367,34.793
552,0.918033,34.894
553,0.919733,34.894
554,0.921367,35.001
555,0.923033,35.103
556,0.9247,35.103
557,0.9263670000000001,35.213
558,0.928033,35.327
559,0.929733,35.437
560,0.9313669999999999,35.437
561,0.933033,35.551
562,0.9347,35.661
563,0.9363669999999999,35.772
564,0.938033,35.772
565,0.9397,35.883
566,0.941367,36
567,0.943033,36.117
568,0.9447,36.117
569,0.94635,36.232
570,0.948017,36.356
571,0.9496830000000001,36.47
572,0.95135,36.47
573,0.95305,36.594
574,0.9546829999999999,36.713
575,0.95635,36.713
576,0.958017,36.823
577,0.959683,36.941
578,0.96135,37.057
579,0.963017,37.057
580,0.964683,37.181
581,0.96635,37.306
582,0.968017,37.429
583,0.9697,37.429
584,0.97135,37.557
585,0.973017,37.687
586,0.974683,37.818
587,0.9763500000000001,37.818
588,0.978017,37.956
589,0.979683,38.087
590,0.9813499999999999,38.087
591,0.983017,38.221
592,0.984683,38.358
593,0.986467,38.486
594,0.988017,38.486
595,0.989683,38.618
596,0.99135,38.749
597,0.993017,38.882
598,0.994683,38.882
599,0.996367,39.017
600,0.998017,39.161
601,0.999683,39.303
602,1.00135,39.303
603,1.003017,39.445
604,1.004683,39.591
605,1.00635,39.729
606,1.008,39.729
607,1.009667,39.875
608,1.011333,40.01
609,1.013,40.01
610,1.014667,40.157
611,1.016333,40.302
612,1.018,40.442
613,1.019667,40.442
614,1.02135,40.59
615,1.023,40.728
616,1.024667,40.875
617,1.026333,40.875
618,1.028,41.025
619,1.029667,41.174
620,1.031317,41.326
621,1.032983,41.326
622,1.03465,41.473
623,1.036317,41.617
624,1.037983,41.617
625,1.03965,41.77
626,1.041317,41.925
627,1.042983,42.078
628,1.04465,42.078
629,1.046317,42.239
630,1.047983,42.395
631,1.04965,42.549
632,1.051317,42.549
633,1.052983,42.708
634,1.05465,42.87
635,1.056317,43.039
636,1.057983,43.039
637,1.059667,43.207
638,1.061317,43.375
639,1.062983,43.375
640,1.06465,43.53
641,1.066317,43.681
642,1.067967,43.833
643,1.069633,43.833
644,1.0713,43.986
645,1.072967,44.151
646,1.074633,44.316
647,1.0763,44.316
648,1.077967,44.482
649,1.079633,44.648
650,1.0813,44.821
651,1.082967,44.821
652,1.084633,44.998
653,1.0863,45.172
654,1.087967,45.345
655,1.089633,45.345
656,1.0913,45.512
657,1.092967,45.68
658,1.094633,45.68
659,1.0963,45.853
660,1.097967,46.029
661,1.099633,46.195
662,1.1013,46.195
663,1.102967,46.364
664,1.104633,46.539
665,1.1063,46.709
666,1.107967,46.709
667,1.10965,46.886
668,1.1113,47.064
669,1.112967,47.238
670,1.114633,47.238
671,1.1163,47.418
672,1.117967,47.599
673,1.119633,47.599
674,1.1213,47.776
675,1.122967,47.96
676,1.124633,48.142
677,1.1263,48.142
678,1.12795,48.325
679,1.129617,48.51
680,1.131283,48.694
681,1.13295,48.694
682,1.134617,48.879
683,1.136283,49.068
684,1.13795,49.256
685,1.139667,49.256
686,1.141283,49.44
687,1.14295,49.625
688,1.144617,49.811
689,1.146283,49.811
690,1.14795,49.999
691,1.149617,50.194
692,1.151283,50.194
693,1.15295,50.392
694,1.154617,50.585
695,1.156283,50.779
696,1.15795,50.779
697,1.159617,50.974
698,1.161283,51.173
699,1.16295,51.373
700,1.164617,51.373
701,1.166283,51.577
702,1.16795,51.778
703,1.169617,51.979
704,1.171283,51.979
705,1.17295,52.18
706,1.174617,52.377
707,1.176283,52.377
708,1.17795,52.573
709,1.179617,52.77
710,1.181283,52.967
711,1.18295,52.967
712,1.18465,53.165
713,1.186267,53.365
714,1.187933,53.567
715,1.189667,53.567
716,1.191267,53.772
717,1.192933,53.979
718,1.1946,54.188
719,1.196267,54.188
720,1.197933,54.386
721,1.1996,54.587
722,1.201267,54.796
723,1.202933,54.796
724,1.2046,54.998
725,1.206267,55.212
726,1.207967,55.212
727,1.2096,55.433
728,1.211267,55.642
729,1.212933,55.854
730,1.2146,55.854
731,1.216267,56.065
732,1.217933,56.266
733,1.2196,56.483
734,1.221267,56.483
735,1.223017,56.699
736,1.2246,56.92
737,1.226267,57.145
738,1.227933,57.145
739,1.2296,57.357
740,1.231267,57.569
741,1.232933,57.569
742,1.2346,57.779
743,1.236267,57.987
744,1.237933,58.206
745,1.2396,58.206
746,1.241267,58.429
747,1.242933,58.649
748,1.2446,58.874
749,1.246267,58.874
750,1.247917,59.098
751,1.249583,59.327
752,1.25125,59.56
753,1.252917,59.56
754,1.254583,59.78
755,1.25625,59.998
756,1.257933,60.216
757,1.259583,60.216
758,1.26125,60.433
759,1.262917,60.662
760,1.264583,60.662
761,1.26625,60.89
762,1.267917,61.126
763,1.269583,61.362
764,1.27125,61.362
765,1.272933,61.594
766,1.274583,61.826
767,1.27625,62.052
768,1.277917,62.052
769,1.2796,62.269
770,1.28125,62.495
771,1.282917,62.727
772,1.284583,62.727
773,1.28625,62.954
774,1.287917,63.191
775,1.289583,63.191
776,1.29125,63.428
777,1.292917,63.658
778,1.294583,63.892
779,1.29625,63.892
780,1.297917,64.126
781,1.299583,64.36
782,1.30125,64.604
783,1.302917,64.604
784,1.304583,64.849
785,1.30625,65.087
786,1.307967,65.32599999999999
787,1.309567,65.32599999999999
788,1.311233,65.559
789,1.3129,65.791
790,1.314567,65.791
791,1.316233,66.03700000000001
792,1.3179,66.282
793,1.319567,66.529
794,1.321217,66.529
795,1.322883,66.776
796,1.32455,67.027
797,1.326217,67.26900000000001
798,1.327883,67.26900000000001
799,1.32955,67.51000000000001
800,1.331217,67.76300000000001
801,1.332883,68.005
802,1.33455,68.005
803,1.336217,68.25700000000001
804,1.337883,68.50700000000001
805,1.33955,68.752
806,1.3413,68.752
807,1.342883,69
808,1.34455,69.251
809,1.346217,69.251
810,1.347883,69.5
811,1.34955,69.745
812,1.351217,69.988
813,1.352883,69.988
814,1.35455,70.23399999999999
815,1.356233,70.47799999999999
816,1.35795,70.726
817,1.35955,70.726
818,1.361217,70.97499999999999
819,1.362883,71.224
820,1.36455,71.48
821,1.3662,71.48
822,1.367867,71.73399999999999
823,1.369533,71.995
824,1.3712,71.995
825,1.372867,72.25
826,1.374533,72.50700000000001
827,1.3762,72.76600000000001
828,1.377867,72.76600000000001
829,1.379533,73.017
830,1.3812,73.26900000000001
831,1.382867,73.524
832,1.384533,73.524
833,1.3862,73.776
834,1.387867,74.041
835,1.389533,74.301
836,1.3912,74.301
837,1.392867,74.56
838,1.394533,74.825
839,1.3962,75.08
840,1.397867,75.08
841,1.399533,75.334
842,1.4012,75.587
843,1.402867,75.587
844,1.404533,75.837
845,1.4062,76.092
846,1.407867,76.34699999999999
847,1.409533,76.34699999999999
848,1.4112,76.60899999999999
849,1.412867,76.871
850,1.414533,77.134
851,1.4162,77.134
852,1.417867,77.401
853,1.419533,77.663
854,1.4212,77.923
855,1.422867,77.923
856,1.424533,78.18000000000001
857,1.42625,78.432
858,1.42785,78.432
859,1.429517,78.694
860,1.431183,78.95399999999999
861,1.432867,79.21599999999999
862,1.434517,79.21599999999999
863,1.436183,79.479
864,1.43785,79.732
865,1.439517,79.991
866,1.441183,79.991
867,1.44295,80.25
868,1.444517,80.509
869,1.446183,80.774
870,1.44785,80.774
871,1.449517,81.036
872,1.451183,81.29900000000001
873,1.45285,81.562
874,1.454517,81.562
875,1.456183,81.828
876,1.45785,82.093
877,1.4596,82.093
878,1.461183,82.36
879,1.46285,82.625
880,1.464517,82.883
881,1.466183,82.883
882,1.46785,83.14100000000001
883,1.469517,83.393
884,1.471183,83.649
885,1.47285,83.649
886,1.474517,83.907
887,1.476183,84.167
888,1.47785,84.429
889,1.479517,84.429
890,1.481183,84.691
891,1.48285,84.953
892,1.484517,84.953
893,1.486183,85.211
894,1.487833,85.473
895,1.4895,85.733
896,1.491167,85.733
897,1.492833,85.992
898,1.4945,86.255
899,1.496167,86.51300000000001
900,1.497867,86.51300000000001
901,1.499533,86.77200000000001
902,1.501167,87.027
903,1.502833,87.283
904,1.5045,87.283
905,1.506167,87.539
906,1.507833,87.797
907,1.5095,87.797
908,1.511167,88.05500000000001
909,1.512833,88.31399999999999
910,1.5145,88.575
911,1.516167,88.575
912,1.517833,88.833
913,1.5195,89.093
914,1.521167,89.352
915,1.522833,89.352
916,1.5245,89.61199999999999
917,1.526167,89.86499999999999
918,1.527833,90.119
919,1.5295,90.119
920,1.531167,90.38
921,1.532833,90.64
922,1.5345,90.902
923,1.536167,90.902
924,1.537833,91.161
925,1.5395,91.40900000000001
926,1.541167,91.40900000000001
927,1.542833,91.658
928,1.544533,91.907
929,1.546167,92.16
930,1.547817,92.16
931,1.549483,92.423
932,1.55115,92.676
933,1.552817,92.937
934,1.554483,92.937
935,1.55615,93.196
936,1.557817,93.44499999999999
937,1.559483,93.70399999999999
938,1.561217,93.70399999999999
939,1.562817,93.955
940,1.564517,94.205
941,1.56615,94.205
942,1.56785,94.458
943,1.569483,94.708
944,1.57115,94.965
945,1.572817,94.965
946,1.574483,95.224
947,1.57615,95.479
948,1.5779,95.73099999999999
949,1.579483,95.73099999999999
950,1.58115,95.979
951,1.582817,96.22
952,1.584483,96.462
953,1.58615,96.462
954,1.587817,96.708
955,1.589483,96.959
956,1.59115,97.20399999999999
957,1.592817,97.20399999999999
958,1.594567,97.456
959,1.59615,97.70699999999999
960,1.597817,97.70699999999999
961,1.599483,97.946
962,1.60115,98.19
963,1.602817,98.432
964,1.604483,98.432
965,1.606133,98.663
966,1.6078,98.899
967,1.609467,99.14
968,1.611117,99.14
969,1.612783,99.378
970,1.61445,99.625
971,1.616117,99.873
972,1.617783,99.873
973,1.61945,100.114
974,1.621117,100.358
975,1.622783,100.358
976,1.62445,100.595
977,1.626117,100.833
978,1.627783,101.073
979,1.62945,101.073
980,1.631117,101.302
981,1.632783,101.537
982,1.63445,101.768
983,1.636117,101.768
984,1.6378,101.992
985,1.63945,102.225
986,1.641117,102.456
987,1.642783,102.456
988,1.64445,102.683
989,1.646117,102.916
990,1.647783,103.15
991,1.649483,103.15
992,1.651117,103.38
