"ID","sea_time","fid_signal"
1,0,1170.412
2,0.001667,1170.412
3,0.003333,1166.761
4,0.005,1167.655
5,0.006667,1166.984
6,0.008333,1166.984
7,0.01,1167.953
8,0.011683,1170.561
9,0.013333,1165.867
10,0.015,1165.867
11,0.016667,1165.42
12,0.018317,1163.93
13,0.019983,1161.993
14,0.02165,1161.993
15,0.023317,1163.781
16,0.024983,1166.016
17,0.02665,1166.016
18,0.028433,1171.008
19,0.029983,1172.796
20,0.03165,1175.329
21,0.033317,1175.329
22,0.034983,1173.094
23,0.036717,1167.208
24,0.038317,1165.867
25,0.039983,1165.867
26,0.04165,1161.173
27,0.043317,1160.651
28,0.044983,1164.749
29,0.04665,1164.749
30,0.048317,1167.432
31,0.049983,1170.114
32,0.05165,1170.263
33,0.053317,1170.263
34,0.054983,1168.177
35,0.05665,1164.153
36,0.058317,1164.153
37,0.060017,1163.11
38,0.06165,1163.557
39,0.063317,1162.663
40,0.064983,1162.663
41,0.06665,1162.738
42,0.068317,1164.6
43,0.069983,1165.271
44,0.07165000000000001,1165.271
45,0.07331699999999999,1167.58
46,0.07498299999999999,1167.879
47,0.07663300000000001,1166.612
48,0.07829999999999999,1166.612
49,0.079967,1168.251
50,0.081633,1168.847
51,0.0833,1168.847
52,0.084967,1170.561
53,0.086633,1170.784
54,0.0883,1167.357
55,0.08996700000000001,1167.357
56,0.09163300000000001,1167.208
57,0.09329999999999999,1166.314
58,0.094967,1165.569
59,0.096633,1165.569
60,0.0983,1168.624
61,0.099983,1164.6
62,0.101633,1164.228
63,0.1033,1164.228
64,0.104967,1165.643
65,0.106633,1164.898
66,0.1083,1168.698
67,0.109967,1168.698
68,0.111633,1168.773
69,0.1133,1166.686
70,0.114967,1166.686
71,0.116633,1168.4
72,0.1183,1165.494
73,0.119967,1164.451
74,0.121633,1164.451
75,0.1233,1165.047
76,0.124967,1165.047
77,0.126633,1165.941
78,0.1283,1165.941
79,0.129983,1166.09
80,0.131633,1167.58
81,0.1333,1164.004
82,0.134967,1164.004
83,0.136633,1162.663
84,0.138283,1162.514
85,0.13995,1162.514
86,0.141617,1161.024
87,0.143283,1161.099
88,0.14495,1161.396
89,0.146667,1161.396
90,0.148283,1159.832
91,0.14995,1159.012
92,0.151617,1161.099
93,0.153283,1161.099
94,0.15495,1165.047
95,0.1566,1166.91
96,0.158267,1171.455
97,0.159933,1171.455
98,0.1616,1173.466
99,0.163267,1170.412
100,0.164933,1171.157
101,0.1666,1171.157
102,0.168283,1167.282
103,0.169933,1166.016
104,0.1716,1166.016
105,0.173267,1165.345
106,0.174933,1165.941
107,0.1766,1167.133
108,0.178283,1167.133
109,0.179933,1165.494
110,0.1816,1166.835
111,0.183267,1164.824
112,0.184933,1164.824
113,0.1866,1164.526
114,0.188267,1168.326
115,0.189933,1171.38
116,0.1916,1171.38
117,0.193267,1174.212
118,0.194933,1176
119,0.1966,1176
120,0.19825,1171.008
121,0.199917,1166.388
122,0.201583,1163.93
123,0.20325,1163.93
124,0.204917,1162.291
125,0.206583,1163.185
126,0.20825,1167.58
127,0.209917,1167.58
128,0.211583,1170.412
129,0.21325,1170.933
130,0.214917,1171.008
131,0.216583,1171.008
132,0.21825,1167.432
133,0.219917,1167.357
134,0.221617,1167.357
135,0.22325,1166.984
136,0.224917,1166.314
137,0.226583,1165.867
138,0.22825,1165.867
139,0.229917,1164.377
140,0.231617,1164.004
141,0.23325,1163.855
142,0.234917,1163.855
143,0.236583,1162.067
144,0.23825,1158.789
145,0.239917,1158.863
146,0.241583,1158.863
147,0.24325,1159.087
148,0.244917,1161.247
149,0.246583,1166.165
150,0.248283,1166.165
151,0.249933,1166.835
152,0.251583,1164.898
153,0.25325,1164.898
154,0.254917,1163.036
155,0.256567,1162.887
156,0.258233,1162.887
157,0.2599,1162.887
158,0.261567,1167.506
159,0.263233,1169.071
160,0.265033,1169.369
161,0.266567,1169.369
162,0.268233,1168.177
163,0.2699,1165.494
164,0.271567,1164.749
165,0.273233,1164.749
166,0.2749,1161.769
167,0.276567,1162.663
168,0.278233,1162.663
169,0.2799,1164.824
170,0.281567,1167.879
171,0.283233,1168.996
172,0.2849,1168.996
173,0.286567,1170.263
174,0.288233,1171.529
175,0.2899,1172.721
176,0.291567,1172.721
177,0.293233,1171.976
178,0.2949,1171.455
179,0.296567,1169.667
180,0.298233,1169.667
181,0.2999,1168.475
182,0.301567,1170.188
183,0.303233,1170.784
184,0.3049,1170.784
185,0.306567,1170.71
186,0.308233,1170.933
187,0.3099,1170.933
188,0.3116,1172.2
189,0.313233,1172.721
190,0.3149,1172.647
191,0.31655,1172.647
192,0.318217,1171.604
193,0.319883,1169.443
194,0.32155,1170.114
195,0.323217,1170.114
196,0.324933,1171.678
197,0.32655,1170.263
198,0.328217,1171.678
199,0.329883,1171.678
200,0.33155,1172.945
201,0.333217,1171.082
202,0.334883,1171.082
203,0.33655,1174.584
204,0.338217,1177.639
205,0.339883,1181.662
206,0.34155,1181.662
207,0.343217,1188.666
208,0.344883,1195.818
209,0.34655,1205.653
210,0.348217,1205.653
211,0.349917,1214.966
212,0.35155,1229.42
213,0.353217,1245.365
214,0.354883,1245.365
215,0.35655,1264.587
216,0.358217,1285.523
217,0.359883,1306.459
218,0.36155,1306.459
219,0.363217,1330.748
220,0.364883,1357.794
221,0.36655,1357.794
222,0.368217,1387
223,0.369883,1423.731
224,0.37155,1461.431
225,0.373217,1461.431
226,0.374883,1501.59
227,0.376533,1542.941
228,0.3782,1584.44
229,0.379867,1584.44
230,0.381533,1626.387
231,0.383283,1667.738
232,0.384867,1714.006
233,0.386533,1714.006
234,0.3882,1759.306
235,0.389867,1805.648
236,0.391533,1805.648
237,0.3932,1853.481
238,0.394867,1899.078
239,0.39655,1945.719
240,0.39825,1945.719
241,0.399967,1994.595
242,0.401533,2047.42
243,0.4032,2101.883
244,0.404867,2101.883
245,0.406533,2156.571
246,0.4082,2214.015
247,0.409867,2272.8
248,0.411533,2272.8
249,0.4132,2334.788
250,0.414867,2398.565
251,0.416533,2463.907
252,0.4182,2463.907
253,0.419867,2527.162
254,0.421533,2592.132
255,0.4232,2592.132
256,0.424867,2661.347
257,0.426533,2731.681
258,0.4282,2807.602
259,0.429867,2807.602
260,0.431533,2886.728
261,0.4332,2967.119
262,0.434867,3057.867
263,0.436533,3057.867
264,0.438183,3151
265,0.43985,3251.657
266,0.441517,3364.682
267,0.443183,3364.682
268,0.44485,3489.927
269,0.446517,3634.542
270,0.448167,3634.542
271,0.449833,3806.278
272,0.4515,4015.341
273,0.453167,4274.994
274,0.454833,4274.994
275,0.4565,4600.957
276,0.458167,5011.335
277,0.459833,5527.064
278,0.4615,5527.064
279,0.463183,6168.038
280,0.46485,6952.509
281,0.4665,7898.211
282,0.4682,7898.211
283,0.469833,9011.18
284,0.4715,10293.052
285,0.473167,10293.052
286,0.474833,11741.742
287,0.4765,13336.688
288,0.478167,15051.514
289,0.479833,15051.514
290,0.4815,16846.285
291,0.483167,18672.496
292,0.484833,20476.207
293,0.4865,20476.207
294,0.488167,22203.4
295,0.489833,23795.217
296,0.4915,25203.303
297,0.493167,25203.303
298,0.494833,26385.412
299,0.496483,27305.111
300,0.49815,27952.119
301,0.499817,27952.119
302,0.5016,28320.104
303,0.50315,28413.906
304,0.504817,28413.906
305,0.506483,28253.869
306,0.50815,27860.328
307,0.509817,27264.207
308,0.511483,27264.207
309,0.51315,26500.598
310,0.514817,25608.018
311,0.516483,24620.221
312,0.51815,24620.221
313,0.519817,23567.08
314,0.521483,22479.146
315,0.52315,21377.057
316,0.524817,21377.057
317,0.526483,20281.002
318,0.52815,19207.299
319,0.529817,19207.299
320,0.531483,18165.932
321,0.53315,17170.758
322,0.534817,16222.745
323,0.536483,16222.745
324,0.53815,15329.048
325,0.539817,14489.069
326,0.541483,13699.308
327,0.543183,13699.308
328,0.5449000000000001,12964.383
329,0.5464830000000001,12280.718
330,0.54815,11648.61
331,0.549817,11648.61
332,0.5514829999999999,11060.238
333,0.55315,10513.216
334,0.554817,10006.726
335,0.556467,10006.726
336,0.558133,9537.638000000001
337,0.5598,9104.609
338,0.561467,9104.609
339,0.563133,8705.853999999999
340,0.5648,8334.145
341,0.5664670000000001,7988.214
342,0.568133,7988.214
343,0.5698,7667.765
344,0.571483,7370.114
345,0.573133,7090.196
346,0.5748,7090.196
347,0.576467,6831.735
348,0.578133,6592.646
349,0.5798,6363.69
350,0.581467,6363.69
351,0.583133,6154.626
352,0.5848,5953.014
353,0.586517,5953.014
354,0.588133,5765.11
355,0.5898,5589.202
356,0.591467,5422.384
357,0.593133,5422.384
358,0.5948,5269.274
359,0.596467,5118.176
360,0.598133,4981.309
361,0.5998,4981.309
362,0.601467,4850.03
363,0.603133,4721.433
364,0.6048,4601.702
365,0.606467,4601.702
366,0.608133,4484.952
367,0.6098,4374.385
368,0.611467,4374.385
369,0.613133,4273.43
370,0.614833,4180.297
371,0.616483,4091.337
372,0.618167,4091.337
373,0.6199170000000001,4004.389
374,0.6214499999999999,3918.186
375,0.623117,3833.026
376,0.624783,3833.026
377,0.62645,3750.622
378,0.628117,3675.669
379,0.629783,3604.144
380,0.63145,3604.144
381,0.633117,3535.226
382,0.634783,3470.257
383,0.6365499999999999,3404.841
384,0.638117,3404.841
385,0.639783,3342.852
386,0.64145,3283.844
387,0.643117,3283.844
388,0.644783,3226.623
389,0.64645,3171.489
390,0.6481170000000001,3122.836
391,0.649783,3122.836
392,0.65145,3076.568
393,0.6531169999999999,3028.661
394,0.654783,2984.926
395,0.65645,2984.926
396,0.658117,2938.136
397,0.659783,2894.625
398,0.66145,2853.721
399,0.663117,2853.721
400,0.664783,2812.743
401,0.66645,2774.224
402,0.668117,2774.224
403,0.669783,2736.896
404,0.67145,2704.337
405,0.673117,2670.959
406,0.674783,2670.959
407,0.676433,2635.494
408,0.6781,2600.774
409,0.679767,2567.47
410,0.681433,2567.47
411,0.683117,2537.668
412,0.684817,2511.367
413,0.686433,2483.651
414,0.6881,2483.651
415,0.689767,2453.774
416,0.691433,2423.078
417,0.6931,2396.777
418,0.694767,2396.777
419,0.696433,2369.508
420,0.6981000000000001,2345.219
421,0.699767,2345.219
422,0.701467,2320.483
423,0.7030999999999999,2294.853
424,0.704767,2272.204
425,0.706433,2272.204
426,0.7081,2247.468
427,0.709767,2226.68
428,0.711433,2204.329
429,0.7131,2204.329
430,0.714767,2182.35
431,0.716433,2162.829
432,0.7181,2145.246
433,0.719767,2145.246
434,0.7215,2126.917
435,0.7231,2110.451
436,0.7247670000000001,2110.451
437,0.726433,2095.252
438,0.7281,2078.19
439,0.7297670000000001,2061.65
440,0.731433,2061.65
441,0.7331,2043.471
442,0.7347669999999999,2025.068
443,0.736417,2009.347
444,0.73815,2009.347
445,0.739733,1993.477
446,0.7413999999999999,1978.204
447,0.743067,1966.432
448,0.744733,1966.432
449,0.746417,1952.574
450,0.748067,1940.131
451,0.749733,1930.371
452,0.7514,1930.371
453,0.753067,1917.258
454,0.75475,1903.4
455,0.756417,1903.4
456,0.7581,1891.702
457,0.759733,1877.546
458,0.7614,1864.061
459,0.7630670000000001,1864.061
460,0.764733,1850.128
461,0.7664,1836.792
462,0.7680670000000001,1826.063
463,0.769733,1826.063
464,0.7714,1816.079
465,0.7730669999999999,1806.095
466,0.774733,1796.931
467,0.7764,1796.931
468,0.778067,1785.83
469,0.779733,1774.43
470,0.7814,1774.43
471,0.783067,1765.862
472,0.784733,1753.42
473,0.7864,1743.883
474,0.788067,1743.883
475,0.789767,1734.123
476,0.7914,1722.723
477,0.793067,1714.751
478,0.794733,1714.751
479,0.796383,1707.524
480,0.79805,1700.148
481,0.799717,1695.678
482,0.801383,1695.678
483,0.80305,1690.686
484,0.804717,1683.608
485,0.806383,1683.608
486,0.80805,1677.573
487,0.809717,1668.185
488,0.811383,1660.511
489,0.8130500000000001,1660.511
490,0.814717,1651.123
491,0.816383,1643.077
492,0.8180500000000001,1636.147
493,0.819717,1636.147
494,0.821383,1625.121
495,0.823067,1618.639
496,0.824717,1612.38
497,0.826383,1612.38
498,0.82805,1606.494
499,0.829717,1603.663
500,0.831383,1595.989
501,0.83305,1595.989
502,0.834717,1586.527
503,0.836383,1576.468
504,0.83805,1576.468
505,0.839767,1570.508
506,0.841383,1566.261
507,0.84305,1560.077
508,0.8447170000000001,1560.077
509,0.846383,1556.054
510,0.84805,1546.74
511,0.8497169999999999,1541.302
512,0.851383,1541.302
513,0.85305,1537.353
514,0.8547169999999999,1533.106
515,0.856417,1529.455
516,0.858033,1529.455
517,0.8597,1525.581
518,0.861367,1521.558
519,0.8630330000000001,1521.558
520,0.8647,1519.471
521,0.866367,1515.15
522,0.8680330000000001,1508.445
523,0.8697,1508.445
524,0.871367,1500.621
525,0.87315,1492.426
526,0.8747,1488.253
527,0.876367,1488.253
528,0.878033,1486.093
529,0.8797,1485.869
530,0.881383,1483.038
531,0.883033,1483.038
532,0.8847,1480.728
533,0.886367,1476.78
534,0.888033,1473.129
535,0.8897,1473.129
536,0.891367,1467.019
537,0.893033,1458.898
538,0.8947000000000001,1458.898
539,0.896367,1453.236
540,0.898033,1446.679
541,0.8997000000000001,1443.774
542,0.901367,1443.774
543,0.90305,1442.432
544,0.9046999999999999,1436.546
545,0.906367,1435.205
546,0.908033,1435.205
547,0.9097,1431.927
548,0.911367,1427.382
549,0.913033,1428.127
550,0.9147,1428.127
551,0.91635,1422.688
552,0.918017,1420.453
553,0.919683,1420.453
554,0.92135,1421.273
555,0.923017,1416.579
556,0.924683,1414.493
557,0.92635,1414.493
558,0.928017,1408.979
559,0.929683,1403.168
560,0.93135,1400.113
561,0.933017,1400.113
562,0.934683,1395.196
563,0.93635,1394.302
564,0.938017,1391.172
565,0.939683,1391.172
566,0.94135,1386.33
567,0.943017,1384.169
568,0.9446830000000001,1380.369
569,0.94635,1380.369
570,0.948017,1378.357
571,0.9496830000000001,1377.687
572,0.95135,1377.687
573,0.953017,1374.632
574,0.9546829999999999,1372.024
575,0.95635,1369.268
576,0.958067,1369.268
577,0.959683,1365.095
578,0.96135,1364.127
579,0.963017,1361.147
580,0.964683,1361.147
581,0.96635,1357.272
582,0.968017,1357.719
583,0.969683,1354.068
584,0.97135,1354.068
585,0.973017,1352.131
586,0.9747670000000001,1349.375
587,0.976333,1349.375
588,0.978,1342.967
589,0.979667,1341.328
590,0.981333,1338.646
591,0.983,1338.646
592,0.984667,1335.74
593,0.986333,1337.379
594,0.988,1334.548
595,0.989667,1334.548
596,0.991433,1334.474
597,0.993,1336.411
598,0.994667,1334.846
599,0.996333,1334.846
600,0.998,1334.846
601,0.999667,1332.983
602,1.001333,1326.725
603,1.003,1326.725
604,1.004667,1320.913
605,1.006333,1316.592
606,1.008,1316.592
607,1.009667,1314.506
608,1.011333,1314.133
609,1.013,1312.569
610,1.014667,1312.569
611,1.016333,1312.196
612,1.018,1308.396
613,1.019667,1308.694
614,1.021333,1308.694
615,1.023,1307.502
616,1.024667,1306.832
617,1.026333,1305.64
618,1.028,1305.64
619,1.029667,1301.989
620,1.031317,1299.903
621,1.032983,1299.903
622,1.03465,1299.903
623,1.0363,1301.318
624,1.037967,1300.201
625,1.039633,1300.201
626,1.0413,1301.244
627,1.042983,1299.158
628,1.044667,1298.711
629,1.046317,1298.711
630,1.048033,1296.848
631,1.049633,1291.186
632,1.0513,1285.374
633,1.052967,1285.374
634,1.054633,1282.021
635,1.0563,1282.245
636,1.057967,1282.245
637,1.059633,1282.841
638,1.0613,1283.958
639,1.062967,1281.872
640,1.064633,1281.872
641,1.0663,1279.488
642,1.067967,1280.457
643,1.069633,1278.743
644,1.0713,1278.743
645,1.072967,1277.178
646,1.074633,1274.496
647,1.0763,1273.826
648,1.077967,1273.826
649,1.079633,1274.72
650,1.0813,1274.794
651,1.082967,1273.379
652,1.084633,1273.379
653,1.0863,1270.771
654,1.087967,1266.822
655,1.089633,1266.822
656,1.0913,1262.799
657,1.092967,1261.905
658,1.094617,1259.521
659,1.096283,1259.521
660,1.09795,1257.956
661,1.099617,1258.031
662,1.101283,1260.117
663,1.10295,1260.117
664,1.104617,1261.458
665,1.106283,1261.309
666,1.10795,1257.881
667,1.109667,1257.881
668,1.111283,1252.741
669,1.11295,1251.921
670,1.114617,1251.921
671,1.116283,1251.623
672,1.11795,1252.368
673,1.119617,1251.549
674,1.121283,1251.549
675,1.12295,1249.686
676,1.12465,1246.184
677,1.126283,1245.886
678,1.12795,1245.886
679,1.129617,1245.439
680,1.131283,1242.682
681,1.13295,1243.874
682,1.134617,1243.874
683,1.136283,1242.31
684,1.13795,1242.086
685,1.139617,1240.671
686,1.141283,1240.671
687,1.14295,1237.02
688,1.144617,1238.063
689,1.146283,1238.063
690,1.14795,1240.522
691,1.149617,1241.341
692,1.151283,1244.023
693,1.15295,1244.023
694,1.154617,1242.682
695,1.156267,1236.126
696,1.157933,1233.295
697,1.1596,1233.295
698,1.161267,1232.922
699,1.162933,1232.55
700,1.1646,1232.177
701,1.166267,1232.177
702,1.167933,1233.518
703,1.1696,1232.475
704,1.171267,1232.475
705,1.172933,1232.922
706,1.1746,1233.444
707,1.176267,1230.836
708,1.177933,1230.836
709,1.1796,1230.985
710,1.181267,1228.601
711,1.182933,1228.601
712,1.1846,1228.601
713,1.186267,1230.314
714,1.187933,1230.016
715,1.18965,1228.601
716,1.1913,1228.601
717,1.192933,1227.185
718,1.194667,1223.311
719,1.196267,1219.362
720,1.197933,1219.362
721,1.1996,1219.287
722,1.201267,1220.256
723,1.20295,1220.256
724,1.2046,1224.652
725,1.206267,1224.503
726,1.207933,1222.864
727,1.2096,1222.864
728,1.211267,1224.056
729,1.212933,1220.48
730,1.2146,1220.256
731,1.21625,1220.256
732,1.217917,1221.672
733,1.219583,1218.244
734,1.22125,1216.456
735,1.222917,1216.456
736,1.224583,1214.37
737,1.22625,1212.954
738,1.227917,1212.954
739,1.229583,1213.253
740,1.23125,1214.966
741,1.232917,1214.37
742,1.234583,1214.37
743,1.23625,1216.382
744,1.237917,1215.786
745,1.239583,1213.7
746,1.24125,1213.7
747,1.242917,1213.327
748,1.244583,1207.516
749,1.24625,1205.951
750,1.247917,1205.951
751,1.249583,1206.323
752,1.25125,1207.069
753,1.252917,1207.069
754,1.254583,1211.762
755,1.25625,1213.402
756,1.257917,1212.209
757,1.259583,1212.209
758,1.26125,1212.656
759,1.262917,1209.08
760,1.264583,1206.398
761,1.26625,1206.398
762,1.26795,1204.014
763,1.26965,1202.002
764,1.27125,1198.947
765,1.272917,1198.947
766,1.274567,1197.532
767,1.276233,1198.873
768,1.2779,1200.512
769,1.279567,1200.512
770,1.281233,1202.673
771,1.2829,1202.151
772,1.284567,1202.151
773,1.286233,1201.183
774,1.2879,1202.449
775,1.289567,1203.343
776,1.291233,1203.343
777,1.2929,1205.28
778,1.294567,1206.174
779,1.296233,1202.598
780,1.2979,1202.598
781,1.299567,1199.99
782,1.301233,1198.5
783,1.3029,1196.936
784,1.304567,1196.936
785,1.306233,1197.83
786,1.3079,1199.022
787,1.309567,1199.022
788,1.311233,1199.022
789,1.312933,1199.469
790,1.314567,1194.924
791,1.316233,1194.924
792,1.3179,1192.242
793,1.319567,1193.285
794,1.321233,1192.391
795,1.322883,1192.391
796,1.32455,1195.669
797,1.326217,1200.885
798,1.327883,1199.543
799,1.32955,1199.543
800,1.331217,1200.885
801,1.332883,1199.469
802,1.33455,1195.52
803,1.33625,1195.52
804,1.337867,1195.893
805,1.339533,1192.54
806,1.341217,1192.54
807,1.342917,1191.497
808,1.344533,1193.434
809,1.346333,1195.446
810,1.347867,1195.446
811,1.349533,1196.712
812,1.3512,1198.649
813,1.352867,1196.712
814,1.354533,1196.712
815,1.3562,1194.254
816,1.357867,1193.136
817,1.359533,1190.975
818,1.3612,1190.975
819,1.362867,1191.795
820,1.364533,1189.485
821,1.3662,1189.485
822,1.367867,1188.74
823,1.369533,1187.548
824,1.3712,1185.909
825,1.372867,1185.909
826,1.374533,1185.313
827,1.3762,1185.164
828,1.377883,1185.983
829,1.379533,1185.983
830,1.3812,1186.803
831,1.382867,1188.293
832,1.384533,1191.72
833,1.3862,1191.72
834,1.387867,1190.752
835,1.389533,1190.826
836,1.3912,1190.826
837,1.392867,1193.732
838,1.394517,1192.316
839,1.396183,1196.191
840,1.39785,1196.191
841,1.399517,1193.136
842,1.401183,1190.975
843,1.40285,1188.889
844,1.404517,1188.889
845,1.406183,1187.697
846,1.407883,1191.199
847,1.409517,1189.411
848,1.411183,1189.411
849,1.41285,1189.56
850,1.414517,1186.505
851,1.416217,1182.705
852,1.41785,1182.705
853,1.419517,1184.717
854,1.421183,1184.344
855,1.42285,1184.344
856,1.424517,1186.058
857,1.426183,1187.399
858,1.42785,1186.132
859,1.429517,1186.132
860,1.431217,1187.772
861,1.43285,1187.026
862,1.434517,1189.336
863,1.436183,1189.336
864,1.43785,1187.548
865,1.439517,1186.43
866,1.441183,1187.25
867,1.44285,1187.25
868,1.444517,1186.356
869,1.446183,1189.113
870,1.447933,1189.634
871,1.449517,1189.634
872,1.451183,1190.23
873,1.45285,1187.921
874,1.454517,1187.921
875,1.456167,1184.791
876,1.457833,1184.717
877,1.4595,1182.482
878,1.461167,1182.482
879,1.462833,1184.27
880,1.464633,1184.642
881,1.466167,1183.078
882,1.467833,1183.078
883,1.4695,1186.43
884,1.471167,1184.866
885,1.472833,1183.599
886,1.4745,1183.599
887,1.476167,1185.238
888,1.477833,1180.396
889,1.4795,1180.396
890,1.481267,1179.352
891,1.482867,1179.054
892,1.4845,1180.097
893,1.486167,1180.097
894,1.487833,1182.407
895,1.4895,1181.439
896,1.491167,1180.097
897,1.492833,1180.097
898,1.4945,1177.192
899,1.496167,1176.596
900,1.497833,1178.16
901,1.4995,1178.16
902,1.501167,1182.258
903,1.502833,1182.109
904,1.504517,1182.109
905,1.506167,1178.905
906,1.507833,1177.192
907,1.5095,1175.404
908,1.511167,1175.404
909,1.512833,1175.925
910,1.514483,1181.066
911,1.51615,1182.556
912,1.517817,1182.556
913,1.519483,1183.376
914,1.52115,1182.258
915,1.522817,1179.948
916,1.524483,1179.948
917,1.52615,1179.65
