"ID","sea_time","fid_signal"
1,0,141.092
2,0.001667,141.092
3,0.003333,141.002
4,0.005,140.913
5,0.006667,140.913
6,0.008333,140.838
7,0.01,140.682
8,0.011667,140.466
9,0.013333,140.466
10,0.015,140.578
11,0.016667,140.63
12,0.018333,140.853
13,0.02,140.853
14,0.021667,141.233
15,0.023333,141.062
16,0.025,140.801
17,0.026667,140.801
18,0.02835,140.637
19,0.03,140.6
20,0.031667,140.66
21,0.033333,140.66
22,0.035,140.883
23,0.036667,140.935
24,0.038333,140.935
25,0.040033,140.585
26,0.041667,140.488
27,0.043333,140.458
28,0.044983,140.458
29,0.04665,140.429
30,0.048317,140.883
31,0.049983,140.794
32,0.05165,140.794
33,0.053317,140.63
34,0.054983,140.637
35,0.05665,140.339
36,0.058317,140.339
37,0.06005,140.406
38,0.06165,140.57
39,0.063317,140.57
40,0.064983,140.384
41,0.06665,140.205
42,0.068317,139.907
43,0.069983,139.907
44,0.07165000000000001,139.646
45,0.07331699999999999,139.9
46,0.07498299999999999,140.309
47,0.07665,140.309
48,0.078317,140.667
49,0.079983,140.943
50,0.081717,140.786
51,0.083317,140.786
52,0.084983,140.615
53,0.08665,140.384
54,0.08831700000000001,140.384
55,0.08998299999999999,140.317
56,0.09165,140.265
57,0.093317,140.518
58,0.094983,140.518
59,0.09665,140.913
60,0.098317,141.114
61,0.099983,141.434
62,0.10165,141.434
63,0.103317,141.345
64,0.104967,141.002
65,0.106633,140.861
66,0.1083,140.861
67,0.109967,140.771
68,0.111633,140.63
69,0.1133,140.66
70,0.115067,140.66
71,0.116633,140.57
72,0.1183,140.242
73,0.119967,140.242
74,0.121633,140.347
75,0.1233,140.294
76,0.124967,140.309
77,0.126633,140.309
78,0.1283,140.54
79,0.129967,140.257
80,0.131667,140.384
81,0.1333,140.384
82,0.134967,140.384
83,0.136633,140.466
84,0.138333,140.727
85,0.139967,140.727
86,0.141633,140.697
87,0.1433,140.838
88,0.144967,140.838
89,0.146633,140.958
90,0.1483,140.92
91,0.149967,140.913
92,0.151633,140.913
93,0.1533,141.032
94,0.154967,140.898
95,0.156633,140.943
96,0.1583,140.943
97,0.159967,140.868
98,0.161633,140.674
99,0.1633,140.749
100,0.16495,140.749
101,0.166617,140.943
102,0.168283,141.092
103,0.16995,140.965
104,0.171617,140.965
105,0.173283,140.995
106,0.17495,140.935
107,0.176617,140.935
108,0.178283,141.01
109,0.17995,141.397
110,0.181617,141.069
111,0.183283,141.069
112,0.18495,140.995
113,0.186617,140.823
114,0.188283,140.51
115,0.18995,140.51
116,0.191617,140.823
117,0.193283,140.652
118,0.19495,140.794
119,0.196617,140.794
120,0.198283,140.66
121,0.2,140.54
122,0.201617,140.54
123,0.203317,140.607
124,0.204983,140.809
125,0.206617,141.144
126,0.208283,141.144
127,0.20995,141.3
128,0.211617,141.442
129,0.213283,141.181
130,0.21495,141.181
131,0.216733,140.928
132,0.218283,140.429
133,0.21995,139.967
134,0.221617,139.967
135,0.223283,140.026
136,0.22495,140.212
137,0.2266,140.57
138,0.228267,140.57
139,0.229933,140.853
140,0.2316,140.794
141,0.23335,140.794
142,0.234933,140.712
143,0.2366,140.473
144,0.238267,140.443
145,0.239933,140.443
146,0.2416,140.16
147,0.243267,139.944
148,0.244933,140.078
149,0.246583,140.078
150,0.24825,140.101
151,0.249917,140.287
152,0.251583,140.421
153,0.25325,140.421
154,0.254917,140.414
155,0.256583,140.496
156,0.25825,140.496
157,0.259917,140.451
158,0.261583,140.727
159,0.26325,140.667
160,0.264917,140.667
161,0.266583,140.548
162,0.26825,140.771
163,0.269917,140.615
164,0.271583,140.615
165,0.27325,140.704
166,0.274917,141.084
167,0.276583,140.838
168,0.278267,140.838
169,0.279967,140.801
170,0.281617,141.017
171,0.28325,141.017
172,0.2849,140.98
173,0.286567,141.33
174,0.288233,141.457
175,0.2899,141.457
176,0.291567,141.591
177,0.293233,141.613
178,0.2949,141.658
179,0.296567,141.658
180,0.298233,141.658
181,0.2999,141.427
182,0.301567,140.898
183,0.303233,140.898
184,0.3049,140.794
185,0.306567,140.704
186,0.308233,140.503
187,0.3099,140.503
188,0.311567,140.712
189,0.313233,140.578
190,0.3149,140.578
191,0.316567,140.354
192,0.31825,140.443
193,0.3199,140.496
194,0.321567,140.496
195,0.323233,140.689
196,0.3249,140.615
197,0.326567,140.429
198,0.328233,140.429
199,0.3299,140.116
200,0.331567,140.034
201,0.333233,140.317
202,0.3349,140.317
203,0.336567,140.436
204,0.338233,140.585
205,0.3399,140.585
206,0.341567,140.592
207,0.343233,140.57
208,0.344883,140.965
209,0.34655,140.965
210,0.348217,141.278
211,0.349883,141.308
212,0.351617,141.65
213,0.35325,141.65
214,0.354917,141.71
215,0.35655,142.425
216,0.358217,143.439
217,0.359883,143.439
218,0.36155,144.899
219,0.363217,146.881
220,0.364883,148.773
221,0.36655,148.773
222,0.368317,151.254
223,0.369883,154.197
224,0.37155,154.197
225,0.373217,157.699
226,0.374883,162.318
227,0.37655,167.653
228,0.378217,167.653
229,0.379883,174.277
230,0.38155,181.973
231,0.383217,190.631
232,0.384883,190.631
233,0.38655,200.897
234,0.388217,211.798
235,0.389883,223.607
236,0.39155,223.607
237,0.393217,236.191
238,0.394883,249.602
239,0.39655,249.602
240,0.398217,263.698
241,0.399883,278.778
242,0.40155,294.827
243,0.403217,294.827
244,0.404883,311.121
245,0.406533,328.094
246,0.4082,345.781
247,0.409867,345.781
248,0.411533,363.842
249,0.4132,382.356
250,0.414867,401.415
251,0.416533,401.415
252,0.4182,420.488
253,0.419867,439.934
254,0.42155,459.909
255,0.42325,459.909
256,0.424867,480.548
257,0.426533,501.685
258,0.4282,501.685
259,0.429883,523.128
260,0.43155,544.958
261,0.4332,567.138
262,0.434867,567.138
263,0.436533,589.833
264,0.4382,613.272
265,0.439867,637.546
266,0.441533,637.546
267,0.4432,662.379
268,0.444867,688.024
269,0.446533,714.4880000000001
270,0.4482,714.4880000000001
271,0.449867,742.197
272,0.451533,771.388
273,0.453267,802.45
274,0.454867,802.45
275,0.456533,835.843
276,0.4582,871.912
277,0.459867,871.912
278,0.461533,912.577
279,0.4632,959.218
280,0.464867,1014.732
281,0.466517,1014.732
282,0.468183,1082.957
283,0.4699,1169.227
284,0.471517,1281.045
285,0.473183,1281.045
286,0.47485,1428.261
287,0.476517,1622.409
288,0.478183,1622.409
289,0.47985,1877.435
290,0.481517,2208.531
291,0.483183,2631.061
292,0.48485,2631.061
293,0.486633,3158.547
294,0.488183,3800.787
295,0.48985,4562.408
296,0.491517,4562.408
297,0.493183,5440.988
298,0.49485,6427.601
299,0.496517,7505.26
300,0.498217,7505.26
301,0.49985,8652.009
302,0.501517,9839.721
303,0.503183,11037.305
304,0.50485,11037.305
305,0.506517,12212.172
306,0.5081830000000001,13330.713
307,0.50985,13330.713
308,0.511517,14362.224
309,0.5131829999999999,15279.562
310,0.51485,16060.211
311,0.516533,16060.211
312,0.5181829999999999,16688.861
313,0.51985,17155.797
314,0.521517,17457.828
315,0.523183,17457.828
316,0.52485,17598.965
317,0.5265,17588.422
318,0.5281670000000001,17438.584
319,0.529833,17438.584
320,0.5315,17166.16
321,0.5331669999999999,16789.295
322,0.534833,16789.295
323,0.5365,16326.309
324,0.53815,15796.312
325,0.539817,15216.119
326,0.541483,15216.119
327,0.54315,14601.037
328,0.544817,13964.824
329,0.5464830000000001,13319.693
330,0.54815,13319.693
331,0.549817,12675.211
332,0.5514829999999999,12039.52
333,0.55315,11418.432
334,0.554817,11418.432
335,0.5564829999999999,10816.708
336,0.55815,10238.327
337,0.559817,9685.427
338,0.561483,9685.427
339,0.563167,9159.691000000001
340,0.564817,8662.200999999999
341,0.566483,8662.200999999999
342,0.56815,8192.837
343,0.569817,7751.696
344,0.5715170000000001,7337.898
345,0.57315,7337.898
346,0.574817,6950.401
347,0.576483,6588.354
348,0.5781500000000001,6250.285
349,0.579817,6250.285
350,0.581483,5935.132
351,0.5831499999999999,5641.49
352,0.5848,5367.905
353,0.586467,5367.905
354,0.588183,5112.998
355,0.5898,4875.399
356,0.591467,4875.399
357,0.593133,4653.685
358,0.5948,4446.879
359,0.596467,4253.648
360,0.598133,4253.648
361,0.5998,4072.919
362,0.601467,3903.903
363,0.603133,3745.355
364,0.6049,3745.355
365,0.606483,3596.835
366,0.608133,3457.77
367,0.6098,3327.02
368,0.611467,3327.02
369,0.613133,3204.152
370,0.6148,3088.511
371,0.616467,2978.854
372,0.618133,2978.854
373,0.6198,2875.283
374,0.621467,2777.323
375,0.623133,2777.323
376,0.6248,2684.467
377,0.626467,2596.639
378,0.6281330000000001,2513.513
379,0.6298,2513.513
380,0.631467,2434.582
381,0.6331329999999999,2359.472
382,0.6348,2288.23
383,0.636467,2288.23
384,0.638133,2220.206
385,0.639817,2155.058
386,0.641467,2093.218
387,0.643133,2093.218
388,0.644783,2034.18
389,0.64645,1977.555
390,0.6481170000000001,1977.555
391,0.649783,1923.628
392,0.65145,1871.809
393,0.6531169999999999,1822.308
394,0.654783,1822.308
395,0.65645,1775.078
396,0.658117,1729.622
397,0.659783,1685.955
398,0.66145,1685.955
399,0.663117,1644.194
400,0.664783,1603.827
401,0.66645,1565.389
402,0.668117,1565.389
403,0.669783,1528.107
404,0.67145,1492.068
405,0.673117,1492.068
406,0.674783,1458.071
407,0.6764829999999999,1425.005
408,0.678117,1393.557
409,0.679783,1393.557
410,0.68145,1362.92
411,0.683117,1332.909
412,0.684783,1304.232
413,0.68645,1304.232
414,0.688117,1276.486
415,0.689817,1249.701
416,0.69145,1223.81
417,0.693117,1223.81
418,0.694783,1198.59
419,0.69645,1174.234
420,0.698117,1150.772
421,0.699783,1150.772
422,0.70145,1128.42
423,0.703117,1106.687
424,0.704767,1106.687
425,0.706483,1085.572
426,0.7081,1065.209
427,0.709767,1045.115
428,0.71145,1045.115
429,0.71315,1025.841
430,0.714767,1007.006
431,0.716433,988.8339999999999
432,0.7181,988.8339999999999
433,0.719767,971.295
434,0.721433,954.397
435,0.723117,938.408
436,0.7247670000000001,938.408
437,0.726433,922.628
438,0.7281,907.347
439,0.7297670000000001,907.347
440,0.731433,892.013
441,0.7331,877.045
442,0.7347669999999999,862.658
443,0.736433,862.658
444,0.7381,848.316
445,0.739767,834.763
446,0.741433,821.605
447,0.7431,821.605
448,0.744767,808.4400000000001
449,0.746433,795.931
450,0.7481,783.689
451,0.749767,783.689
452,0.751433,771.821
453,0.7531,760.399
454,0.754767,749.454
455,0.756433,749.454
456,0.7581,739.083
457,0.759767,728.473
458,0.761433,728.473
459,0.763133,718.124
460,0.76475,707.731
461,0.766417,697.568
462,0.768083,697.568
463,0.76975,687.808
464,0.771417,678.509
465,0.773083,669.651
466,0.77475,669.651
467,0.776417,660.621
468,0.778083,651.807
469,0.7797500000000001,643.0599999999999
470,0.781417,643.0599999999999
471,0.7831,634.626
472,0.7847499999999999,626.378
473,0.786417,626.378
474,0.788083,618.465
475,0.78975,611.059
476,0.791417,603.393
477,0.793083,603.393
478,0.79475,596.136
479,0.796417,588.953
480,0.798083,581.5549999999999
481,0.79975,581.5549999999999
482,0.801417,574.395
483,0.803083,567.4880000000001
484,0.80475,560.8200000000001
485,0.8064170000000001,560.8200000000001
486,0.80815,554.48
487,0.80975,548.191
488,0.8114170000000001,542.022
489,0.813083,542.022
490,0.81475,535.756
491,0.8164169999999999,529.751
492,0.818083,529.751
493,0.81975,524.1559999999999
494,0.821417,518.568
495,0.823067,513.032
496,0.824733,513.032
497,0.8264,507.63
498,0.828067,501.893
499,0.829717,496.469
500,0.831383,496.469
501,0.83305,491.157
502,0.834717,485.733
503,0.836383,480.89
504,0.83805,480.89
505,0.839717,476.114
506,0.8415,471.346
507,0.84305,471.346
508,0.8447170000000001,466.511
509,0.846383,461.616
510,0.84805,456.706
511,0.8497169999999999,456.706
512,0.851383,452.384
513,0.85305,448.19
514,0.854733,443.809
515,0.856383,443.809
516,0.85805,439.458
517,0.859733,435.002
518,0.861383,430.688
519,0.86305,430.688
520,0.864717,426.97
521,0.866383,423.163
522,0.86805,423.163
523,0.869717,419.617
524,0.871383,415.869
525,0.87305,411.823
526,0.874717,411.823
527,0.876383,408.031
528,0.87805,404.149
529,0.879717,400.841
530,0.881383,400.841
531,0.88305,397.593
532,0.8847,394.166
533,0.886367,390.969
534,0.888033,390.969
535,0.8897,387.52
536,0.891367,384.256
537,0.893033,381.038
538,0.8947000000000001,381.038
539,0.896367,377.536
540,0.898033,374.369
541,0.8997000000000001,374.369
542,0.901367,371.374
543,0.903033,368.476
544,0.9046999999999999,365.883
545,0.906367,365.883
546,0.908033,363.357
547,0.9097,360.526
548,0.911367,357.918
549,0.913033,357.918
550,0.9147,355.124
551,0.916367,352.204
552,0.918033,349.708
553,0.9197,349.708
554,0.921367,347.123
555,0.923033,344.515
556,0.9247,344.515
557,0.9264,341.862
558,0.928083,339.143
559,0.9297,336.647
560,0.9313669999999999,336.647
561,0.933033,334.457
562,0.9347,332.177
563,0.9363669999999999,329.919
564,0.938033,329.919
565,0.9397,327.684
566,0.941367,325.337
567,0.943017,323.124
568,0.9446830000000001,323.124
569,0.94635,320.829
570,0.948017,318.43
571,0.9496830000000001,316.441
572,0.95135,316.441
573,0.953017,314.422
574,0.9546829999999999,312.373
575,0.95635,312.373
576,0.958017,310.481
577,0.9598,308.082
578,0.96135,306.062
579,0.963017,306.062
580,0.964683,304.051
581,0.96635,301.89
582,0.968017,299.99
583,0.969683,299.99
584,0.97135,298.15
585,0.973017,296.481
586,0.974683,294.842
587,0.9763500000000001,294.842
588,0.978017,293.218
589,0.979683,291.452
590,0.9813499999999999,291.452
591,0.983017,289.567
592,0.984683,287.98
593,0.9863499999999999,286.199
594,0.988017,286.199
595,0.989683,284.329
596,0.99135,282.608
597,0.993017,280.917
598,0.994683,280.917
599,0.99635,279.427
600,0.998017,277.989
601,0.999683,276.402
602,1.00135,276.402
603,1.003017,274.561
604,1.0047,272.885
605,1.0064,271.425
606,1.00805,271.425
607,1.009683,270.329
608,1.011333,269.353
609,1.013,269.353
610,1.014667,268.124
611,1.016333,266.828
612,1.018,265.054
613,1.019667,265.054
614,1.021333,263.609
615,1.023,262.171
616,1.024667,260.584
617,1.026333,260.584
618,1.028,259.273
619,1.029667,257.656
620,1.031333,256.293
621,1.033,256.293
622,1.034667,255.108
623,1.036333,254.028
624,1.038,254.028
625,1.039667,252.903
626,1.041333,252.023
627,1.043,250.995
628,1.044717,250.995
629,1.046333,249.997
630,1.048,248.745
631,1.049667,247.456
632,1.051333,247.456
633,1.053,246.286
634,1.054667,244.938
635,1.056333,244.096
636,1.058,244.096
637,1.059667,242.881
638,1.061317,241.511
639,1.062983,241.511
640,1.06465,240.028
641,1.066317,238.538
642,1.067983,237.599
643,1.06965,237.599
644,1.071317,236.37
645,1.072983,235.848
646,1.07465,235.111
647,1.076317,235.111
648,1.07805,233.896
649,1.07965,233.017
650,1.081317,231.773
651,1.082983,231.773
652,1.084667,230.521
653,1.086317,229.359
654,1.087983,228.494
655,1.08965,228.494
656,1.091317,227.749
657,1.092983,226.997
658,1.09465,226.997
659,1.096317,226.215
660,1.097983,225.388
661,1.09965,224.501
662,1.101317,224.501
663,1.102983,223.562
664,1.10465,222.713
665,1.106317,221.878
666,1.107983,221.878
667,1.10965,220.94
668,1.111317,220.329
669,1.112983,219.487
670,1.11465,219.487
671,1.116317,218.868
672,1.117983,218.272
673,1.11965,218.272
674,1.1213,217.542
675,1.122967,217.028
676,1.124617,216.156
677,1.126283,216.156
678,1.12795,215.404
679,1.129617,214.45
680,1.131283,213.422
681,1.13295,213.422
682,1.134617,212.476
683,1.136283,211.455
684,1.13795,210.606
685,1.139617,210.606
686,1.141283,209.868
687,1.14295,209.279
688,1.144617,208.572
689,1.146283,208.572
690,1.14795,208.184
691,1.149617,207.819
692,1.1513,207.819
693,1.15295,207.402
694,1.154617,206.903
695,1.156283,206.53
696,1.157983,206.53
697,1.159617,205.718
698,1.161283,204.809
699,1.162983,204.168
700,1.164617,204.168
701,1.166283,203.08
702,1.16795,202.544
703,1.169617,202.127
704,1.171283,202.127
705,1.17295,201.389
706,1.174617,200.786
707,1.176283,200.786
708,1.17795,199.944
709,1.1797,199.02
710,1.181283,198.282
711,1.18295,198.282
712,1.184617,197.738
713,1.186267,197.418
714,1.187933,196.919
715,1.1896,196.919
716,1.191267,196.591
717,1.192933,196.055
718,1.1946,195.332
719,1.196383,195.332
720,1.197933,194.833
721,1.1996,194.609
722,1.201267,194.363
723,1.202933,194.363
724,1.2046,194.162
725,1.206267,193.842
726,1.207933,193.842
727,1.2096,193.223
728,1.211267,192.307
729,1.212933,191.487
730,1.2146,191.487
731,1.216267,190.802
732,1.217933,190.303
733,1.2196,189.953
734,1.221267,189.953
735,1.222933,189.766
736,1.2246,189.342
737,1.226267,188.902
738,1.227933,188.902
739,1.229617,188.395
740,1.231267,187.904
741,1.232933,187.904
742,1.2346,187.568
743,1.236267,186.987
744,1.237933,186.615
745,1.2396,186.615
746,1.241267,186.101
747,1.242933,185.758
748,1.244583,185.288
749,1.246283,185.288
750,1.24795,184.774
751,1.249583,184.551
752,1.25125,183.769
753,1.252917,183.769
754,1.254583,183.575
755,1.25625,183.247
756,1.257917,183.247
757,1.259583,182.442
758,1.26125,182.36
759,1.262917,181.951
760,1.264583,181.951
761,1.26625,181.518
762,1.267917,181.288
763,1.269583,180.662
764,1.27125,180.662
765,1.272917,180.23
766,1.274583,179.842
767,1.27625,179.671
768,1.277917,179.671
769,1.279583,179.41
770,1.28125,178.888
771,1.282917,178.538
772,1.284583,178.538
773,1.28625,178.017
774,1.287917,177.979
775,1.289583,177.979
776,1.29125,177.965
777,1.292917,177.51
778,1.294583,177.108
779,1.29625,177.108
780,1.297983,176.772
781,1.299583,176.393
782,1.30125,176.668
783,1.302917,176.668
784,1.304567,176.43
785,1.306233,175.811
786,1.3079,175.409
787,1.309567,175.409
788,1.311233,175.051
789,1.3129,174.895
790,1.31465,174.85
791,1.316233,174.85
792,1.3179,174.582
793,1.319567,173.844
794,1.321233,173.844
795,1.3229,173.144
796,1.324567,172.526
797,1.326233,172.012
798,1.3279,172.012
799,1.329567,171.892
800,1.331333,172.079
801,1.3329,172.056
802,1.334567,172.056
803,1.336233,171.833
804,1.3379,171.557
805,1.339617,171.363
806,1.341233,171.363
807,1.3429,171.006
808,1.344567,170.924
809,1.346233,170.924
810,1.3479,170.596
811,1.349567,170.112
812,1.351233,170.037
813,1.3529,170.037
814,1.354567,169.642
815,1.356233,169.612
816,1.3579,169.508
817,1.359567,169.508
818,1.361233,169.031
819,1.362883,168.905
820,1.36455,168.45
821,1.366217,168.45
822,1.367883,168.122
823,1.36955,168.048
824,1.371267,168.048
825,1.372883,167.936
826,1.37455,168.13
827,1.376217,167.929
828,1.377883,167.929
829,1.37955,167.944
830,1.381217,167.951
831,1.382883,167.467
832,1.38455,167.467
833,1.386217,167.4
834,1.387883,166.886
835,1.38955,166.304
836,1.391217,166.304
837,1.392883,166.051
838,1.39455,165.805
839,1.396217,165.47
840,1.397883,165.47
841,1.39955,165.47
842,1.401217,165.202
843,1.402883,165.202
844,1.40455,164.904
845,1.406217,164.881
846,1.407883,164.539
847,1.40955,164.539
848,1.4112,164.665
849,1.412883,164.799
850,1.414533,164.978
851,1.416267,164.978
852,1.417867,164.911
853,1.419533,164.784
854,1.4212,164.382
855,1.42285,164.382
856,1.424517,164.069
857,1.426183,163.704
858,1.42785,163.704
859,1.429517,163.51
860,1.431183,163.183
861,1.432917,163.004
862,1.434517,163.004
863,1.436183,162.855
864,1.43785,162.795
865,1.439517,162.616
866,1.441183,162.616
867,1.44285,162.393
868,1.444517,162.281
869,1.446217,161.767
870,1.44785,161.767
871,1.449633,161.871
872,1.451183,161.387
873,1.45285,161.387
874,1.454517,161.417
875,1.456183,161.618
876,1.45785,161.447
877,1.459517,161.447
878,1.461183,161.409
879,1.46285,160.933
880,1.464517,160.411
881,1.466183,160.411
882,1.46785,160.076
883,1.469517,159.919
884,1.471183,159.763
885,1.47285,159.763
886,1.474517,159.785
887,1.476183,159.755
888,1.47785,159.636
889,1.479517,159.636
890,1.481183,159.837
891,1.48285,159.644
892,1.4845,159.644
893,1.486167,159.338
894,1.487833,159.219
895,1.4895,158.98
896,1.491167,158.98
897,1.492833,158.869
898,1.4945,159.033
899,1.496167,159.144
900,1.497833,159.144
901,1.4995,158.817
902,1.501167,158.563
903,1.502833,158.183
904,1.504533,158.183
905,1.506167,158.086
906,1.507833,158.183
907,1.5095,158.183
908,1.511167,157.982
909,1.512867,158.064
910,1.5145,157.773
911,1.516167,157.773
912,1.517833,157.535
913,1.5195,157.751
914,1.521167,157.602
915,1.522833,157.602
916,1.5245,157.699
917,1.526167,157.923
918,1.527833,157.833
919,1.5295,157.833
920,1.531167,157.706
921,1.532833,157.364
922,1.534517,157.148
923,1.536167,157.148
924,1.537833,156.663
925,1.5395,156.432
926,1.541167,156.432
927,1.542817,156.619
928,1.544483,156.358
929,1.54615,156.634
930,1.547817,156.634
931,1.549483,156.626
932,1.551167,156.306
933,1.552817,156.179
934,1.554483,156.179
935,1.55615,155.948
936,1.557817,155.807
937,1.559483,155.434
938,1.56115,155.434
939,1.562817,155.464
940,1.564483,155.21
941,1.56615,155.21
942,1.567917,155.136
943,1.569483,155.039
944,1.57115,154.875
945,1.572817,154.875
946,1.574483,154.875
