"ID","sea_time","fid_signal"
1,0,141.33
2,0.001733,141.166
3,0.003333,141.3
4,0.005,141.3
5,0.006667,141.464
6,0.008366999999999999,141.144
7,0.01,141.144
8,0.011667,140.57
9,0.013333,140.309
10,0.015,140.212
11,0.016667,140.212
12,0.018433,140.294
13,0.02,140.622
14,0.021667,140.54
15,0.023333,140.54
16,0.025,140.451
17,0.026667,140.324
18,0.028317,140.324
19,0.029983,140.324
20,0.03165,140.57
21,0.033317,140.607
22,0.0351,140.771
23,0.03665,140.771
24,0.038317,140.95
25,0.039983,141.002
26,0.04165,141.002
27,0.043317,141.323
28,0.044983,141.114
29,0.04665,140.928
30,0.048317,140.928
31,0.049983,140.712
32,0.051683,140.414
33,0.053317,140.436
34,0.054983,140.436
35,0.05665,140.503
36,0.058317,140.63
37,0.059983,140.809
38,0.06165,140.809
39,0.063317,140.876
40,0.064983,140.771
41,0.06665,140.771
42,0.068317,140.637
43,0.069983,140.235
44,0.07165000000000001,139.937
45,0.07331699999999999,139.937
46,0.075,140.108
47,0.07665,140.496
48,0.078317,141.077
49,0.079983,141.077
50,0.08165,141.308
51,0.083333,141.375
52,0.084983,140.972
53,0.08665,140.972
54,0.0883,140.563
55,0.08996700000000001,140.6
56,0.09163300000000001,140.6
57,0.09329999999999999,140.443
58,0.094967,140.503
59,0.096633,140.622
60,0.0983,140.622
61,0.099967,140.689
62,0.101633,140.734
63,0.1033,140.92
64,0.104967,140.92
65,0.106633,141.069
66,0.1083,140.876
67,0.109967,140.622
68,0.111633,140.622
69,0.1133,140.496
70,0.114967,140.332
71,0.116633,140.637
72,0.1183,140.637
73,0.12,140.853
74,0.121633,140.741
75,0.1233,140.741
76,0.124967,140.712
77,0.126633,140.414
78,0.1283,140.667
79,0.129967,140.667
80,0.131633,140.563
81,0.1333,140.414
82,0.134967,140.689
83,0.1367,140.689
84,0.1383,140.28
85,0.139967,140.525
86,0.141633,140.645
87,0.1433,140.645
88,0.144967,140.503
89,0.146617,140.682
90,0.148283,140.682
91,0.14995,140.578
92,0.151617,140.779
93,0.153417,140.533
94,0.15495,140.533
95,0.156617,140.361
96,0.158283,140.332
97,0.15995,140.212
98,0.161617,140.212
99,0.163283,140.421
100,0.16495,140.384
101,0.166617,140.592
102,0.168283,140.592
103,0.17005,140.719
104,0.171617,140.719
105,0.173283,140.898
106,0.17495,140.898
107,0.176633,140.719
108,0.178283,140.63
109,0.17995,140.63
110,0.181617,140.697
111,0.183283,140.585
112,0.18495,140.749
113,0.186617,140.749
114,0.188283,140.764
115,0.18995,140.734
116,0.191617,140.846
117,0.193283,140.846
118,0.19495,140.98
119,0.196617,141.27
120,0.198283,141.367
121,0.19995,141.367
122,0.201617,141.323
123,0.203283,141.054
124,0.204933,141.054
125,0.206583,140.749
126,0.20825,140.496
127,0.209917,140.175
128,0.211583,140.175
129,0.21325,139.982
130,0.214917,139.929
131,0.216583,139.952
132,0.21825,139.952
133,0.219983,140.332
134,0.221583,140.503
135,0.22325,140.391
136,0.224917,140.391
137,0.226583,140.6
138,0.22825,140.697
139,0.229917,140.697
140,0.231583,140.756
141,0.233283,140.779
142,0.234917,140.823
143,0.236583,140.823
144,0.23825,140.645
145,0.239917,140.682
146,0.241583,140.987
147,0.24325,140.987
148,0.244917,140.98
149,0.246583,141.069
150,0.24825,141.241
151,0.249917,141.241
152,0.251583,141.01
153,0.25325,140.786
154,0.254933,140.689
155,0.256583,140.689
156,0.25825,140.443
157,0.259917,140.57
158,0.261583,140.57
159,0.26325,140.652
160,0.2649,140.674
161,0.266567,140.712
162,0.268233,140.712
163,0.2699,140.861
164,0.271633,140.89
165,0.273233,140.682
166,0.2749,140.682
167,0.276567,140.682
168,0.278233,140.488
169,0.2799,140.503
170,0.281567,140.503
171,0.283233,140.727
172,0.2849,140.496
173,0.286567,140.496
174,0.28835,140.741
175,0.2899,140.6
176,0.291567,140.756
177,0.293233,140.756
178,0.294917,141.017
179,0.296567,140.637
180,0.298233,140.525
181,0.2999,140.525
182,0.301567,140.272
183,0.303233,140.123
184,0.3049,140.347
185,0.306567,140.347
186,0.308233,140.6
187,0.3099,140.727
188,0.311567,140.898
189,0.313233,140.898
190,0.3149,141.017
191,0.316567,141.092
192,0.318233,141.092
193,0.319933,141.226
194,0.321567,140.972
195,0.323233,140.645
196,0.3249,140.645
197,0.326567,140.488
198,0.328217,140.034
199,0.329883,140.354
200,0.33155,140.354
201,0.333217,140.488
202,0.334883,140.63
203,0.33655,140.697
204,0.338217,140.697
205,0.339883,140.548
206,0.34155,140.749
207,0.343217,140.749
208,0.344883,140.756
209,0.34655,141.077
210,0.348217,141.203
211,0.349883,141.203
212,0.351567,140.987
213,0.353217,140.838
214,0.354883,140.712
215,0.35655,140.712
216,0.358233,140.548
217,0.359883,140.458
218,0.36155,140.451
219,0.363217,140.451
220,0.364883,140.51
221,0.36655,140.928
222,0.368217,141.36
223,0.369883,141.36
224,0.37155,141.449
225,0.373233,141.501
226,0.374883,141.501
227,0.37655,141.256
228,0.378217,141.01
229,0.379883,141.479
230,0.38155,141.479
231,0.383217,141.695
232,0.384883,141.904
233,0.386533,141.948
234,0.3882,141.948
235,0.389917,141.77
236,0.391533,141.755
237,0.3932,141.807
238,0.394867,141.807
239,0.396533,141.978
240,0.3982,142.097
241,0.399867,142.097
242,0.401533,142.12
243,0.4032,142.276
244,0.404867,142.477
245,0.406633,142.477
246,0.4082,142.902
247,0.409867,143.595
248,0.41155,143.915
249,0.4132,143.915
250,0.414867,144.355
251,0.416533,144.772
252,0.4182,145.718
253,0.419867,145.718
254,0.421533,147.261
255,0.4232,149.414
256,0.424867,149.414
257,0.426533,151.783
258,0.4282,154.041
259,0.429867,156.924
260,0.431533,156.924
261,0.4332,159.971
262,0.434867,163.436
263,0.436533,167.668
264,0.4382,167.668
265,0.4399,172.175
266,0.441533,177.339
267,0.4432,183.336
268,0.444867,183.336
269,0.446517,189.476
270,0.448183,196.487
271,0.44985,204.049
272,0.451517,204.049
273,0.453183,212.051
274,0.45485,221.2
275,0.456517,221.2
276,0.458183,230.372
277,0.45985,240.11
278,0.461517,250.34
279,0.463183,250.34
280,0.46485,260.599
281,0.466517,271.447
282,0.468183,282.526
283,0.46985,282.526
284,0.471517,293.873
285,0.473183,305.474
286,0.47485,317.492
287,0.476517,317.492
288,0.478183,329.539
289,0.47985,341.55
290,0.481517,341.55
291,0.483183,353.619
292,0.48485,365.689
293,0.486517,377.968
294,0.488183,377.968
295,0.4899,390.612
296,0.491517,403.896
297,0.493183,417.739
298,0.49485,417.739
299,0.4965,432.812
300,0.498167,449.397
301,0.499833,468.172
302,0.5014999999999999,468.172
303,0.503167,490.859
304,0.504833,519.38
305,0.506483,556.901
306,0.5082,556.901
307,0.509817,607.7140000000001
308,0.511483,677.571
309,0.51315,677.571
310,0.514817,773.571
311,0.516483,905.2380000000001
312,0.51815,1082.16
313,0.519817,1082.16
314,0.521483,1314.618
315,0.52315,1612.552
316,0.524833,1983.486
317,0.5265,1983.486
318,0.52815,2432.406
319,0.529817,2960.146
320,0.531483,3563.017
321,0.53315,3563.017
322,0.534817,4234.5
323,0.536483,4964.143
324,0.53815,4964.143
325,0.539817,5739.056
326,0.541483,6546.14
327,0.54315,7369.779
328,0.544817,7369.779
329,0.5464830000000001,8195.825000000001
330,0.54815,9011.18
331,0.549817,9801.954
332,0.5514829999999999,9801.954
333,0.55315,10556.512
334,0.554817,11263.653
335,0.5564829999999999,11912.234
336,0.55815,11912.234
337,0.559817,12493.245
338,0.561483,12997.485
339,0.56315,12997.485
340,0.5648,13418.287
341,0.5664670000000001,13750.285
342,0.568133,13990.343
343,0.5698,13990.343
344,0.5714669999999999,14137.559
345,0.573133,14192.47
346,0.5748,14159.202
347,0.576467,14159.202
348,0.578167,14042.974
349,0.5798,13851.322
350,0.581483,13593.882
351,0.583133,13593.882
352,0.5848,13280.585
353,0.586467,12922.302
354,0.588133,12529.455
355,0.5898,12529.455
356,0.591467,12111.604
357,0.593133,11677.026
358,0.5948,11677.026
359,0.596467,11232.965
360,0.598133,10786.272
361,0.5998,10341.727
362,0.601467,10341.727
363,0.603133,9903.677
364,0.6048,9475.231
365,0.606467,9058.878000000001
366,0.608133,9058.878000000001
367,0.60985,8656.562
368,0.611467,8269.385
369,0.613133,7898.256
370,0.6148,7898.256
371,0.616467,7543.229
372,0.618133,7204.727
373,0.6198,7204.727
374,0.621467,6882.638
375,0.623133,6576.65
376,0.624783,6286.405
377,0.62645,6286.405
378,0.628117,6011.307
379,0.629783,5750.544
380,0.63145,5504.072
381,0.633117,5504.072
382,0.634783,5271.07
383,0.63645,5050.674
384,0.638117,4842.669
385,0.639783,4842.669
386,0.64145,4645.958
387,0.643217,4459.664
388,0.644783,4283.205
389,0.64645,4283.205
390,0.6481170000000001,4116.028
391,0.649783,3957.599
392,0.65145,3957.599
393,0.6531169999999999,3808.163
394,0.654783,3666.654
395,0.65645,3532.41
396,0.65815,3532.41
397,0.6598000000000001,3405.258
398,0.66145,3284.432
399,0.663117,3170.192
400,0.664783,3170.192
401,0.66645,3061.742
402,0.668117,2958.79
403,0.669783,2861.031
404,0.67145,2861.031
405,0.673117,2768.032
406,0.674783,2679.788
407,0.67645,2679.788
408,0.678117,2595.633
409,0.679783,2515.353
410,0.68145,2438.478
411,0.683117,2438.478
412,0.684783,2365.284
413,0.686433,2295.673
414,0.6881,2228.715
415,0.689767,2228.715
416,0.691433,2165.027
417,0.6931,2103.992
418,0.694767,2045.073
419,0.696433,2045.073
420,0.6981000000000001,1989.365
421,0.699767,1935.594
422,0.701433,1883.902
423,0.7030999999999999,1883.902
424,0.704767,1834.735
425,0.706433,1787.111
426,0.7081,1787.111
427,0.709767,1741.961
428,0.711433,1698.859
429,0.7131,1657.471
430,0.714767,1657.471
431,0.716433,1617.938
432,0.7181,1579.337
433,0.719767,1542.151
434,0.721433,1542.151
435,0.7231,1505.986
436,0.724783,1471.095
437,0.726433,1437.917
438,0.72815,1437.917
439,0.7297670000000001,1405.798
440,0.731433,1374.908
441,0.7331,1374.908
442,0.7347669999999999,1344.867
443,0.736433,1316.078
444,0.7381,1288.28
445,0.739767,1288.28
446,0.741433,1261.331
447,0.7431,1235.15
448,0.74475,1209.766
449,0.746417,1209.766
450,0.7480830000000001,1185.238
451,0.74975,1162
452,0.751417,1139.507
453,0.7530829999999999,1139.507
454,0.754767,1117.468
455,0.756417,1096.398
456,0.758083,1075.64
457,0.75975,1075.64
458,0.761517,1055.71
459,0.763083,1036.257
460,0.76475,1036.257
461,0.766417,1017.161
462,0.768083,998.698
463,0.76975,980.929
464,0.771417,980.929
465,0.773083,963.5309999999999
466,0.77475,946.8200000000001
467,0.776417,930.704
468,0.778083,930.704
469,0.7797500000000001,914.8869999999999
470,0.781417,899.538
471,0.783083,884.667
472,0.7847499999999999,884.667
473,0.786417,870.474
474,0.788067,856.601
475,0.789733,856.601
476,0.7914,843.1079999999999
477,0.793067,829.9349999999999
478,0.794733,816.926
479,0.7964,816.926
480,0.798067,804.409
481,0.799733,792.131
482,0.801433,780.128
483,0.803067,780.128
484,0.804733,768.1849999999999
485,0.806383,756.949
486,0.80805,746.369
487,0.809717,746.369
488,0.811383,735.663
489,0.8130500000000001,725.321
490,0.814717,725.321
491,0.8164,714.7190000000001
492,0.818083,704.631
493,0.819717,694.931
494,0.821383,694.931
495,0.8230499999999999,685.379
496,0.824717,676.49
497,0.826383,667.49
498,0.82805,667.49
499,0.829717,658.765
500,0.831383,650.324
501,0.83305,641.912
502,0.834717,641.912
503,0.836383,633.523
504,0.83805,625.394
505,0.839717,617.4299999999999
506,0.841383,617.4299999999999
507,0.84305,609.793
508,0.8447170000000001,602.417
509,0.846433,602.417
510,0.84805,595.085
511,0.8497169999999999,587.955
512,0.851383,580.631
513,0.85305,580.631
514,0.8547169999999999,573.546
515,0.856383,566.982
516,0.85805,560.626
517,0.859717,560.626
518,0.861383,554.524
519,0.8630330000000001,548.549
520,0.864717,542.67
521,0.866367,542.67
522,0.868067,536.65
523,0.86975,530.601
524,0.871367,530.601
525,0.8730329999999999,525.199
526,0.8747,519.41
527,0.876367,514.247
528,0.878033,514.247
529,0.879817,509.091
530,0.881367,503.451
531,0.883033,498.168
532,0.8847,498.168
533,0.886367,492.804
534,0.888033,487.968
535,0.8897,483.282
536,0.891367,483.282
537,0.893033,478.305
538,0.8947000000000001,473.589
539,0.896367,468.56
540,0.898033,468.56
541,0.8997000000000001,464.045
542,0.901367,459.939
543,0.90305,459.939
544,0.9046999999999999,455.983
545,0.906367,452.116
546,0.908033,448.048
547,0.9097,448.048
548,0.911367,444.189
549,0.913033,439.696
550,0.9147,435.747
551,0.916367,435.747
552,0.918033,431.836
553,0.9197,428.028
554,0.921367,424.393
555,0.923033,424.393
556,0.9247,420.637
557,0.92635,417.292
558,0.928017,417.292
559,0.9297,413.723
560,0.93135,410.244
561,0.933017,406.876
562,0.934683,406.876
563,0.93635,403.203
564,0.938017,399.746
565,0.939683,396.445
566,0.9414,396.445
567,0.943017,393.555
568,0.9446830000000001,390.358
569,0.94635,387.43
570,0.948017,387.43
571,0.9496830000000001,384.86
572,0.95135,381.753
573,0.953017,378.907
574,0.9546829999999999,378.907
575,0.95635,376.12
576,0.958017,373.013
577,0.959683,373.013
578,0.96135,370.152
579,0.963017,367.925
580,0.964683,365.131
581,0.96635,365.131
582,0.968017,362.411
583,0.969683,359.938
584,0.97135,357.211
585,0.973017,357.211
586,0.974683,354.938
587,0.9763500000000001,352.71
588,0.978017,349.887
589,0.979683,349.887
590,0.981433,347.204
591,0.983017,344.649
592,0.984683,344.649
593,0.986333,342.295
594,0.988,340.305
595,0.989667,338.092
596,0.991333,338.092
597,0.993,335.842
598,0.994667,333.92
599,0.996333,331.804
600,0.9980830000000001,331.804
601,0.999667,329.666
602,1.001333,327.401
603,1.003,324.927
604,1.004667,324.927
605,1.006333,322.752
606,1.008,320.785
607,1.009667,320.785
608,1.011333,318.632
609,1.013,316.501
610,1.014783,314.735
611,1.016333,314.735
612,1.018033,312.939
613,1.019667,311.472
614,1.021333,309.989
615,1.023,309.989
616,1.024667,308.104
617,1.026333,306.271
618,1.028,304.289
619,1.029667,304.289
620,1.031333,302.389
621,1.033,300.75
622,1.034667,298.925
623,1.036333,298.925
624,1.038,297.315
625,1.039667,295.609
626,1.041333,295.609
627,1.043,294.127
628,1.044667,292.301
629,1.046317,290.923
630,1.047983,290.923
631,1.04965,289.522
632,1.051317,287.727
633,1.052983,286.438
634,1.05465,286.438
635,1.056317,284.851
636,1.057983,283.435
637,1.05965,282.146
638,1.061317,282.146
639,1.062983,280.671
640,1.064667,279.225
641,1.066317,279.225
642,1.067983,278.242
643,1.06965,276.886
644,1.071317,275.493
645,1.072983,275.493
646,1.07465,273.891
647,1.076317,272.118
648,1.077983,270.724
649,1.079633,270.724
650,1.0813,269.748
651,1.083,268.728
652,1.084633,267.558
653,1.0863,267.558
654,1.087967,266.463
655,1.089633,264.913
656,1.0913,263.438
657,1.092967,263.438
658,1.094633,261.895
659,1.0963,260.599
660,1.097967,260.599
661,1.0997,259.69
662,1.1013,258.811
663,1.102967,257.894
664,1.104633,257.894
665,1.106283,256.479
666,1.10795,255.1
667,1.109617,253.856
668,1.111283,253.856
669,1.11295,252.686
670,1.114617,251.8
671,1.116367,251.025
672,1.11795,251.025
673,1.119617,250.146
674,1.121283,249.17
675,1.12295,249.17
676,1.124617,248.179
677,1.126283,246.994
678,1.12795,246.078
679,1.129617,246.078
680,1.131283,245.385
681,1.13305,244.468
682,1.134617,243.373
683,1.136283,243.373
684,1.13795,242.308
685,1.139617,240.892
686,1.141283,240.02
687,1.14295,240.02
688,1.144617,239.484
689,1.146283,238.65
690,1.14795,237.8
691,1.149617,237.8
692,1.1513,236.809
693,1.15295,235.625
694,1.154617,235.625
695,1.156283,234.857
696,1.157967,234.134
697,1.159633,233.27
698,1.161283,233.27
699,1.16295,232.428
700,1.1646,231.333
701,1.166267,230.625
702,1.167933,230.625
703,1.1696,229.634
704,1.171267,228.778
705,1.172933,228.181
706,1.1746,228.181
707,1.176267,227.459
708,1.177933,226.84
709,1.1796,226.84
710,1.181267,226.095
711,1.182933,225.41
712,1.1846,224.397
713,1.186267,224.397
714,1.187933,223.681
715,1.1896,222.802
716,1.191267,221.789
717,1.192933,221.789
718,1.1946,221.238
719,1.196267,220.388
720,1.197933,219.993
721,1.1996,219.993
722,1.201283,219.189
723,1.202933,218.138
724,1.2046,218.138
725,1.206267,217.52
726,1.207933,216.879
727,1.2096,216.588
728,1.211267,216.588
729,1.212933,216.305
730,1.2146,215.597
731,1.216267,215.001
732,1.217983,215.001
733,1.2196,214.309
734,1.221267,213.459
735,1.222933,212.915
736,1.224583,212.915
737,1.22625,212.215
738,1.227917,211.723
739,1.229583,211.149
740,1.231267,211.149
741,1.232967,210.389
742,1.2347,209.741
743,1.23625,209.741
744,1.237917,208.877
745,1.239583,208.199
746,1.24125,207.692
747,1.242917,207.692
748,1.244583,207.096
749,1.24625,206.582
750,1.247917,205.927
751,1.249583,205.927
752,1.251367,205.271
753,1.252917,204.72
754,1.254583,204.176
755,1.25625,204.176
756,1.257917,203.907
757,1.259583,203.378
758,1.26125,203.378
759,1.262917,202.887
760,1.264583,202.261
761,1.26625,201.762
762,1.267917,201.762
763,1.269583,201.479
764,1.27125,200.883
765,1.272917,200.219
766,1.274583,200.219
767,1.27625,199.616
768,1.277917,198.975
769,1.279583,198.543
770,1.28125,198.543
771,1.282917,198.066
772,1.284583,197.701
773,1.286233,197.381
774,1.2879,197.381
775,1.289567,196.964
776,1.291233,196.785
777,1.2929,196.785
778,1.294567,196.509
779,1.296233,196.151
780,1.2979,195.622
781,1.299567,195.622
782,1.301233,195.414
783,1.302933,194.959
784,1.304567,194.453
785,1.306233,194.453
786,1.3079,194.497
787,1.309567,194.013
788,1.311233,193.492
789,1.3129,193.492
790,1.314567,193.037
791,1.316283,192.121
792,1.3179,192.121
793,1.319567,191.763
794,1.321233,191.115
795,1.3229,190.429
796,1.324567,190.429
797,1.326233,190.072
798,1.3279,189.64
799,1.329567,189.513
800,1.331233,189.513
801,1.3329,189.543
802,1.334567,189.26
803,1.336233,188.746
804,1.3379,188.746
805,1.339567,188.187
806,1.341233,187.561
807,1.3429,187.218
808,1.344567,187.218
809,1.346217,186.853
810,1.347883,186.518
811,1.34955,186.518
812,1.351217,186.22
813,1.352883,185.989
814,1.35455,185.579
815,1.356217,185.579
816,1.357883,185.49
817,1.35955,185.236
818,1.361217,184.767
819,1.362883,184.767
820,1.36455,184.335
821,1.366217,183.985
822,1.367883,183.783
823,1.369667,183.783
824,1.3712,183.299
825,1.372867,183.113
826,1.374533,183.113
827,1.3762,182.949
828,1.377867,182.45
829,1.379533,182.278
830,1.381233,182.278
831,1.382867,181.988
832,1.384533,181.437
833,1.3862,181.206
834,1.387867,181.206
835,1.389533,181.034
836,1.3912,180.811
837,1.392867,180.766
838,1.394533,180.766
839,1.3962,180.855
840,1.397867,180.706
841,1.399533,180.706
842,1.4012,180.356
843,1.402883,179.984
844,1.404533,179.432
845,1.406183,179.432
846,1.40785,179.037
847,1.409517,178.844
848,1.411183,178.434
849,1.41285,178.434
850,1.414517,177.965
851,1.416183,177.704
852,1.41785,177.443
853,1.419517,177.443
854,1.421183,177.138
855,1.42285,177.152
856,1.424517,177.003
857,1.426183,177.003
858,1.42785,176.951
859,1.429517,176.772
860,1.431183,176.772
861,1.43285,176.109
862,1.434517,175.677
863,1.436183,175.267
864,1.43785,175.267
865,1.439517,175.036
866,1.441183,175.282
867,1.44285,174.94
868,1.444517,174.94
869,1.446183,174.597
870,1.44785,174.299
871,1.449533,173.792
872,1.451183,173.792
873,1.45285,173.874
874,1.454567,173.584
875,1.456183,173.584
876,1.45785,173.375
877,1.459517,173.36
878,1.461183,172.891
879,1.46285,172.891
880,1.4645,172.6
881,1.466167,172.496
882,1.467833,172.086
883,1.4695,172.086
884,1.471167,171.825
885,1.472833,171.81
886,1.4745,171.55
887,1.476167,171.55
888,1.477833,171.378
889,1.4795,171.699
890,1.481167,171.572
891,1.482833,171.572
892,1.4845,171.304
893,1.486167,171.14
894,1.48795,170.641
895,1.4895,170.641
896,1.491167,170.529
897,1.492833,170.32
898,1.494517,170.32
899,1.4962,170.268
900,1.497833,170.022
901,1.4995,169.687
902,1.501167,169.687
903,1.502833,169.523
904,1.5045,169.255
905,1.506167,169.136
906,1.507833,169.136
907,1.5095,168.875
908,1.511167,168.636
909,1.512833,168.636
910,1.5145,168.353
911,1.516167,167.951
912,1.517833,167.742
913,1.5195,167.742
914,1.521167,167.668
915,1.522833,167.735
916,1.5245,167.519
917,1.5262,167.519
918,1.527817,167.288
919,1.529483,167.318
920,1.53115,166.923
921,1.532817,166.923
922,1.534483,166.923
923,1.53615,167.049
924,1.537817,166.751
925,1.539483,166.751
926,1.54115,166.61
927,1.542817,166.357
928,1.544483,166.357
929,1.54615,165.612
930,1.547817,165.291
931,1.549483,165.246
932,1.55115,165.246
933,1.552817,165.015
934,1.554483,165.001
935,1.55615,164.755
936,1.557817,164.755
937,1.559483,164.449
938,1.561167,164.591
939,1.562817,164.837
940,1.564483,164.837
941,1.56615,164.747
942,1.567817,164.524
943,1.569483,164.524
944,1.571167,164.367
945,1.572817,164.136
946,1.574483,164.151
947,1.57615,164.151
948,1.577817,164.33
949,1.579483,163.92
950,1.58115,164.062
951,1.582817,164.062
