"ID","sea_time","fid_signal"
1,0,1162.738
2,0.001667,1164.004
3,0.003333,1164.6
4,0.005,1164.6
5,0.006667,1165.196
6,0.008317,1166.314
7,0.009983000000000001,1166.388
8,0.01165,1166.388
9,0.013317,1166.612
10,0.015,1165.122
11,0.0167,1165.122
12,0.018317,1165.122
13,0.019983,1164.526
14,0.02165,1161.099
15,0.023317,1161.099
16,0.024983,1160.726
17,0.02665,1159.534
18,0.028317,1160.13
19,0.029983,1160.13
20,0.031667,1164.153
21,0.033317,1165.867
22,0.034983,1169.443
23,0.03665,1169.443
24,0.038317,1168.549
25,0.039983,1168.251
26,0.04165,1169.22
27,0.043317,1169.22
28,0.044983,1169.071
29,0.04665,1172.945
30,0.048333,1173.168
31,0.049983,1173.168
32,0.05165,1171.455
33,0.053317,1166.686
34,0.054983,1166.686
35,0.05665,1162.44
36,0.058317,1165.42
37,0.059983,1166.016
38,0.06165,1166.016
39,0.063317,1167.506
40,0.064983,1171.902
41,0.06665,1168.847
42,0.0683,1168.847
43,0.069967,1164.898
44,0.071633,1167.804
45,0.0733,1165.792
46,0.07496700000000001,1165.792
47,0.07663300000000001,1164.973
48,0.07829999999999999,1167.655
49,0.079967,1167.655
50,0.081633,1167.953
51,0.0833,1166.388
52,0.084967,1168.624
53,0.08674999999999999,1168.624
54,0.0883,1168.177
55,0.08996700000000001,1164.749
56,0.091683,1164.153
57,0.09329999999999999,1164.153
58,0.094967,1161.024
59,0.096633,1160.875
60,0.0983,1163.408
61,0.099967,1163.408
62,0.101633,1167.58
63,0.1033,1171.529
64,0.10495,1171.529
65,0.106617,1171.231
66,0.108283,1171.231
67,0.10995,1167.432
68,0.111617,1167.432
69,0.113283,1162.067
70,0.11495,1161.247
71,0.116617,1157.15
72,0.118283,1157.15
73,0.11995,1156.181
74,0.121617,1158.64
75,0.123283,1158.863
76,0.12495,1158.863
77,0.126617,1160.204
78,0.128267,1160.055
79,0.129933,1159.683
80,0.1316,1159.683
81,0.133267,1162.514
82,0.134933,1163.036
83,0.136617,1163.036
84,0.1383,1166.016
85,0.139933,1168.698
86,0.1416,1170.337
87,0.143267,1170.337
88,0.144933,1173.094
89,0.1466,1170.933
90,0.148267,1167.059
91,0.149933,1167.059
92,0.1516,1167.729
93,0.153267,1165.196
94,0.154933,1164.526
95,0.156617,1164.526
96,0.1583,1165.569
97,0.159933,1161.769
98,0.1616,1161.769
99,0.163267,1160.8
100,0.164933,1162.44
101,0.1666,1164.079
102,0.168267,1164.079
103,0.169933,1167.133
104,0.17165,1170.188
105,0.173267,1169.965
106,0.174933,1169.965
107,0.1766,1169.443
108,0.178267,1166.314
109,0.179933,1166.016
110,0.1816,1166.016
111,0.183267,1165.196
112,0.184933,1164.6
113,0.1866,1166.388
114,0.18825,1166.388
115,0.189917,1164.377
116,0.191583,1167.282
117,0.19325,1167.282
118,0.194917,1167.357
119,0.196583,1169.071
120,0.19825,1168.922
121,0.199917,1168.922
122,0.201583,1166.835
123,0.20325,1166.537
124,0.205017,1162.663
125,0.2066,1162.663
126,0.20825,1164.153
127,0.209917,1167.506
128,0.211583,1170.561
129,0.21325,1170.561
130,0.214917,1172.498
131,0.216583,1171.529
132,0.21825,1171.529
133,0.219917,1170.114
134,0.221583,1168.027
135,0.22325,1167.655
136,0.224917,1167.655
137,0.2266,1168.4
138,0.22825,1164.824
139,0.229917,1165.494
140,0.231583,1165.494
141,0.23325,1164.6
142,0.234917,1163.632
143,0.236583,1166.91
144,0.238267,1166.91
145,0.239917,1168.475
146,0.241583,1167.879
147,0.24325,1167.879
148,0.244917,1168.624
149,0.246583,1165.643
150,0.24825,1162.961
151,0.2499,1162.961
152,0.251567,1163.11
153,0.253233,1161.993
154,0.2549,1162.589
155,0.256567,1162.589
156,0.258233,1162.738
157,0.2599,1163.036
158,0.261567,1163.557
159,0.263233,1163.557
160,0.2649,1168.102
161,0.266567,1168.177
162,0.268233,1170.561
163,0.2699,1170.561
164,0.271567,1171.306
165,0.273233,1169.741
166,0.2749,1169.741
167,0.276567,1169.294
168,0.278233,1167.059
169,0.2799,1166.686
170,0.281567,1166.686
171,0.283233,1166.388
172,0.2849,1170.337
173,0.286567,1172.2
174,0.288233,1172.2
175,0.28995,1175.478
176,0.291567,1177.937
177,0.293233,1174.137
178,0.2949,1174.137
179,0.296567,1172.2
180,0.298233,1168.922
181,0.2999,1168.922
182,0.301567,1165.42
183,0.303233,1164.973
184,0.3049,1164.824
185,0.306683,1164.824
186,0.308233,1166.314
187,0.309967,1164.377
188,0.31155,1163.855
189,0.313217,1163.855
190,0.314883,1166.239
191,0.31655,1167.879
192,0.318217,1168.475
193,0.319883,1168.475
194,0.32155,1169.369
195,0.323333,1168.996
196,0.324883,1167.58
197,0.32655,1167.58
198,0.328217,1168.698
199,0.329883,1171.827
200,0.33155,1171.827
201,0.333217,1171.157
202,0.334883,1171.157
203,0.33655,1171.902
204,0.338217,1171.902
205,0.339883,1171.231
206,0.34155,1175.106
207,0.343217,1180.172
208,0.344883,1180.172
209,0.34655,1191.348
210,0.348217,1202.151
211,0.349883,1212.806
212,0.35155,1212.806
213,0.353217,1228.526
214,0.354883,1240.149
215,0.35655,1240.149
216,0.358217,1258.627
217,0.359883,1282.617
218,0.36155,1303.181
219,0.363217,1303.181
220,0.364883,1329.556
221,0.36655,1357.943
222,0.3682,1385.808
223,0.369867,1385.808
224,0.371533,1417.175
225,0.3732,1447.648
226,0.374867,1480.207
227,0.376533,1480.207
228,0.3782,1512.766
229,0.379867,1551.509
230,0.381567,1592.562
231,0.383283,1592.562
232,0.384867,1629.219
233,0.386533,1668.707
234,0.3882,1668.707
235,0.389867,1703.873
236,0.391533,1742.467
237,0.3932,1783.669
238,0.394867,1783.669
239,0.396517,1823.53
240,0.398183,1869.947
241,0.39985,1917.034
242,0.401517,1917.034
243,0.403183,1963.153
244,0.40485,2012.327
245,0.406517,2058.595
246,0.40825,2058.595
247,0.40985,2105.087
248,0.411517,2155.751
249,0.413183,2155.751
250,0.41485,2209.544
251,0.416517,2260.506
252,0.418183,2314.821
253,0.41985,2314.821
254,0.421517,2372.041
255,0.423183,2429.262
256,0.424833,2492.517
257,0.4265,2492.517
258,0.428167,2557.933
259,0.429833,2623.424
260,0.4315,2690.703
261,0.433167,2690.703
262,0.434833,2763.42
263,0.4365,2837.926
264,0.438167,2837.926
265,0.439833,2919.063
266,0.441617,3004.223
267,0.443167,3094.077
268,0.444833,3094.077
269,0.4465,3191.382
270,0.448167,3294.87
271,0.449833,3411.695
272,0.4515,3411.695
273,0.453167,3541.41
274,0.454833,3688.41
275,0.4565,3856.942
276,0.4582,3856.942
277,0.45985,4050.881
278,0.4615,4274.547
279,0.463167,4528.538
280,0.464833,4528.538
281,0.4665,4820.675
282,0.468167,5149.022
283,0.469833,5149.022
284,0.4715,5515.218
285,0.473167,5922.541
286,0.474833,6361.082
287,0.4765,6361.082
288,0.478167,6825.03
289,0.479833,7306.188
290,0.4815,7787.272
291,0.483167,7787.272
292,0.484833,8257.776
293,0.4865,8705.853999999999
294,0.48815,9117.35
295,0.489817,9117.35
296,0.491483,9482.056
297,0.49315,9788.722
298,0.494817,9788.722
299,0.496483,10026.47
300,0.49815,10191.5
301,0.499817,10283.962
302,0.501483,10283.962
303,0.50315,10303.78
304,0.504817,10257.065
305,0.506483,10145.157
306,0.50815,10145.157
307,0.509817,9973.124
308,0.511483,9755.492
309,0.51315,9491.891
310,0.514817,9491.891
311,0.516483,9196.549999999999
312,0.51815,8879.304
313,0.519817,8541.569
314,0.521517,8541.569
315,0.52315,8194.223
316,0.524867,7845.759
317,0.526517,7845.759
318,0.52815,7499.68
319,0.529817,7159.785
320,0.531483,6832.853
321,0.53315,6832.853
322,0.534817,6517.172
323,0.536483,6213.263
324,0.53815,5922.839
325,0.539817,5922.839
326,0.541483,5651.116
327,0.5432,5392.954
328,0.544817,5150.959
329,0.5464830000000001,5150.959
330,0.548133,4927.367
331,0.5498,4719.943
332,0.551467,4719.943
333,0.553133,4528.09
334,0.5548,4349.649
335,0.556467,4183.203
336,0.558133,4183.203
337,0.5599,4027.188
338,0.561467,3881.455
339,0.563133,3747.568
340,0.5648,3747.568
341,0.5664670000000001,3624.037
342,0.568133,3510.863
343,0.5698,3404.692
344,0.5714669999999999,3404.692
345,0.573133,3309.175
346,0.5748,3219.694
347,0.5765670000000001,3131.852
348,0.578133,3131.852
349,0.5798,3050.193
350,0.581467,2972.111
351,0.583133,2972.111
352,0.5848,2896.562
353,0.586467,2828.389
354,0.588133,2766.326
355,0.5898,2766.326
356,0.591467,2705.231
357,0.593133,2650.768
358,0.5948,2600.998
359,0.596467,2600.998
360,0.598133,2551.675
361,0.5998,2506.971
362,0.6015,2463.013
363,0.603167,2463.013
364,0.6048,2420.917
365,0.60645,2381.206
366,0.608117,2381.206
367,0.6098,2340.153
368,0.61145,2303.124
369,0.613117,2264.977
370,0.614783,2264.977
371,0.6164500000000001,2227.798
372,0.618117,2194.494
373,0.619783,2162.605
374,0.6214499999999999,2162.605
375,0.623117,2134.517
376,0.624783,2105.758
377,0.62645,2080.798
378,0.628117,2080.798
379,0.629783,2055.317
380,0.63145,2030.134
381,0.633117,2007.484
382,0.634783,2007.484
383,0.63645,1981.482
384,0.638117,1956.075
385,0.639783,1956.075
386,0.64145,1934.841
387,0.643117,1915.693
388,0.6448,1897.29
389,0.64645,1897.29
390,0.6481170000000001,1881.048
391,0.649783,1862.794
392,0.65145,1843.944
393,0.6531169999999999,1843.944
394,0.654783,1827.106
395,0.65645,1812.13
396,0.658117,1792.908
397,0.659783,1792.908
398,0.6615,1778.603
399,0.663117,1765.862
400,0.664783,1765.862
401,0.6664330000000001,1749.992
402,0.6681,1740.828
403,0.669767,1728.386
404,0.6714329999999999,1728.386
405,0.673117,1715.124
406,0.674817,1703.724
407,0.676433,1693.293
408,0.6782,1693.293
409,0.679767,1681.447
410,0.681433,1672.357
411,0.6831,1664.311
412,0.684767,1664.311
413,0.686433,1652.315
414,0.688083,1642.331
415,0.68975,1642.331
416,0.6914169999999999,1631.528
417,0.693083,1622.364
418,0.694867,1612.529
419,0.696417,1612.529
420,0.698083,1602.024
421,0.69975,1593.754
422,0.701417,1583.844
423,0.703083,1583.844
424,0.70475,1573.637
425,0.706417,1567.155
426,0.708083,1560.524
427,0.70975,1560.524
428,0.711417,1553.595
429,0.713083,1547.933
430,0.71475,1539.365
431,0.716417,1539.365
432,0.718083,1528.114
433,0.71975,1520.44
434,0.721417,1520.44
435,0.723083,1512.468
436,0.72475,1507.103
437,0.726417,1502.484
438,0.728067,1502.484
439,0.729733,1494.885
440,0.7314000000000001,1487.434
441,0.733067,1483.858
442,0.734733,1483.858
443,0.7364000000000001,1477.748
444,0.738067,1475.364
445,0.739733,1470.894
446,0.7413999999999999,1470.894
447,0.743067,1462.474
448,0.744767,1460.314
449,0.7464,1460.314
450,0.748067,1452.044
451,0.749733,1450.106
452,0.7514,1448.02
453,0.753067,1448.02
454,0.75475,1440.57
455,0.756433,1435.652
456,0.758067,1429.915
457,0.759733,1429.915
458,0.7614,1422.465
459,0.7630670000000001,1417.473
460,0.764733,1412.258
461,0.7664,1412.258
462,0.7680670000000001,1405.701
463,0.769733,1405.031
464,0.7714,1402.348
465,0.7730669999999999,1402.348
466,0.774733,1400.411
467,0.7764,1399.815
468,0.778067,1399.815
469,0.779783,1396.984
470,0.7814,1393.408
471,0.783067,1391.619
472,0.784733,1391.619
473,0.7864,1388.416
474,0.78805,1383.126
475,0.789717,1378.283
476,0.7913829999999999,1378.283
477,0.79305,1372.77
478,0.794717,1366.958
479,0.79645,1364.797
480,0.79805,1364.797
481,0.799717,1363.68
482,0.801383,1360.327
483,0.80305,1360.327
484,0.804717,1355.857
485,0.806383,1351.982
486,0.80805,1347.885
487,0.809717,1347.885
488,0.811383,1344.606
489,0.813167,1343.116
490,0.814717,1338.72
491,0.816383,1338.72
492,0.8180500000000001,1335.964
493,0.819717,1334.324
494,0.821383,1332.238
495,0.823083,1332.238
496,0.824717,1331.195
497,0.826383,1332.313
498,0.82805,1330.972
499,0.829717,1330.972
500,0.831383,1328.364
501,0.83305,1324.564
502,0.834717,1324.564
503,0.836383,1318.455
504,0.838067,1311.451
505,0.839717,1308.173
506,0.841383,1308.173
507,0.84305,1307.428
508,0.844733,1306.832
509,0.846417,1308.545
510,0.848033,1308.545
511,0.8497,1310.632
512,0.851367,1307.726
513,0.853033,1308.024
514,0.8547,1308.024
515,0.856367,1306.683
516,0.858033,1301.914
517,0.8597,1301.914
518,0.861367,1300.126
519,0.8630330000000001,1295.134
520,0.8647,1290.59
521,0.866367,1290.59
522,0.8680330000000001,1287.833
523,0.8697,1287.535
524,0.871367,1287.833
525,0.8730329999999999,1287.833
526,0.8747,1287.907
527,0.876367,1286.566
528,0.878033,1283.735
529,0.8797,1283.735
530,0.881367,1280.68
531,0.883033,1279.265
532,0.8847,1279.265
533,0.886367,1281.947
534,0.888033,1284.182
535,0.8897,1280.829
536,0.8914,1280.829
537,0.893033,1277.924
538,0.8947000000000001,1272.261
539,0.896367,1268.685
540,0.89805,1268.685
541,0.8997000000000001,1268.759
542,0.901367,1267.642
543,0.903033,1269.057
544,0.9046999999999999,1269.057
545,0.906367,1267.344
546,0.908017,1264.289
547,0.909683,1262.799
548,0.91135,1262.799
549,0.913017,1260.713
550,0.914683,1258.627
551,0.91635,1258.627
552,0.918017,1257.434
553,0.919683,1259.297
554,0.92135,1258.403
555,0.923017,1258.403
556,0.924683,1256.466
557,0.92635,1256.615
558,0.928017,1252.443
559,0.929683,1252.443
560,0.931467,1250.878
561,0.933017,1248.196
562,0.934683,1246.11
563,0.93635,1246.11
564,0.938033,1244.321
565,0.939683,1244.545
566,0.94135,1244.545
567,0.943017,1245.588
568,0.9446830000000001,1245.812
569,0.94635,1245.663
570,0.948017,1245.663
571,0.9496830000000001,1240.596
572,0.95135,1237.467
573,0.953017,1237.094
574,0.9546829999999999,1237.094
575,0.95635,1237.318
576,0.958017,1241.043
577,0.959683,1242.31
578,0.96135,1242.31
579,0.963017,1239.33
580,0.964683,1236.573
581,0.966367,1235.157
582,0.968,1235.157
583,0.9696669999999999,1236.349
584,0.971333,1239.628
585,0.973,1239.628
586,0.974667,1239.628
587,0.976333,1236.126
588,0.978,1231.357
589,0.97965,1231.357
590,0.981317,1225.62
591,0.9829830000000001,1222.566
592,0.98465,1220.554
593,0.986317,1220.554
594,0.9879829999999999,1219.809
595,0.98965,1219.362
596,0.991317,1223.311
597,0.9929829999999999,1223.311
598,0.99465,1224.13
599,0.996317,1224.652
600,0.997983,1224.652
601,0.99965,1225.919
602,1.001317,1224.577
603,1.002983,1225.695
604,1.00465,1225.695
605,1.006317,1227.185
606,1.007983,1225.323
607,1.00965,1225.248
608,1.011317,1225.248
609,1.013,1224.652
610,1.01465,1219.884
611,1.016317,1218.021
612,1.017983,1218.021
613,1.01965,1216.084
614,1.021317,1213.625
615,1.022983,1213.625
616,1.02465,1215.19
617,1.0263,1215.19
618,1.027967,1215.115
619,1.029633,1215.115
620,1.0313,1214.147
621,1.032983,1213.327
622,1.034633,1212.582
623,1.0363,1212.582
624,1.037967,1210.645
625,1.039683,1210.198
626,1.0413,1208.261
627,1.042967,1208.261
628,1.044633,1207.814
629,1.0463,1205.727
630,1.047967,1207.143
631,1.049733,1207.143
632,1.0513,1209.527
633,1.052967,1209.527
634,1.054633,1209.527
635,1.0563,1209.825
636,1.057967,1208.037
637,1.059633,1207.069
638,1.0613,1207.069
639,1.062967,1208.708
640,1.064633,1209.08
641,1.0663,1208.782
642,1.067967,1208.782
643,1.069633,1205.951
644,1.0713,1202.971
645,1.072967,1202.3
646,1.074633,1202.3
647,1.0763,1200.512
648,1.077967,1202.673
649,1.079633,1202.673
650,1.0813,1202.598
651,1.082967,1204.833
652,1.084633,1204.61
653,1.086283,1204.61
654,1.08795,1201.779
655,1.089617,1202.971
656,1.091283,1199.171
657,1.09295,1199.171
658,1.094617,1199.618
659,1.096283,1202.226
660,1.09795,1200.363
661,1.099617,1200.363
662,1.101283,1200.363
663,1.10295,1199.842
664,1.10465,1199.916
665,1.106283,1199.916
666,1.107983,1201.481
667,1.109617,1204.833
668,1.111283,1204.833
669,1.11295,1204.982
670,1.114617,1203.343
671,1.116283,1201.034
672,1.11795,1201.034
673,1.119617,1197.532
674,1.121283,1197.234
675,1.12295,1197.606
676,1.124617,1197.606
677,1.126283,1201.332
678,1.12795,1204.461
679,1.129617,1202.971
680,1.131283,1202.971
681,1.13295,1201.779
682,1.134667,1199.394
683,1.136283,1199.394
684,1.13795,1194.328
685,1.139617,1192.987
686,1.141283,1191.646
687,1.14295,1191.646
688,1.144617,1188.591
689,1.146283,1189.485
690,1.147933,1189.783
691,1.1496,1189.783
692,1.151267,1191.422
693,1.152933,1190.23
694,1.1546,1192.018
695,1.156267,1192.018
696,1.157933,1194.552
697,1.1596,1193.21
698,1.161267,1196.414
699,1.162933,1196.414
700,1.1646,1195.818
701,1.166267,1196.191
702,1.168033,1196.191
703,1.1696,1196.936
704,1.171267,1195.595
705,1.172933,1195.595
706,1.1746,1195.595
707,1.176267,1194.03
708,1.177933,1192.242
709,1.1796,1193.062
710,1.181267,1193.062
711,1.182933,1190.975
712,1.1846,1188.517
713,1.1863,1188.666
714,1.187967,1188.666
715,1.1896,1189.187
716,1.191267,1187.995
717,1.192933,1187.995
718,1.1946,1189.56
719,1.196267,1190.528
720,1.197933,1190.081
721,1.1996,1190.081
722,1.201267,1190.677
723,1.202933,1190.975
724,1.2046,1189.783
725,1.20625,1189.783
726,1.207917,1186.654
727,1.209583,1185.089
728,1.21125,1183.152
729,1.212917,1183.152
730,1.214583,1182.258
731,1.21625,1183.748
732,1.217917,1185.089
733,1.219583,1185.089
734,1.22125,1187.548
735,1.222917,1186.952
736,1.224583,1186.952
737,1.22625,1186.281
738,1.227917,1185.611
739,1.229583,1184.94
740,1.23125,1184.94
741,1.232917,1183.823
742,1.234583,1183.748
743,1.23625,1184.493
744,1.237917,1184.493
745,1.239583,1182.482
746,1.241267,1185.983
747,1.242917,1188.517
748,1.244583,1188.517
749,1.24625,1192.242
750,1.247917,1193.807
751,1.249583,1193.807
752,1.25125,1190.975
753,1.252967,1186.505
754,1.2546,1181.29
755,1.256267,1181.29
756,1.257917,1179.576
757,1.259583,1178.98
758,1.26125,1182.556
759,1.262917,1182.556
760,1.264583,1184.493
761,1.266233,1184.419
762,1.2679,1185.611
763,1.26955,1185.611
764,1.271217,1185.76
765,1.272883,1183.525
766,1.27455,1183.525
767,1.276217,1183.823
768,1.277883,1182.556
769,1.27955,1180.545
770,1.281217,1180.545
771,1.282883,1180.693
772,1.28455,1179.427
773,1.286233,1179.203
774,1.287883,1179.203
775,1.28955,1178.905
776,1.291217,1181.29
777,1.292883,1183.45
778,1.29455,1183.45
779,1.296217,1183.897
780,1.297883,1180.992
781,1.29955,1178.309
782,1.301217,1178.309
783,1.302883,1177.192
784,1.30455,1179.65
785,1.306217,1179.65
786,1.307883,1179.65
787,1.30955,1180.992
788,1.311217,1180.992
789,1.312883,1180.992
790,1.31455,1176.074
791,1.316217,1177.639
792,1.317883,1176.894
793,1.31955,1176.894
794,1.321217,1174.807
795,1.322883,1178.458
796,1.32455,1180.693
797,1.326217,1180.693
798,1.327867,1179.501
799,1.329567,1180.097
800,1.33125,1180.097
801,1.332933,1180.396
802,1.334533,1179.501
803,1.3362,1180.917
804,1.337867,1180.917
805,1.339533,1180.47
806,1.3412,1176.074
807,1.342867,1172.349
808,1.344533,1172.349
809,1.3462,1169.816
810,1.347867,1172.051
811,1.349533,1174.733
812,1.3512,1174.733
813,1.352867,1178.458
814,1.354533,1182.556
815,1.3562,1180.172
816,1.357867,1180.172
817,1.359533,1179.129
818,1.3612,1179.054
819,1.362867,1179.054
820,1.364533,1175.404
821,1.3662,1176.894
822,1.367867,1177.266
823,1.369533,1177.266
824,1.371217,1174.807
825,1.372867,1174.212
826,1.374533,1172.87
827,1.3762,1172.87
828,1.377867,1172.423
829,1.379533,1173.317
830,1.3812,1175.106
831,1.382867,1175.106
832,1.384533,1175.851
833,1.3862,1176.745
834,1.38785,1176.745
835,1.389517,1177.564
836,1.391183,1179.352
837,1.39285,1181.066
838,1.394517,1181.066
839,1.396183,1181.96
840,1.39785,1182.482
841,1.399517,1179.874
842,1.401183,1179.874
843,1.40285,1178.607
844,1.40455,1179.278
845,1.406183,1175.18
846,1.40785,1175.18
847,1.409517,1173.243
848,1.411183,1171.902
849,1.41285,1167.879
850,1.414517,1167.879
851,1.4162,1169.443
852,1.41785,1169.965
853,1.419517,1169.965
854,1.42125,1168.549
855,1.42285,1169.89
856,1.424517,1171.306
857,1.426183,1171.306
858,1.42785,1174.659
859,1.429517,1176.447
860,1.431183,1174.435
861,1.43285,1174.435
862,1.434517,1172.796
863,1.436183,1171.753
864,1.43785,1171.604
865,1.439517,1171.604
866,1.441183,1171.902
867,1.44285,1174.36
868,1.444517,1174.36
869,1.446183,1171.529
870,1.447833,1170.412
871,1.4495,1170.71
872,1.451167,1170.71
873,1.452833,1168.326
874,1.4545,1168.475
875,1.456167,1169.965
876,1.457833,1169.965
877,1.4595,1170.412
878,1.461167,1172.125
879,1.462833,1174.063
880,1.4645,1174.063
881,1.466167,1174.137
882,1.467833,1173.094
883,1.4695,1173.094
884,1.471167,1173.541
885,1.472833,1171.38
886,1.474533,1172.87
887,1.476167,1172.87
888,1.477833,1176.223
889,1.4795,1174.957
890,1.481167,1177.713
891,1.482833,1177.713
892,1.48455,1175.255
893,1.486167,1173.317
894,1.487833,1171.231
895,1.489567,1171.231
896,1.491167,1167.953
897,1.492833,1167.059
898,1.4945,1166.835
899,1.496167,1166.835
900,1.497833,1167.059
901,1.4995,1171.529
902,1.501167,1171.529
903,1.502833,1175.553
904,1.5045,1175.925
905,1.506233,1175.702
906,1.507817,1175.702
907,1.509483,1174.957
908,1.51115,1171.008
909,1.512817,1173.615
910,1.514483,1173.615
911,1.51615,1174.659
912,1.517817,1174.584
913,1.519483,1177.788
914,1.52115,1177.788
915,1.5229,1176.298
916,1.524483,1176.67
917,1.52615,1176.67
918,1.527817,1174.659
919,1.529483,1173.615
