"ID","sea_time","fid_signal"
1,0,1166.463
2,0.001667,1166.984
3,0.003333,1166.984
4,0.005,1170.561
5,0.006667,1171.157
6,0.008333,1174.659
7,0.010033,1174.659
8,0.011667,1174.36
9,0.013317,1169.369
10,0.014983,1167.357
11,0.01665,1167.357
12,0.018317,1167.282
13,0.019983,1170.412
14,0.02165,1170.412
15,0.023317,1171.008
16,0.024983,1173.839
17,0.02665,1170.933
18,0.028317,1170.933
19,0.029983,1167.208
20,0.03165,1169.965
21,0.033317,1168.251
22,0.034983,1168.251
23,0.03665,1168.102
24,0.03835,1168.326
25,0.039983,1164.898
26,0.04165,1164.898
27,0.043317,1164.228
28,0.044983,1163.036
29,0.04665,1163.706
30,0.048317,1163.706
31,0.049983,1163.855
32,0.05165,1164.302
33,0.053317,1164.302
34,0.055,1167.729
35,0.05665,1167.133
36,0.058317,1168.624
37,0.059983,1168.624
38,0.06165,1168.251
39,0.063317,1165.643
40,0.064983,1168.922
41,0.06665,1168.922
42,0.068317,1167.133
43,0.069983,1166.91
44,0.071683,1169.741
45,0.0733,1169.741
46,0.07496700000000001,1166.761
47,0.07663300000000001,1170.039
48,0.07829999999999999,1170.039
49,0.079967,1168.624
50,0.081633,1165.196
51,0.0833,1166.537
52,0.084967,1166.537
53,0.086633,1166.09
54,0.0883,1168.326
55,0.08996700000000001,1172.051
56,0.09163300000000001,1172.051
57,0.09329999999999999,1172.796
58,0.094967,1172.945
59,0.096633,1172.423
60,0.098317,1172.423
61,0.099967,1170.561
62,0.101633,1170.337
63,0.1033,1169.369
64,0.104967,1169.369
65,0.106633,1170.784
66,0.1083,1172.423
67,0.109967,1172.423
68,0.111633,1170.784
69,0.1133,1166.537
70,0.114967,1163.334
71,0.11665,1163.334
72,0.1183,1160.502
73,0.119967,1162.812
74,0.121633,1165.42
75,0.1233,1165.42
76,0.124967,1166.388
77,0.126633,1166.835
78,0.1283,1163.706
79,0.129983,1163.706
80,0.131633,1163.781
81,0.133283,1164.824
82,0.13495,1164.824
83,0.136617,1165.494
84,0.138283,1164.824
85,0.13995,1165.643
86,0.141617,1165.643
87,0.143283,1164.898
88,0.14495,1164.377
89,0.146617,1166.537
90,0.148283,1166.537
91,0.14995,1168.475
92,0.151617,1168.996
93,0.153283,1169.071
94,0.15495,1169.071
95,0.156667,1169.443
96,0.158283,1167.506
97,0.15995,1167.506
98,0.161617,1167.059
99,0.163283,1169.294
100,0.16495,1171.455
101,0.166617,1171.455
102,0.168283,1172.721
103,0.16995,1175.106
104,0.171617,1171.008
105,0.173283,1171.008
106,0.17495,1166.463
107,0.176633,1167.804
108,0.178283,1165.569
109,0.17995,1165.569
110,0.181617,1169.071
111,0.183283,1173.168
112,0.18495,1172.87
113,0.186617,1172.87
114,0.188283,1173.019
115,0.18995,1172.87
116,0.191617,1172.87
117,0.193267,1171.455
118,0.194933,1168.996
119,0.1966,1171.827
120,0.198267,1171.827
121,0.199933,1171.157
122,0.2016,1171.604
123,0.203267,1172.796
124,0.204933,1172.796
125,0.206633,1172.349
126,0.208267,1171.976
127,0.209933,1171.157
128,0.2116,1171.157
129,0.213267,1169.965
130,0.214933,1167.879
131,0.2166,1167.879
132,0.218267,1165.718
133,0.219933,1166.984
134,0.2216,1170.486
135,0.22325,1170.486
136,0.224917,1172.2
137,0.226583,1175.106
138,0.22825,1175.404
139,0.229917,1175.404
140,0.231583,1173.69
141,0.23325,1170.114
142,0.234917,1168.773
143,0.236583,1168.773
144,0.23825,1164.675
145,0.239917,1162.663
146,0.241583,1166.835
147,0.24325,1166.835
148,0.244917,1170.188
149,0.246583,1174.36
150,0.24825,1174.36
151,0.249917,1174.137
152,0.251583,1173.019
153,0.253233,1169.369
154,0.2549,1169.369
155,0.256567,1165.941
156,0.258233,1169.145
157,0.2599,1166.835
158,0.261583,1166.835
159,0.263283,1168.027
160,0.2649,1170.933
161,0.266567,1167.655
162,0.268233,1167.655
163,0.2699,1168.027
164,0.2716,1166.016
165,0.273233,1166.016
166,0.274967,1163.557
167,0.276567,1164.6
168,0.278233,1165.718
169,0.2799,1165.718
170,0.281567,1166.463
171,0.283233,1167.432
172,0.2849,1166.09
173,0.286567,1166.09
174,0.288233,1165.494
175,0.2899,1167.953
176,0.291683,1168.773
177,0.293233,1168.773
178,0.2949,1170.784
179,0.296567,1171.082
180,0.298233,1168.027
181,0.2999,1168.027
182,0.301567,1170.114
183,0.303233,1170.784
184,0.3049,1170.784
185,0.306567,1172.796
186,0.30835,1172.572
187,0.3099,1167.208
188,0.311567,1167.208
189,0.313217,1165.271
190,0.314883,1162.738
191,0.31655,1164.973
192,0.318217,1164.973
193,0.319883,1170.635
194,0.32155,1172.87
195,0.323217,1175.031
196,0.324883,1175.031
197,0.32655,1172.2
198,0.328217,1168.475
199,0.329883,1168.475
200,0.33155,1167.133
201,0.333217,1164.973
202,0.334883,1167.506
203,0.33655,1167.506
204,0.338217,1167.879
205,0.339883,1169.592
206,0.34155,1171.455
207,0.343217,1171.455
208,0.344883,1170.412
209,0.3466,1171.231
210,0.348233,1171.678
211,0.349883,1171.678
212,0.35155,1176.223
213,0.353217,1181.588
214,0.354883,1181.588
215,0.35655,1188.517
216,0.358217,1194.626
217,0.359883,1203.12
218,0.36155,1203.12
219,0.363217,1215.041
220,0.364883,1229.42
221,0.36655,1248.568
222,0.368217,1248.568
223,0.369883,1263.469
224,0.37155,1284.48
225,0.3732,1306.981
226,0.374867,1306.981
227,0.376533,1330.972
228,0.3782,1358.092
229,0.379867,1382.53
230,0.381533,1382.53
231,0.3832,1408.83
232,0.384867,1434.386
233,0.386533,1434.386
234,0.3882,1465.008
235,0.389867,1498.386
236,0.391533,1530.498
237,0.393233,1530.498
238,0.394867,1563.057
239,0.396533,1596.883
240,0.3982,1630.858
241,0.399867,1630.858
242,0.401533,1669.526
243,0.4032,1711.696
244,0.404867,1755.878
245,0.406533,1755.878
246,0.4082,1800.284
247,0.409867,1843.795
248,0.411533,1843.795
249,0.4132,1892
250,0.414867,1942.143
251,0.416533,1995.489
252,0.4182,1995.489
253,0.419883,2053.38
254,0.421583,2113.879
255,0.4232,2173.334
256,0.424867,2173.334
257,0.426533,2240.39
258,0.4282,2311.766
259,0.429867,2386.719
260,0.431517,2386.719
261,0.433183,2474.487
262,0.43485,2570.599
263,0.436517,2683.476
264,0.438183,2683.476
265,0.43985,2820.119
266,0.441517,2991.557
267,0.443317,3213.733
268,0.44485,3213.733
269,0.446517,3503.04
270,0.448183,3884.137
271,0.44985,3884.137
272,0.451517,4382.432
273,0.453183,5020.35
274,0.45485,5823.225
275,0.456517,5823.225
276,0.458183,6813.184
277,0.45985,7999.39
278,0.461517,9393.468999999999
279,0.463183,9393.468999999999
280,0.46485,10988.563
281,0.466517,12763.738
282,0.468183,12763.738
283,0.46985,14691.204
284,0.471517,16729.385
285,0.473183,18829.406
286,0.47485,18829.406
287,0.476517,20938.59
288,0.478183,22995.473
289,0.47985,24944.916
290,0.481517,24944.916
291,0.483183,26730.523
292,0.48485,28299.391
293,0.486517,29617.176
294,0.488183,29617.176
295,0.48985,30650.049
296,0.491517,31382.367
297,0.493183,31812.713
298,0.4949,31812.713
299,0.4965,31951.441
300,0.498167,31823.293
301,0.499833,31823.293
302,0.5014999999999999,31454.637
303,0.503167,30875.803
304,0.50485,30121.207
305,0.5065,30121.207
306,0.508167,29224.828
307,0.509833,28224.438
308,0.511517,27155.951
309,0.51315,27155.951
310,0.514817,26046.037
311,0.516483,24913.922
312,0.51815,23780.391
313,0.519817,23780.391
314,0.521483,22663.996
315,0.52315,21570.176
316,0.524817,21570.176
317,0.526483,20514.801
318,0.528217,19506.141
319,0.529817,18540.248
320,0.531483,18540.248
321,0.53315,17629.564
322,0.534817,16769.395
323,0.536483,15959.441
324,0.53815,15959.441
325,0.539817,15200.525
326,0.541483,14486.983
327,0.54315,13818.294
328,0.544867,13818.294
329,0.5464830000000001,13191.625
330,0.54815,12605.936
331,0.549817,12605.936
332,0.5514829999999999,12059.286
333,0.553133,11548.996
334,0.5548,11069.104
335,0.556467,11069.104
336,0.558133,10618.27
337,0.5598,10196.119
338,0.5615830000000001,9803.474
339,0.563133,9803.474
340,0.5648,9434.074000000001
341,0.5664670000000001,9088.367
342,0.568133,8763.671
343,0.569817,8763.671
344,0.5714669999999999,8453.652
345,0.573133,8162.931
346,0.5748,7891.878
347,0.576467,7891.878
348,0.578133,7634.61
349,0.5798,7392.913
350,0.581467,7392.913
351,0.583133,7165.745
352,0.5848,6946.624
353,0.586467,6737.039
354,0.588133,6737.039
355,0.5898,6539.449
356,0.591467,6348.714
357,0.59315,6170.347
358,0.5948,6170.347
359,0.596467,6005.615
360,0.598133,5843.639
361,0.5998,5691.499
362,0.601467,5691.499
363,0.603133,5546.51
364,0.6048,5405.471
365,0.606467,5405.471
366,0.608133,5276.799
367,0.6098,5152.077
368,0.611467,5032.122
369,0.613117,5032.122
370,0.614783,4918.277
371,0.6164500000000001,4805.476
372,0.618117,4699.752
373,0.619783,4699.752
374,0.6214499999999999,4595.294
375,0.623117,4493.52
376,0.624783,4397.78
377,0.62645,4397.78
378,0.628117,4305.467
379,0.629783,4219.413
380,0.63145,4136.115
381,0.633117,4136.115
382,0.634783,4055.574
383,0.636467,3981.143
384,0.638117,3981.143
385,0.639783,3910.884
386,0.64145,3842.19
387,0.643117,3777.444
388,0.644783,3777.444
389,0.646467,3710.315
390,0.6481170000000001,3641.918
391,0.649783,3580.153
392,0.65145,3580.153
393,0.6531169999999999,3514.96
394,0.654783,3454.611
395,0.65645,3400.668
396,0.658117,3400.668
397,0.659783,3346.279
398,0.66145,3297.776
399,0.66315,3297.776
400,0.664783,3247.41
401,0.66645,3196.597
402,0.668117,3146.753
403,0.669783,3146.753
404,0.6714329999999999,3099.441
405,0.6731,3055.93
406,0.674767,3016.964
407,0.676433,3016.964
408,0.6781,2980.456
409,0.67985,2944.693
410,0.681433,2907.887
411,0.6831,2907.887
412,0.684783,2871.379
413,0.686433,2834.871
414,0.6881,2798.811
415,0.689767,2798.811
416,0.691433,2766.326
417,0.6931,2731.383
418,0.694783,2731.383
419,0.696433,2698.973
420,0.6981000000000001,2666.339
421,0.699767,2633.631
422,0.701433,2633.631
423,0.7030999999999999,2603.68
424,0.704767,2572.462
425,0.706433,2541.766
426,0.7081,2541.766
427,0.709767,2514.124
428,0.711433,2484.769
429,0.7131,2456.754
430,0.7148,2456.754
431,0.716433,2432.391
432,0.7181,2409.965
433,0.719767,2409.965
434,0.721433,2388.135
435,0.7231,2367.72
436,0.7247670000000001,2346.709
437,0.726433,2346.709
438,0.7281,2324.879
439,0.7297670000000001,2303.272
440,0.731417,2281.74
441,0.733083,2281.74
442,0.73475,2261.102
443,0.736417,2238.676
444,0.738083,2216.771
445,0.73975,2216.771
446,0.741417,2198.219
447,0.743083,2178.773
448,0.74475,2178.773
449,0.746417,2158.657
450,0.7480830000000001,2140.626
451,0.74975,2122.521
452,0.751417,2122.521
453,0.7530829999999999,2108.067
454,0.75475,2094.284
455,0.756417,2082.81
456,0.758083,2082.81
457,0.75975,2067.015
458,0.761417,2048.612
459,0.763083,2033.785
460,0.764783,2033.785
461,0.766417,2016.425
462,0.768083,2000.108
463,0.76975,1986.176
464,0.771417,1986.176
465,0.773083,1973.435
466,0.77475,1962.781
467,0.776417,1962.781
468,0.778083,1952.35
469,0.7797500000000001,1941.1
470,0.78145,1928.732
471,0.783083,1928.732
472,0.784783,1915.619
473,0.786417,1902.208
474,0.788083,1887.754
475,0.78975,1887.754
476,0.791417,1874.343
477,0.793067,1858.324
478,0.794733,1847.893
479,0.7964,1847.893
480,0.798183,1838.282
481,0.799733,1825.914
482,0.8014,1825.914
483,0.803067,1817.942
484,0.804717,1806.617
485,0.806383,1798.123
486,0.80805,1798.123
487,0.809717,1789.48
488,0.811383,1778.677
489,0.8130500000000001,1766.458
490,0.814717,1766.458
491,0.816383,1753.643
492,0.8180500000000001,1746.565
493,0.819717,1739.04
494,0.821383,1739.04
495,0.8230499999999999,1735.538
496,0.824717,1728.758
497,0.826383,1718.998
498,0.82805,1718.998
499,0.829717,1709.461
500,0.831383,1696.199
501,0.83305,1696.199
502,0.834717,1686.811
503,0.836383,1678.318
504,0.83805,1671.538
505,0.839717,1671.538
506,0.841383,1665.503
507,0.84305,1659.021
508,0.8447170000000001,1650.006
509,0.846383,1650.006
510,0.848067,1642.182
511,0.8497169999999999,1633.54
512,0.851383,1626.909
513,0.853033,1626.909
514,0.8547,1623.78
515,0.856367,1616.403
516,0.85805,1616.403
517,0.85975,1613.721
518,0.861367,1608.208
519,0.8630330000000001,1598.448
520,0.8647,1598.448
521,0.866367,1594.722
522,0.8680330000000001,1589.954
523,0.869717,1585.26
524,0.871367,1585.26
525,0.8730329999999999,1580.194
526,0.8747,1573.488
527,0.876367,1564.473
528,0.878033,1564.473
529,0.8797,1558.587
530,0.881367,1552.701
531,0.8831,1544.282
532,0.8847,1544.282
533,0.886367,1537.651
534,0.888033,1528.859
535,0.8897,1528.859
536,0.891367,1523.495
537,0.893033,1518.95
538,0.8947000000000001,1515.523
539,0.896367,1515.523
540,0.898033,1510.978
541,0.8997000000000001,1506.358
542,0.901367,1501.516
543,0.903033,1501.516
544,0.9046999999999999,1498.237
545,0.906367,1496.151
546,0.908033,1490.414
547,0.9097,1490.414
548,0.91135,1486.689
549,0.913017,1479.983
550,0.914683,1479.983
551,0.916467,1474.172
552,0.918017,1471.415
553,0.919683,1470.447
554,0.92135,1470.447
555,0.923017,1469.627
556,0.924683,1467.094
557,0.92635,1461.58
558,0.928017,1461.58
559,0.929683,1454.949
560,0.93135,1447.648
561,0.93305,1443.401
562,0.934717,1443.401
563,0.93635,1444.295
564,0.938017,1443.028
565,0.939683,1443.028
566,0.94135,1441.762
567,0.943017,1439.005
568,0.9446830000000001,1433.045
569,0.94635,1433.045
570,0.948017,1426.861
571,0.9496830000000001,1423.433
572,0.95135,1418.218
573,0.953017,1418.218
574,0.9546829999999999,1413.599
575,0.95635,1411.885
576,0.958017,1407.787
577,0.959683,1407.787
578,0.96135,1404.36
579,0.963017,1401.38
580,0.964683,1395.941
581,0.96635,1395.941
582,0.968017,1392.215
583,0.969683,1387.969
584,0.971333,1387.969
585,0.973,1386.181
586,0.974667,1384.541
587,0.976333,1383.2
588,0.978,1383.2
589,0.979667,1381.338
590,0.981333,1379.698
591,0.983,1377.091
592,0.984667,1377.091
593,0.986333,1373.365
594,0.988,1369.342
595,0.989667,1364.276
596,0.991333,1364.276
597,0.993,1362.339
598,0.994667,1359.433
599,0.996333,1359.433
600,0.998,1360.998
601,0.999683,1362.562
602,1.001383,1359.358
603,1.003,1359.358
604,1.004683,1357.943
605,1.006333,1356.08
606,1.008,1351.759
607,1.009667,1351.759
608,1.011333,1350.865
609,1.013,1346.916
610,1.014667,1341.477
611,1.016333,1341.477
612,1.018,1337.379
613,1.019667,1336.187
614,1.021333,1336.187
615,1.023,1336.187
