"ID","sea_time","fid_signal"
1,0,140.928
2,0.001667,141.077
3,0.003333,141.33
4,0.005,141.285
5,0.006717,141.285
6,0.008333,141.278
7,0.01,141.315
8,0.011667,141.315
9,0.013333,141.203
10,0.015017,141.017
11,0.016667,141.092
12,0.018333,141.092
13,0.02,141.278
14,0.021667,141.427
15,0.023383,141.986
16,0.025,141.986
17,0.026667,142.157
18,0.028333,142.083
19,0.03,142.127
20,0.031667,142.127
21,0.033333,142.053
22,0.034983,142.038
23,0.03665,142.038
24,0.0383,141.867
25,0.040083,141.338
26,0.041633,141.233
27,0.0433,141.233
28,0.044967,140.868
29,0.046633,140.466
30,0.0483,140.823
31,0.049967,140.823
32,0.051633,140.66
33,0.0533,140.622
34,0.054967,140.943
35,0.056683,140.943
36,0.0583,140.779
37,0.059967,141.025
38,0.061633,141.025
39,0.0633,141.315
40,0.064967,141.248
41,0.066633,141.278
42,0.0683,141.278
43,0.069967,141.121
44,0.071633,140.853
45,0.0733,140.898
46,0.07496700000000001,140.898
47,0.07663300000000001,140.637
48,0.07829999999999999,140.712
49,0.079967,140.853
50,0.081633,140.853
51,0.0833,140.809
52,0.084967,141.092
53,0.086633,140.935
54,0.0883,140.935
55,0.08996700000000001,140.801
56,0.09163300000000001,140.734
57,0.09329999999999999,140.734
58,0.094983,140.831
59,0.096667,141.069
60,0.098283,141.099
61,0.09995,141.099
62,0.101617,141.211
63,0.103283,141.054
64,0.10495,140.697
65,0.106617,140.697
66,0.108283,140.816
67,0.10995,140.861
68,0.111617,140.898
69,0.113283,140.898
70,0.11495,141.025
71,0.116617,140.98
72,0.118283,140.98
73,0.11995,141.01
74,0.121617,140.972
75,0.123283,141.025
76,0.125,141.025
77,0.126617,141.077
78,0.128283,141.039
79,0.12995,141.084
80,0.131617,141.084
81,0.133283,141.248
82,0.13495,140.972
83,0.136617,141.054
84,0.138283,141.054
85,0.13995,141.166
86,0.14165,140.861
87,0.143283,141.203
88,0.14495,141.203
89,0.146617,141.077
90,0.148283,140.697
91,0.14995,140.697
92,0.151617,140.935
93,0.153267,141.092
94,0.15495,141.166
95,0.1566,141.166
96,0.158383,141.293
97,0.159933,141.233
98,0.1616,141.069
99,0.163267,141.069
100,0.164933,140.958
101,0.1666,141.174
102,0.168267,141.002
103,0.169933,141.002
104,0.1716,140.883
105,0.173283,140.816
106,0.174933,140.816
107,0.1766,140.868
108,0.178267,141.174
109,0.179933,141.107
110,0.1816,141.107
111,0.183267,141.218
112,0.184933,141.174
113,0.1866,140.987
114,0.1883,140.987
115,0.189933,141.047
116,0.1916,141.114
117,0.193267,141.256
118,0.194933,141.256
119,0.196617,141.39
120,0.198267,141.568
121,0.199933,141.613
122,0.2016,141.613
123,0.203267,141.382
124,0.204933,141.189
125,0.2066,141.189
126,0.208267,141.069
127,0.209933,141.039
128,0.2116,140.92
129,0.213267,140.92
130,0.214933,141.174
131,0.216583,141.166
132,0.21825,141.218
133,0.219917,141.218
134,0.221583,141.36
135,0.22325,141.233
136,0.224917,141.479
137,0.226583,141.479
138,0.22825,141.405
139,0.229917,141.509
140,0.231583,141.509
141,0.23325,141.419
142,0.234917,141.397
143,0.236583,141.636
144,0.23825,141.636
145,0.239917,141.598
146,0.241583,141.576
147,0.24325,141.196
148,0.244917,141.196
149,0.246583,140.98
150,0.24825,140.913
151,0.249917,140.943
152,0.251583,140.943
153,0.25325,141.278
154,0.254917,141.218
155,0.256583,141.218
156,0.25825,141.002
157,0.259967,140.958
158,0.261583,140.786
159,0.26325,140.786
160,0.264917,140.846
161,0.266583,140.98
162,0.268267,140.913
163,0.269917,140.913
164,0.271583,140.645
165,0.273283,140.905
166,0.274917,140.928
167,0.2767,140.928
168,0.278233,140.89
169,0.2799,140.98
170,0.281567,140.853
171,0.283233,140.853
172,0.2849,140.958
173,0.286567,141.203
174,0.288233,141.203
175,0.2899,141.427
176,0.291567,141.114
177,0.293233,140.809
178,0.2949,140.809
179,0.296567,140.764
180,0.298233,140.823
181,0.2999,140.95
182,0.301567,140.95
183,0.303233,141.263
184,0.3049,141.345
185,0.306567,140.935
186,0.308233,140.935
187,0.3099,140.943
188,0.311567,141.069
189,0.313233,141.069
190,0.3149,141.181
191,0.316567,141.717
192,0.318233,141.68
193,0.3199,141.68
194,0.321567,141.464
195,0.323233,140.883
196,0.3249,140.25
197,0.32655,140.25
198,0.328217,140.466
199,0.329883,140.607
200,0.33155,140.958
201,0.333217,140.958
202,0.334883,141.405
203,0.336567,141.501
204,0.33825,141.375
205,0.339917,141.375
206,0.341533,141.256
207,0.3432,141.256
208,0.344867,141.256
209,0.346533,141.084
210,0.348217,140.972
211,0.349867,141.457
212,0.351533,141.457
213,0.3532,141.747
214,0.354867,141.844
215,0.356533,142.224
216,0.3582,142.224
217,0.359867,141.934
218,0.3616,141.509
219,0.3632,141.285
220,0.364867,141.285
221,0.366533,141.241
222,0.3682,141.419
223,0.369867,141.419
224,0.371533,141.524
225,0.3732,141.613
226,0.374867,141.561
227,0.376533,141.561
228,0.3782,141.591
229,0.379867,141.785
230,0.381533,141.71
231,0.3832,141.71
232,0.384867,141.837
233,0.386533,141.948
234,0.3882,141.963
235,0.389867,141.963
236,0.391533,142.008
237,0.3932,141.762
238,0.394967,141.509
239,0.396517,141.509
240,0.398183,141.375
241,0.39985,141.531
242,0.401517,141.531
243,0.403183,141.956
244,0.40485,142.246
245,0.406517,142.589
246,0.408183,142.589
247,0.40985,143.133
248,0.411517,143.334
249,0.4132,143.811
250,0.414867,143.811
251,0.416517,144.266
252,0.418183,144.787
253,0.41985,145.927
254,0.421517,145.927
255,0.423183,147.291
256,0.42485,149.176
257,0.426517,149.176
258,0.428183,151.388
259,0.42985,153.951
260,0.431517,156.656
261,0.433183,156.656
262,0.43485,159.919
263,0.436517,163.659
264,0.438183,167.489
265,0.43985,167.489
266,0.441517,172.243
267,0.443183,177.756
268,0.44485,184.029
269,0.446517,184.029
270,0.448183,191.525
271,0.44985,199.638
272,0.451517,199.638
273,0.453183,208.02
274,0.454833,216.73
275,0.4565,225.902
276,0.458167,225.902
277,0.459833,235.401
278,0.4615,245.459
279,0.463167,256.039
280,0.464833,256.039
281,0.4665,266.291
282,0.468167,276.759
283,0.469833,286.84
284,0.4715,286.84
285,0.473167,296.935
286,0.474833,307.314
287,0.4765,317.32
288,0.478167,317.32
289,0.4799,327.334
290,0.481533,336.781
291,0.483167,336.781
292,0.484833,345.357
293,0.4865,353.299
294,0.488167,360.265
295,0.489867,360.265
296,0.4915,365.935
297,0.493167,370.92
298,0.494833,374.623
299,0.4965,374.623
300,0.498167,377.513
301,0.499833,379.458
302,0.5014999999999999,380.538
303,0.503167,380.538
304,0.504833,381.045
305,0.5065,380.218
306,0.508167,380.218
307,0.509833,378.959
308,0.5115,376.612
309,0.513267,373.282
310,0.514833,373.282
311,0.516483,369.705
312,0.51815,365.108
313,0.519817,360.25
314,0.521483,360.25
315,0.52315,354.946
316,0.524817,348.94
317,0.526483,342.943
318,0.52815,342.943
319,0.529817,336.565
320,0.531483,330.567
321,0.53315,324.734
322,0.534817,324.734
323,0.536483,318.684
324,0.53815,312.842
325,0.539817,312.842
326,0.541483,306.889
327,0.54315,301.13
328,0.544817,295.93
329,0.5464830000000001,295.93
330,0.54815,290.915
331,0.549817,286.154
332,0.5514829999999999,282.131
333,0.55315,282.131
334,0.554817,278.257
335,0.5564829999999999,274.695
336,0.558183,271.268
337,0.559817,271.268
338,0.561483,268.348
339,0.56315,265.993
340,0.564817,265.993
341,0.566483,263.847
342,0.56815,262.342
343,0.569817,260.852
344,0.571483,260.852
345,0.573167,260.003
346,0.574817,259.675
347,0.576483,260.301
348,0.578133,260.301
349,0.5798,261.568
350,0.581467,263.557
351,0.583133,266.738
352,0.5848,266.738
353,0.586467,271.261
354,0.588133,277.84
355,0.5898,286.736
356,0.591467,286.736
357,0.593133,298.761
358,0.5948,314.325
359,0.596467,314.325
360,0.598183,334.732
361,0.5998,360.355
362,0.601467,392.511
363,0.603133,392.511
364,0.6048,432.231
365,0.606467,480.95
366,0.608133,540.391
367,0.6098,540.391
368,0.611467,611.611
369,0.613133,695.564
370,0.6148,792.764
371,0.6164500000000001,792.764
372,0.618117,904.173
373,0.619783,1029.603
374,0.6214499999999999,1029.603
375,0.623117,1169.927
376,0.624783,1324.594
377,0.626483,1492.649
378,0.628117,1492.649
379,0.629783,1673.937
380,0.631533,1866.475
381,0.633117,2069.294
382,0.634783,2069.294
383,0.636433,2281.427
384,0.6381,2500.504
385,0.639767,2726.219
386,0.641433,2726.219
387,0.6431,2956.48
388,0.644767,3189.75
389,0.646433,3189.75
390,0.6481,3425.546
391,0.649767,3661.781
392,0.651433,3897.637
393,0.6531,3897.637
394,0.654767,4132.084
395,0.656433,4363.678
396,0.6581,4591.368
397,0.659767,4591.368
398,0.661433,4814.818
399,0.663117,5032.8
400,0.664767,5244.501
401,0.6664330000000001,5244.501
402,0.6681,5449.407
403,0.669767,5646.49
404,0.6714329999999999,5835.556
405,0.6731,5835.556
406,0.674767,6016.359
407,0.676433,6187.819
408,0.6781,6187.819
409,0.679767,6349.266
410,0.681433,6499.805
411,0.6831,6638.542
412,0.684767,6638.542
413,0.686433,6764.986
414,0.6881,6878.391
415,0.689767,6978.035
416,0.691433,6978.035
417,0.6931,7063.128
418,0.694767,7133.148
419,0.696417,7187.18
420,0.698133,7187.18
421,0.69975,7224.627
422,0.701417,7244.468
423,0.703083,7244.468
424,0.70475,7245.794
425,0.706417,7228.397
426,0.708083,7191.889
427,0.70975,7191.889
428,0.711417,7136.688
429,0.713083,7063.21
430,0.71475,6972.022
431,0.71645,6972.022
432,0.718083,6864.309
433,0.71975,6741.33
434,0.721417,6605.26
435,0.723083,6605.26
436,0.72475,6458.029
437,0.726417,6301.701
438,0.728083,6139.04
439,0.72975,6139.04
440,0.731417,5971.521
441,0.73315,5801.305
442,0.73475,5801.305
443,0.736417,5629.808
444,0.738083,5458.34
445,0.73975,5288.385
446,0.741417,5288.385
447,0.743083,5120.851
448,0.74475,4956.752
449,0.746417,4796.602
450,0.7481,4796.602
451,0.749833,4640.929
452,0.751417,4489.988
453,0.7530829999999999,4344.188
454,0.75475,4344.188
455,0.7564,4203.282
456,0.758067,4067.198
457,0.759733,4067.198
458,0.7614,3936.082
459,0.7630670000000001,3809.69
460,0.764733,3688.224
461,0.7664,3688.224
462,0.7680670000000001,3571.749
463,0.769733,3459.774
464,0.7714,3352.426
465,0.7730669999999999,3352.426
466,0.774767,3249.258
467,0.7764,3150.038
468,0.778067,3054.708
469,0.779733,3054.708
470,0.7814,2963.193
471,0.783067,2875.194
472,0.784733,2790.712
473,0.7864,2790.712
474,0.788067,2709.515
475,0.789733,2631.262
476,0.7914,2631.262
477,0.793067,2555.929
478,0.794733,2483.264
479,0.7964,2413.385
480,0.798067,2413.385
481,0.799733,2346.262
482,0.8014,2281.8
483,0.803067,2220.079
484,0.80475,2220.079
485,0.8064,2160.579
486,0.808067,2103.046
487,0.809733,2047.375
488,0.8114,2047.375
489,0.813067,1993.38
490,0.814733,1941.428
491,0.816383,1941.428
492,0.8180500000000001,1891.755
493,0.819717,1843.743
494,0.821383,1797.311
495,0.8230499999999999,1797.311
496,0.824717,1752.615
497,0.826383,1709.059
498,0.828083,1667.522
499,0.829717,1667.522
500,0.831383,1627.46
501,0.83305,1588.643
502,0.83475,1551.278
503,0.836383,1551.278
504,0.83805,1514.8
505,0.839717,1479.834
506,0.841417,1446.046
507,0.84305,1446.046
508,0.8447170000000001,1413.152
509,0.846383,1381.502
510,0.84805,1381.502
511,0.8497169999999999,1350.902
512,0.85145,1321.249
513,0.85305,1292.542
514,0.8547169999999999,1292.542
515,0.856383,1264.773
516,0.85805,1237.929
517,0.859717,1211.926
518,0.861383,1211.926
519,0.86305,1186.825
520,0.864717,1162.477
521,0.866383,1138.911
522,0.868117,1138.911
523,0.869717,1115.859
524,0.871383,1093.693
525,0.87305,1093.693
526,0.874717,1072.206
527,0.876367,1051.24
528,0.878033,1031.011
529,0.8797,1031.011
530,0.881367,1011.468
531,0.883033,992.5890000000001
532,0.884817,974.409
533,0.886367,974.409
534,0.888033,956.774
535,0.8897,939.131
536,0.891367,922.188
537,0.893033,922.188
538,0.8947000000000001,905.804
539,0.896367,889.8150000000001
540,0.898033,889.8150000000001
541,0.8997000000000001,874.586
542,0.901367,859.804
543,0.903033,844.777
544,0.9046999999999999,844.777
545,0.906367,830.367
546,0.908017,816.718
547,0.909683,803.143
548,0.91135,803.143
549,0.913017,790.462
550,0.914683,778.072
551,0.9164,765.9349999999999
552,0.918083,765.9349999999999
553,0.919683,754.103
554,0.92135,742.413
555,0.923017,731.237
556,0.924683,731.237
557,0.92635,719.89
558,0.928017,709.049
559,0.929683,709.049
560,0.93135,698.47
561,0.933017,688.2619999999999
562,0.934683,678.495
563,0.936333,678.495
564,0.9379999999999999,668.712
565,0.939667,659.436
566,0.941333,650.056
567,0.9429999999999999,650.056
568,0.944667,641.115
569,0.946333,632.577
570,0.948,623.889
571,0.949667,623.889
572,0.951333,615.619
573,0.953,607.61
574,0.954667,607.61
575,0.956333,599.749
576,0.958,592.396
577,0.959667,584.96
578,0.961333,584.96
579,0.963,577.539
580,0.9646670000000001,570.29
581,0.966333,562.869
582,0.968,562.869
583,0.969683,556.082
584,0.971333,549.227
585,0.973,542.9690000000001
586,0.974667,542.9690000000001
587,0.976333,536.837
588,0.978,530.802
589,0.979683,524.901
590,0.981333,524.901
591,0.983,518.687
592,0.984667,512.674
593,0.9864000000000001,512.674
594,0.988,506.721
595,0.9897,501.022
596,0.991367,495.799
597,0.993,495.799
598,0.99465,490.934
599,0.996317,485.748
600,0.997983,480.875
601,0.99965,480.875
602,1.001317,475.831
603,1.0031,470.623
604,1.00465,465.803
605,1.006317,465.803
606,1.007983,461.072
607,1.00965,456.437
608,1.011317,456.437
609,1.012983,452.057
610,1.01465,447.571
611,1.016317,443.213
612,1.017983,443.213
613,1.01965,439.212
614,1.021317,435.375
615,1.022983,431.769
616,1.02465,431.769
617,1.026317,428.051
618,1.027983,424.162
619,1.02965,420.213
620,1.031317,420.213
621,1.032983,416.465
622,1.03465,412.598
623,1.036317,412.598
624,1.037983,408.992
625,1.03965,405.408
626,1.041317,402.153
627,1.042983,402.153
628,1.04465,398.979
629,1.046317,395.879
630,1.047983,392.936
631,1.04965,392.936
632,1.051317,389.636
633,1.052983,386.409
634,1.054633,383.087
635,1.0563,383.087
636,1.057967,379.905
637,1.059633,376.835
638,1.061317,374.019
639,1.063033,374.019
640,1.064717,371.218
641,1.0663,368.349
642,1.067967,368.349
643,1.069633,365.615
644,1.0713,362.91
645,1.072967,360.288
646,1.074633,360.288
647,1.0763,357.956
648,1.077967,355.393
649,1.079633,352.852
650,1.0813,352.852
651,1.082967,350.49
652,1.084633,347.756
653,1.0863,345.476
654,1.087967,345.476
655,1.089633,343.531
656,1.0913,341.468
657,1.092967,341.468
658,1.094633,339.426
659,1.0963,336.99
660,1.097967,334.688
661,1.099633,334.688
662,1.1013,332.363
663,1.102967,330.284
664,1.10465,328.399
665,1.1063,328.399
666,1.107967,326.037
667,1.109633,323.869
668,1.1113,321.962
669,1.112967,321.962
670,1.114633,320.241
671,1.116283,318.177
672,1.11795,316.262
673,1.119617,316.262
674,1.1214,314.154
675,1.12295,312.045
676,1.124617,312.045
677,1.126283,310.361
678,1.12795,308.722
679,1.129617,306.875
680,1.131283,306.875
681,1.13295,305.027
682,1.134617,303.566
683,1.136283,301.734
684,1.137983,301.734
685,1.139633,300.221
686,1.141283,298.724
687,1.14295,297.07
688,1.144617,297.07
689,1.146283,295.669
690,1.14795,294.335
691,1.149617,294.335
692,1.151283,292.942
693,1.15295,291.333
694,1.154617,289.634
695,1.156283,289.634
696,1.15795,287.816
697,1.159617,286.005
698,1.161283,284.508
699,1.16295,284.508
700,1.164617,283.137
701,1.166283,281.721
702,1.16795,280.41
703,1.169617,280.41
704,1.171283,279.099
705,1.17295,277.907
706,1.1746,276.826
707,1.176267,276.826
708,1.177933,275.657
709,1.1796,274.278
710,1.181267,274.278
711,1.182933,272.766
712,1.1846,271.507
713,1.186267,270.389
714,1.187933,270.389
715,1.1896,269.16
716,1.191267,267.96
717,1.192933,266.552
718,1.1946,266.552
719,1.196267,265.084
720,1.197933,264.317
721,1.199583,263.326
722,1.20125,263.326
723,1.202917,262.372
724,1.204583,261.277
725,1.206333,259.921
726,1.207917,259.921
727,1.209583,258.602
728,1.21125,257.626
729,1.212917,257.626
730,1.214583,256.71
731,1.21625,255.868
732,1.217917,254.981
733,1.219583,254.981
734,1.22125,254.02
735,1.222917,253.022
736,1.224583,251.897
737,1.22625,251.897
738,1.227917,250.876
739,1.229583,249.699
740,1.23125,249.699
741,1.2329,248.566
742,1.234567,247.478
743,1.236233,246.57
744,1.2379,246.57
745,1.2397,245.661
746,1.241233,244.908
747,1.2429,243.984
748,1.244567,243.984
749,1.246233,242.934
750,1.2479,242.107
751,1.249567,241.235
752,1.251233,241.235
753,1.2529,240.408
754,1.254567,239.544
755,1.256233,238.642
756,1.2579,238.642
757,1.259567,237.83
758,1.261233,237.107
759,1.2629,237.107
760,1.264567,236.914
761,1.266233,236.221
762,1.2679,235.558
763,1.269567,235.558
764,1.271233,234.976
765,1.2729,233.747
766,1.274567,232.942
767,1.276233,232.942
768,1.2779,232.346
769,1.279567,231.37
770,1.281233,230.826
771,1.282933,230.826
772,1.284583,229.932
773,1.286233,228.971
774,1.2879,228.971
775,1.289567,228.643
776,1.291233,227.816
777,1.2929,227.101
778,1.29455,227.101
779,1.296217,226.17
780,1.297883,224.963
781,1.29955,224.046
782,1.301217,224.046
783,1.302883,223.488
784,1.30455,222.966
785,1.306217,222.459
786,1.307883,222.459
787,1.30955,222.117
788,1.311217,221.603
789,1.312883,220.91
790,1.31455,220.91
791,1.316217,219.926
792,1.317883,218.943
793,1.31955,218.943
794,1.321217,218.429
795,1.322883,218.309
796,1.324617,218.123
797,1.326217,218.123
798,1.327883,217.721
799,1.32955,216.767
800,1.331217,215.985
801,1.332883,215.985
802,1.33455,215.307
803,1.336217,214.86
804,1.337883,214.562
805,1.33955,214.562
806,1.341217,214.07
807,1.342883,213.407
808,1.34455,213.407
809,1.346217,212.766
810,1.347883,212.111
811,1.34955,211.537
812,1.351217,211.537
813,1.352883,211.187
814,1.354533,210.963
815,1.3562,210.583
816,1.357933,210.583
817,1.359533,210.039
818,1.3612,209.384
819,1.362867,208.624
820,1.364533,208.624
821,1.3662,207.819
822,1.367867,207.148
823,1.369533,206.508
824,1.3712,206.508
825,1.372867,206.135
826,1.374533,205.912
827,1.3762,205.912
828,1.377867,205.278
829,1.379533,205.204
830,1.3812,204.794
831,1.382883,204.794
832,1.384533,204.31
833,1.3862,204.161
834,1.387867,203.803
835,1.389533,203.803
836,1.3912,203.349
837,1.392867,202.991
838,1.394533,202.484
839,1.3962,202.484
840,1.397867,201.657
841,1.399533,201.248
842,1.4012,201.248
843,1.402867,200.868
844,1.404533,200.473
845,1.4062,200.234
846,1.407867,200.234
847,1.409533,199.519
848,1.4112,198.722
849,1.412867,197.992
850,1.414517,197.992
851,1.416183,197.455
852,1.41785,197.217
853,1.419517,196.904
854,1.421183,196.904
855,1.42285,196.874
856,1.424517,196.882
857,1.426217,196.457
858,1.42785,196.457
859,1.429517,196.256
860,1.431183,195.965
861,1.43285,195.965
862,1.434533,195.302
863,1.436183,194.788
864,1.43785,194.237
865,1.439517,194.237
866,1.441183,193.819
867,1.4429,193.357
868,1.444517,193.298
869,1.446183,193.298
870,1.44785,193.365
871,1.449517,193.134
872,1.451183,192.955
873,1.45285,192.955
874,1.454517,192.732
875,1.456183,192.247
876,1.45785,192.247
877,1.459517,191.54
878,1.461183,191.167
879,1.46285,190.906
880,1.464517,190.906
881,1.466183,190.586
882,1.46785,190.556
883,1.469517,190.161
884,1.471183,190.161
885,1.47285,189.394
886,1.4745,189.111
887,1.476283,188.686
888,1.477833,188.686
889,1.4795,188.515
890,1.481167,188.634
891,1.482833,188.634
892,1.4845,188.187
893,1.486167,187.613
894,1.487833,187.233
895,1.4895,187.233
896,1.49115,186.6
897,1.492817,186.346
898,1.494483,186.376
899,1.49615,186.376
900,1.497817,186.428
901,1.499483,186.436
902,1.501167,186.153
903,1.502817,186.153
904,1.504483,185.758
905,1.50615,185.102
906,1.507817,184.357
907,1.509483,184.357
908,1.51115,184.007
909,1.512817,183.776
910,1.514483,183.776
911,1.51615,183.687
912,1.517817,183.776
913,1.519483,183.441
914,1.52115,183.441
915,1.52285,183.187
916,1.524483,182.74
917,1.52615,182.427
918,1.527817,182.427
919,1.529483,182.115
920,1.53115,181.831
921,1.532817,182.04
922,1.534467,182.04
923,1.536133,181.608
924,1.5378,181.481
925,1.539467,181.481
926,1.541133,181.206
927,1.5428,180.878
928,1.544467,180.759
929,1.546133,180.759
930,1.5478,180.602
931,1.549467,180.356
932,1.551133,179.76
933,1.5528,179.76
934,1.554467,179.574
935,1.556133,179.112
936,1.557817,178.881
937,1.559467,178.881
938,1.561183,178.911
939,1.5628,178.926
940,1.564467,179.023
941,1.566133,179.023
942,1.56785,178.792
943,1.569467,178.546
944,1.571133,178.546
945,1.5728,177.994
946,1.574467,177.868
947,1.576133,177.465
948,1.577883,177.465
949,1.579467,176.914
950,1.581133,176.713
951,1.5828,176.162
952,1.584467,176.162
953,1.586133,176.124
954,1.5878,176.139
955,1.589467,176.221
956,1.591133,176.221
957,1.5928,176.266
958,1.594533,176.37
