"ID","sea_time","fid_signal"
1,0,1163.93
2,0.001667,1164.973
3,0.003333,1164.451
4,0.005,1164.451
5,0.006733,1166.612
6,0.008333,1168.475
7,0.01,1167.655
8,0.011667,1167.655
9,0.013333,1167.432
10,0.015,1167.357
11,0.016667,1167.059
12,0.018333,1167.059
13,0.02,1167.58
14,0.021667,1167.655
15,0.023333,1165.345
16,0.025,1165.345
17,0.026667,1162.142
18,0.028367,1164.302
19,0.03,1164.302
20,0.031667,1167.208
21,0.033333,1168.177
22,0.03505,1168.624
23,0.036667,1168.624
24,0.038333,1166.463
25,0.040083,1163.855
26,0.041667,1166.314
27,0.043333,1166.314
28,0.045,1165.792
29,0.046667,1165.941
30,0.048333,1168.102
31,0.05,1168.102
32,0.051667,1166.761
33,0.053333,1169.369
34,0.055,1169.369
35,0.05665,1172.125
36,0.058317,1170.486
37,0.059983,1168.922
38,0.06165,1168.922
39,0.063317,1168.177
40,0.064983,1166.016
41,0.06665,1166.612
42,0.068317,1166.612
43,0.069983,1170.71
44,0.07165000000000001,1169.741
45,0.0733,1170.337
46,0.07496700000000001,1170.337
47,0.07663300000000001,1168.475
48,0.07829999999999999,1164.004
49,0.079967,1164.004
50,0.081633,1164.004
51,0.0833,1165.643
52,0.084967,1169.22
53,0.086633,1169.22
54,0.0883,1172.498
55,0.08996700000000001,1174.584
56,0.09163300000000001,1170.784
57,0.09329999999999999,1170.784
58,0.094967,1166.984
59,0.096633,1166.612
60,0.0983,1163.557
61,0.099967,1163.557
62,0.101633,1163.036
63,0.1033,1166.463
64,0.104967,1164.6
65,0.10665,1164.6
66,0.1083,1165.271
67,0.11,1168.773
68,0.111633,1168.773
69,0.1133,1167.729
70,0.114967,1166.91
71,0.116617,1167.133
72,0.118283,1167.133
73,0.11995,1164.004
74,0.121617,1161.471
75,0.123283,1161.173
76,0.124983,1161.173
77,0.126617,1162.812
78,0.128283,1166.463
79,0.12995,1166.314
80,0.131617,1166.314
81,0.133283,1167.432
82,0.13495,1165.271
83,0.136617,1165.271
84,0.138283,1162.216
85,0.13995,1163.93
86,0.141667,1161.844
87,0.143283,1161.844
88,0.14495,1162.589
89,0.146617,1162.291
90,0.148283,1161.322
91,0.14995,1161.322
92,0.151617,1164.824
93,0.153283,1166.239
94,0.15495,1168.996
95,0.156617,1168.996
96,0.158367,1170.263
97,0.15995,1168.102
98,0.161617,1166.165
99,0.163283,1166.165
100,0.16495,1163.185
101,0.166617,1162.589
102,0.168283,1162.589
103,0.16995,1164.079
104,0.171617,1168.102
105,0.173283,1169.145
106,0.17495,1169.145
107,0.1766,1168.326
108,0.178267,1169.294
109,0.179933,1165.42
110,0.1816,1165.42
111,0.183267,1164.526
112,0.184933,1165.867
113,0.1866,1166.91
114,0.188333,1166.91
115,0.189933,1165.271
116,0.1916,1166.835
117,0.193267,1166.835
118,0.194933,1165.196
119,0.1966,1161.695
120,0.198267,1162.812
121,0.199933,1162.812
122,0.2016,1161.322
123,0.203267,1161.322
124,0.204933,1164.526
125,0.2066,1164.526
126,0.208267,1164.526
127,0.209933,1165.122
128,0.2116,1165.345
129,0.213267,1165.345
130,0.214933,1162.216
131,0.2166,1162.738
132,0.218267,1162.887
133,0.219933,1162.887
134,0.2216,1164.675
135,0.223267,1164.302
136,0.224933,1164.302
137,0.2266,1165.643
138,0.228267,1165.792
139,0.229933,1166.835
140,0.2316,1166.835
141,0.233267,1168.922
142,0.234917,1169.22
143,0.236583,1168.922
144,0.23825,1168.922
145,0.239917,1169.518
146,0.241583,1169.443
147,0.243317,1168.102
148,0.244917,1168.102
149,0.246583,1168.698
150,0.248267,1167.059
151,0.249917,1167.059
152,0.251583,1166.835
153,0.25325,1167.059
154,0.254933,1166.91
155,0.2566,1166.91
156,0.258283,1165.569
157,0.260033,1160.577
158,0.261583,1157.373
159,0.26325,1157.373
160,0.264917,1155.51
161,0.266583,1156.628
162,0.26825,1159.459
163,0.269917,1159.459
164,0.271583,1162.142
165,0.27325,1166.463
166,0.274917,1169.369
167,0.27665,1169.369
168,0.27825,1172.2
169,0.279917,1173.69
170,0.281583,1173.69
171,0.28325,1173.615
172,0.284917,1170.114
173,0.286583,1167.729
174,0.28825,1167.729
175,0.289917,1164.824
176,0.291583,1162.142
177,0.29335,1161.322
178,0.2949,1161.322
179,0.296567,1164.153
180,0.298233,1166.09
181,0.2999,1165.42
182,0.301567,1165.42
183,0.303233,1165.345
184,0.3049,1166.239
185,0.306567,1166.239
186,0.308233,1166.761
187,0.3099,1167.133
188,0.311567,1167.357
189,0.313233,1167.357
190,0.3149,1165.867
191,0.316567,1167.58
192,0.318233,1167.58
193,0.3199,1167.58
194,0.321567,1168.027
195,0.323233,1164.675
196,0.3249,1161.322
197,0.326567,1161.322
198,0.32825,1162.365
199,0.3299,1163.483
200,0.331617,1166.984
201,0.333233,1166.984
202,0.3349,1168.996
203,0.336567,1171.902
204,0.338233,1171.902
205,0.3399,1178.16
206,0.341567,1183.227
207,0.343233,1187.846
208,0.3449,1187.846
209,0.346567,1197.457
210,0.348233,1208.186
211,0.3499,1220.629
212,0.351567,1220.629
213,0.353233,1239.702
214,0.354883,1255.646
215,0.35655,1271.963
216,0.358217,1271.963
217,0.359883,1293.942
218,0.36155,1319.721
219,0.363217,1319.721
220,0.364867,1349.449
221,0.366533,1382.083
222,0.3682,1415.61
223,0.369867,1415.61
224,0.371533,1449.51
225,0.3732,1485.422
226,0.374867,1525.283
227,0.376533,1525.283
228,0.378267,1569.316
229,0.379867,1610.443
230,0.381533,1654.252
231,0.3832,1654.252
232,0.384867,1699.105
233,0.386533,1741.424
234,0.3882,1741.424
235,0.389867,1788.81
236,0.391533,1838.505
237,0.3932,1889.169
238,0.394917,1889.169
239,0.396533,1942.664
240,0.3982,1996.085
241,0.399867,2049.282
242,0.401533,2049.282
243,0.403217,2101.436
244,0.404867,2155.677
245,0.406533,2214.015
246,0.4082,2214.015
247,0.4099,2272.502
248,0.41165,2332.404
249,0.4132,2392.232
250,0.41485,2392.232
251,0.416517,2452.433
252,0.418183,2518.222
253,0.41985,2518.222
254,0.421517,2589.226
255,0.4232,2660.453
256,0.42485,2733.543
257,0.426517,2733.543
258,0.428183,2807.528
259,0.42985,2883.226
260,0.431517,2965.704
261,0.433183,2965.704
262,0.43485,3056.228
263,0.436517,3150.627
264,0.438183,3252.327
265,0.43985,3252.327
266,0.441517,3366.098
267,0.443183,3492.087
268,0.44485,3492.087
269,0.446517,3640.875
270,0.448183,3819.317
271,0.44985,4040.524
272,0.451517,4040.524
273,0.453183,4320.89
274,0.45485,4680.753
275,0.456517,5148.5
276,0.458183,5148.5
277,0.45985,5751.401
278,0.461517,6519.705
279,0.463183,7485.822
280,0.46485,7485.822
281,0.466517,8676.127
282,0.468183,10112.301
283,0.46985,10112.301
284,0.471517,11808.724
285,0.473183,13769.642
286,0.47485,15982.092
287,0.476567,15982.092
288,0.478167,18417.164
289,0.479833,21032.096
290,0.4815,23758.934
291,0.483167,23758.934
292,0.48485,26522.279
293,0.486533,29232.725
294,0.488167,31798.482
295,0.489833,31798.482
296,0.4915,34131.258
297,0.493167,36147.313
298,0.494833,37795.68
299,0.496517,37795.68
300,0.498167,39026.438
301,0.499833,39831.102
302,0.5014999999999999,39831.102
303,0.503167,40210.41
304,0.504833,40176.438
305,0.5065,39771.199
306,0.508167,39771.199
307,0.509833,39031.879
308,0.5115,38016.586
309,0.5131829999999999,36779.793
310,0.514833,36779.793
311,0.5165,35372.301
312,0.518167,33843.965
313,0.519833,32241.941
314,0.5215,32241.941
315,0.523167,30607.879
316,0.524833,28971.881
317,0.5265,28971.881
318,0.5281670000000001,27364.27
319,0.529933,25806.203
320,0.5315,24311.318
321,0.5331669999999999,24311.318
322,0.534817,22891.686
323,0.536483,21554.381
324,0.53815,20299.926
325,0.539817,20299.926
326,0.541483,19129.961
327,0.54315,18041.879
328,0.544817,17035.826
329,0.5464830000000001,17035.826
330,0.54815,16103.387
331,0.549817,15236.512
332,0.551517,14439.076
333,0.55315,14439.076
334,0.554817,13699.531
335,0.5564829999999999,13016.313
336,0.55815,13016.313
337,0.559817,12391.955
338,0.561483,11813.045
339,0.56315,11274.293
340,0.564817,11274.293
341,0.566483,10778.159
342,0.56815,10315.478
343,0.569817,9885.951999999999
344,0.571483,9885.951999999999
345,0.573183,9487.42
346,0.574817,9118.094999999999
347,0.576483,8770.823
348,0.5781500000000001,8770.823
349,0.579817,8448.884
350,0.581483,8148.774
351,0.5831499999999999,8148.774
352,0.584817,7865.503
353,0.586483,7601.977
354,0.58815,7352.531
355,0.589817,7352.531
356,0.591483,7120.371
357,0.593133,6896.257
358,0.5948,6687.194
359,0.596467,6687.194
360,0.598167,6489.604
361,0.5998,6298.795
362,0.601467,6122.589
363,0.603133,6122.589
364,0.6048,5953.088
365,0.606467,5793.571
366,0.608133,5642.846
367,0.6098,5642.846
368,0.611467,5496.591
369,0.613133,5356.669
370,0.6148670000000001,5356.669
371,0.616467,5222.484
372,0.618133,5097.911
373,0.6198,4981.384
374,0.621467,4981.384
375,0.623133,4871.115
376,0.624817,4764.497
377,0.626467,4657.805
378,0.6281330000000001,4657.805
379,0.6298,4558.489
380,0.631467,4461.259
381,0.6331329999999999,4370.287
382,0.6348,4370.287
383,0.636467,4283.413
384,0.638133,4198.924
385,0.6398,4198.924
386,0.641467,4118.01
387,0.643133,4038.96
388,0.6448,3962.74
389,0.646467,3962.74
390,0.6482329999999999,3887.787
391,0.6498,3815.442
392,0.651467,3747.344
393,0.653133,3747.344
394,0.654767,3683.418
395,0.656433,3619.269
396,0.6581,3559.813
397,0.659767,3559.813
398,0.661433,3498.569
399,0.6631,3440.082
400,0.664767,3440.082
401,0.666467,3386.587
402,0.6681,3332.198
403,0.669767,3284.067
404,0.6714329999999999,3284.067
405,0.6731,3235.713
406,0.674767,3187.507
407,0.676433,3141.537
408,0.6781,3141.537
409,0.679767,3097.504
410,0.681433,3054.664
411,0.6831,3014.356
412,0.684767,3014.356
413,0.686433,2975.985
414,0.6881,2936.497
415,0.689767,2899.095
416,0.691433,2899.095
417,0.6931,2861.321
418,0.694767,2826.154
419,0.696483,2826.154
420,0.6981000000000001,2789.05
421,0.699767,2754.256
422,0.701433,2720.43
423,0.7030999999999999,2720.43
424,0.704767,2688.244
425,0.706433,2658.218
426,0.7081,2631.396
427,0.709767,2631.396
428,0.711433,2605.915
429,0.7131,2576.858
430,0.71475,2553.165
431,0.716417,2553.165
432,0.718083,2527.609
433,0.71975,2499.595
434,0.721417,2499.595
435,0.723083,2473.444
436,0.72475,2445.281
437,0.726417,2421.066
438,0.728083,2421.066
439,0.72975,2397.82
440,0.731417,2375.618
441,0.73315,2354.384
442,0.73475,2354.384
443,0.736417,2330.02
444,0.738083,2308.711
445,0.73975,2288.073
446,0.741417,2288.073
447,0.743083,2266.988
448,0.744783,2245.531
449,0.746417,2226.457
450,0.7480830000000001,2226.457
451,0.74975,2210.215
452,0.751417,2193.376
453,0.7530829999999999,2193.376
454,0.75475,2175.719
455,0.756417,2157.837
456,0.758083,2139.285
457,0.75975,2139.285
458,0.761417,2123.49
459,0.763083,2107.322
460,0.76475,2094.656
461,0.766517,2094.656
462,0.768083,2081.394
463,0.76975,2066.344
464,0.771417,2051.815
465,0.773083,2051.815
466,0.774733,2036.989
467,0.776433,2019.927
468,0.778067,2019.927
469,0.779733,2003.908
470,0.7814,1990.795
471,0.783067,1977.682
472,0.784733,1977.682
473,0.7864,1967.922
474,0.788067,1956.15
475,0.789733,1946.017
476,0.7914,1946.017
477,0.793067,1929.402
478,0.794733,1914.65
479,0.7964,1903.102
480,0.798067,1903.102
481,0.799733,1891.181
482,0.8014,1880.899
483,0.803067,1868.829
484,0.804733,1868.829
485,0.8064,1856.238
486,0.808067,1842.901
487,0.809733,1842.901
488,0.8114,1833.886
489,0.813067,1824.647
490,0.814733,1817.048
491,0.8164,1817.048
492,0.818067,1808.628
493,0.819733,1799.092
494,0.8214,1788.81
495,0.823067,1788.81
496,0.824733,1779.199
497,0.8264,1772.195
498,0.8280999999999999,1763.105
499,0.8297330000000001,1763.105
500,0.8314,1756.325
501,0.833067,1749.396
502,0.834717,1749.396
503,0.836383,1739.711
504,0.83805,1726.896
505,0.839717,1715.571
506,0.841383,1715.571
507,0.843067,1703.799
508,0.8447170000000001,1694.635
509,0.846383,1690.611
510,0.84805,1690.611
511,0.8497169999999999,1685.247
512,0.851433,1680.404
513,0.85305,1675.338
514,0.8547169999999999,1675.338
515,0.856383,1670.495
516,0.85805,1663.342
517,0.859717,1655.146
518,0.861383,1655.146
519,0.86305,1645.163
520,0.864717,1637.191
521,0.866383,1637.191
522,0.86805,1629.74
523,0.869717,1622.14
524,0.871383,1614.466
525,0.87305,1614.466
526,0.874717,1607.165
527,0.876383,1600.832
528,0.87805,1594.573
529,0.879733,1594.573
530,0.881383,1590.028
531,0.88305,1583.248
532,0.884783,1578.331
533,0.886383,1578.331
534,0.88805,1577.884
535,0.889717,1573.861
536,0.891383,1573.861
537,0.89305,1571.775
538,0.8947000000000001,1566.261
539,0.896367,1558.065
540,0.898033,1558.065
541,0.8997000000000001,1550.764
542,0.901367,1542.196
543,0.903033,1536.459
544,0.9046999999999999,1536.459
545,0.906367,1532.063
546,0.908033,1526.848
547,0.9097,1523.569
548,0.911367,1523.569
549,0.913033,1522.079
550,0.914717,1517.46
551,0.9164330000000001,1516.119
552,0.918033,1516.119
553,0.9197,1512.691
554,0.921367,1506.358
555,0.923033,1506.358
556,0.9247,1499.057
557,0.9263670000000001,1492.649
558,0.928033,1487.508
559,0.9297,1487.508
560,0.9313669999999999,1481.846
561,0.933033,1480.505
562,0.9347,1480.356
563,0.9363669999999999,1480.356
564,0.938033,1478.791
565,0.9397,1474.842
566,0.941367,1467.466
567,0.943033,1467.466
568,0.9447,1461.953
569,0.94635,1456.589
570,0.948017,1456.589
571,0.9496830000000001,1453.31
572,0.95135,1451.746
573,0.953,1445.711
574,0.954667,1445.711
575,0.956333,1439.378
576,0.958,1434.386
577,0.959667,1429.841
578,0.961333,1429.841
579,0.963,1427.308
580,0.9646670000000001,1425.892
581,0.966333,1424.104
582,0.968,1424.104
583,0.969733,1422.912
584,0.971333,1419.41
585,0.973,1419.41
586,0.974667,1415.312
587,0.976333,1412.332
588,0.978,1408.011
589,0.979667,1408.011
590,0.981333,1405.552
591,0.983,1402.199
592,0.984667,1396.835
593,0.9864000000000001,1396.835
594,0.988,1396.015
595,0.9897,1394.078
596,0.99135,1393.408
597,0.993,1393.408
598,0.994667,1394.898
599,0.996333,1388.937
600,0.998,1387.671
601,0.999667,1387.671
602,1.001333,1386.255
603,1.003117,1381.04
604,1.004667,1381.04
605,1.006333,1379.848
606,1.008,1374.26
607,1.009667,1369.715
608,1.011333,1369.715
609,1.012983,1367.703
610,1.01465,1366.287
611,1.016317,1366.511
612,1.017983,1366.511
613,1.01965,1363.307
614,1.021317,1360.774
615,1.022983,1356.453
616,1.02465,1356.453
617,1.026317,1352.504
618,1.027983,1352.131
619,1.02965,1352.131
620,1.031317,1350.418
621,1.032983,1351.535
622,1.03465,1348.779
623,1.036317,1348.779
624,1.037983,1344.234
625,1.03965,1344.457
626,1.041317,1341.477
627,1.042983,1341.477
628,1.04465,1339.763
629,1.046317,1338.05
630,1.047983,1333.654
631,1.04965,1333.654
632,1.051317,1330.748
633,1.052983,1327.768
634,1.054667,1326.501
635,1.056317,1326.501
636,1.057983,1323.521
637,1.059667,1321.211
638,1.061317,1321.211
639,1.062983,1320.466
640,1.06465,1317.486
641,1.066317,1317.188
642,1.067983,1317.188
643,1.06965,1314.655
644,1.071317,1311.228
645,1.073017,1312.196
646,1.074633,1312.196
647,1.0763,1308.396
648,1.077967,1308.098
649,1.079633,1308.322
650,1.0813,1308.322
651,1.082967,1303.405
652,1.084633,1306.012
653,1.0863,1306.012
654,1.087967,1304.746
655,1.089633,1302.66
656,1.0913,1301.84
657,1.092967,1301.84
658,1.094633,1300.573
659,1.0963,1299.754
660,1.097967,1301.914
661,1.099633,1301.914
662,1.1013,1301.467
663,1.102967,1296.699
664,1.1047,1294.985
665,1.1063,1294.985
666,1.107967,1288.205
667,1.109633,1285.225
668,1.1113,1285.225
669,1.112967,1286.194
670,1.114633,1284.704
671,1.1163,1285.374
672,1.117967,1285.374
673,1.119633,1284.406
674,1.121383,1281.872
675,1.122967,1278.892
676,1.124633,1278.892
677,1.1263,1276.731
678,1.127967,1275.912
679,1.129633,1274.049
680,1.1313,1274.049
681,1.132967,1271.814
682,1.134617,1269.281
683,1.136283,1269.057
684,1.13805,1269.057
685,1.139617,1268.238
686,1.141283,1267.12
687,1.14295,1267.12
688,1.144617,1266.971
689,1.146283,1266.822
690,1.14795,1264.661
691,1.149617,1264.661
692,1.151283,1262.203
693,1.15295,1262.203
694,1.154617,1259.893
695,1.156283,1259.893
696,1.15795,1259.595
697,1.159617,1260.713
698,1.1613,1263.171
699,1.16295,1263.171
700,1.164617,1265.109
701,1.166283,1263.544
702,1.16795,1263.544
703,1.169617,1262.873
704,1.171283,1258.925
705,1.17295,1253.262
706,1.174617,1253.262
707,1.176283,1250.953
708,1.17795,1250.729
709,1.179617,1246.855
710,1.181283,1246.855
711,1.18295,1248.717
712,1.184617,1247.004
713,1.186283,1243.949
714,1.18795,1243.949
715,1.189617,1244.247
716,1.191283,1240.82
717,1.19295,1240.596
718,1.1946,1240.596
719,1.196267,1243.278
720,1.197933,1241.788
721,1.1996,1241.788
722,1.201267,1239.031
723,1.202967,1240.075
724,1.2046,1236.349
725,1.206267,1236.349
726,1.207933,1237.169
727,1.2096,1240.298
728,1.211267,1238.957
729,1.212933,1238.957
730,1.2146,1238.436
731,1.216267,1237.914
732,1.217933,1238.361
733,1.2196,1238.361
734,1.221267,1238.584
735,1.223,1238.063
736,1.2246,1238.063
737,1.226267,1237.243
738,1.227933,1233.965
739,1.2296,1234.636
740,1.231267,1234.636
741,1.232933,1230.612
742,1.2346,1230.612
743,1.236267,1231.357
744,1.237917,1231.357
745,1.239633,1226.217
746,1.24125,1227.409
747,1.242917,1224.652
748,1.2446,1224.652
749,1.24625,1224.801
750,1.247917,1228.75
751,1.249583,1228.75
752,1.25125,1230.389
753,1.2529,1232.251
754,1.254567,1229.197
755,1.256333,1229.197
756,1.2579,1224.95
757,1.259567,1223.162
758,1.261233,1223.907
759,1.2629,1223.907
760,1.264567,1223.981
761,1.266233,1224.428
762,1.2679,1224.503
763,1.269567,1224.503
764,1.271233,1222.64
765,1.2729,1221.597
766,1.274567,1221.821
767,1.27625,1221.821
768,1.2779,1222.417
769,1.279567,1220.033
770,1.281233,1220.033
771,1.2829,1219.586
772,1.284567,1219.66
773,1.286233,1215.637
774,1.2879,1215.637
775,1.289567,1216.829
776,1.291233,1217.127
777,1.2929,1215.413
778,1.294567,1215.413
779,1.296233,1217.201
780,1.2979,1216.084
781,1.299567,1218.542
782,1.301233,1218.542
783,1.3029,1219.511
784,1.304567,1219.287
785,1.306233,1219.287
786,1.3079,1218.095
787,1.309567,1213.849
788,1.311233,1211.911
789,1.3129,1211.911
790,1.31455,1212.656
791,1.316217,1213.774
792,1.317883,1212.507
793,1.31955,1212.507
794,1.321217,1209.9
795,1.322883,1206.547
796,1.324583,1203.716
797,1.326217,1203.716
798,1.327917,1206.547
799,1.32955,1210.198
800,1.331217,1213.849
801,1.332883,1213.849
802,1.33455,1214.37
803,1.336217,1214.072
804,1.337883,1214.072
805,1.33955,1212.135
806,1.341233,1208.708
807,1.342883,1206.845
808,1.34455,1206.845
809,1.346217,1203.716
810,1.347883,1204.237
811,1.34955,1206.92
812,1.351267,1206.92
813,1.352883,1207.516
814,1.35455,1205.429
815,1.356217,1204.61
816,1.3579,1204.61
817,1.35955,1203.492
818,1.361217,1204.163
819,1.362883,1204.163
820,1.36455,1205.727
821,1.366217,1204.684
822,1.367883,1200.587
823,1.36955,1200.587
824,1.371217,1198.426
825,1.372883,1199.543
826,1.374567,1200.438
827,1.3762,1200.438
828,1.377867,1202.3
829,1.379533,1202.226
830,1.3812,1202.3
831,1.382867,1202.3
832,1.384533,1201.034
833,1.3862,1202.524
834,1.387867,1204.759
835,1.389533,1204.759
836,1.3912,1203.418
837,1.392867,1203.641
838,1.394533,1203.641
839,1.3962,1201.257
840,1.397867,1199.916
841,1.399533,1197.383
842,1.4012,1197.383
843,1.402867,1195.669
844,1.404533,1197.979
845,1.4062,1197.532
846,1.407867,1197.532
847,1.409533,1198.053
848,1.4112,1201.332
849,1.412867,1200.438
850,1.414533,1200.438
851,1.416217,1198.426
852,1.417867,1197.904
853,1.419567,1197.904
854,1.4212,1198.202
855,1.422867,1195.669
856,1.424533,1195.222
857,1.4262,1195.222
858,1.427867,1195.297
859,1.429533,1191.795
860,1.4312,1193.136
861,1.43285,1193.136
862,1.434517,1195.893
863,1.436183,1197.457
864,1.43785,1196.042
865,1.439517,1196.042
866,1.441183,1194.924
867,1.44285,1194.775
868,1.444517,1192.316
869,1.446183,1192.316
870,1.44785,1192.018
871,1.449517,1190.454
872,1.451183,1190.454
873,1.45285,1189.485
874,1.454517,1189.783
875,1.456183,1192.987
876,1.457867,1192.987
877,1.459567,1193.956
878,1.461183,1191.944
879,1.46285,1192.54
880,1.464517,1192.54
881,1.466183,1190.305
882,1.46785,1190.156
883,1.469517,1191.273
884,1.471183,1191.273
885,1.47285,1191.05
886,1.474517,1191.422
887,1.476183,1191.422
888,1.47785,1189.56
889,1.479517,1187.474
890,1.481183,1185.983
891,1.48285,1185.983
892,1.484517,1185.164
893,1.486183,1187.921
894,1.48785,1189.038
895,1.489517,1189.038
896,1.491183,1190.007
897,1.4929,1190.752
898,1.4945,1186.877
899,1.496167,1186.877
900,1.497833,1184.94
901,1.4995,1185.834
902,1.501167,1185.834
903,1.502833,1186.132
904,1.5045,1189.709
905,1.506167,1191.646
906,1.507833,1191.646
907,1.5095,1191.869
908,1.511167,1191.273
909,1.512833,1188.591
910,1.5145,1188.591
911,1.516167,1187.399
912,1.517833,1188.442
913,1.5195,1189.113
914,1.521167,1189.113
915,1.522833,1190.379
916,1.5245,1193.136
917,1.526167,1188.74
