"ID","sea_time","fid_signal"
1,0,140.995
2,0.00165,140.816
3,0.00335,140.816
4,0.004983,140.928
5,0.00665,140.92
6,0.008317,140.972
7,0.009983000000000001,140.972
8,0.01165,140.809
9,0.013317,140.54
10,0.014983,140.496
11,0.01665,140.496
12,0.018317,140.682
13,0.019983,140.89
14,0.02165,140.89
15,0.023317,140.913
16,0.024983,140.771
17,0.026667,140.667
18,0.028317,140.667
19,0.029983,140.518
20,0.03165,140.615
21,0.033317,140.63
22,0.034983,140.63
23,0.03665,140.809
24,0.038317,141.151
25,0.039983,141.047
26,0.04165,141.047
27,0.043317,140.853
28,0.044983,140.704
29,0.04665,140.704
30,0.0483,140.615
31,0.049967,140.898
32,0.051633,141.33
33,0.0533,141.33
34,0.054967,141.189
35,0.056717,140.756
36,0.0583,140.689
37,0.059967,140.689
38,0.061633,140.682
39,0.0633,140.838
40,0.064967,141.092
41,0.066633,141.092
42,0.0683,140.928
43,0.069967,140.727
44,0.071633,140.756
45,0.073383,140.756
46,0.07496700000000001,140.645
47,0.07665,140.764
48,0.07829999999999999,140.764
49,0.079967,140.95
50,0.081633,140.883
51,0.0833,140.853
52,0.084967,140.853
53,0.086633,140.779
54,0.0883,140.592
55,0.09006699999999999,140.585
56,0.09163300000000001,140.585
57,0.09329999999999999,140.645
58,0.094967,140.756
59,0.096633,140.719
60,0.0983,140.719
61,0.099967,140.719
62,0.101633,140.883
63,0.1033,140.883
64,0.104967,140.823
65,0.106633,141.248
66,0.108283,141.375
67,0.10995,141.375
68,0.111617,141.248
69,0.113283,141.002
70,0.11495,140.682
71,0.116617,140.682
72,0.118283,140.399
73,0.11995,140.317
74,0.121617,140.414
75,0.123283,140.414
76,0.12495,140.674
77,0.126617,140.831
78,0.128283,140.704
79,0.12995,140.704
80,0.131617,140.399
81,0.133283,140.265
82,0.13495,140.265
83,0.136617,140.332
84,0.138283,140.458
85,0.13995,141.01
86,0.141617,141.01
87,0.143283,140.853
88,0.14495,140.794
89,0.146617,140.592
90,0.148333,140.592
91,0.149967,140.421
92,0.151617,140.205
93,0.153283,140.28
94,0.15495,140.28
95,0.156617,140.555
96,0.158283,140.861
97,0.15995,140.861
98,0.161617,141.062
99,0.163283,141.077
100,0.16495,140.98
101,0.1666,140.98
102,0.16825,140.771
103,0.169917,140.816
104,0.171583,141.017
105,0.17325,141.017
106,0.174933,141.226
107,0.176583,141.069
108,0.17825,141.181
109,0.179917,141.181
110,0.181583,140.98
111,0.18325,140.667
112,0.184917,140.436
113,0.186583,140.436
114,0.18825,140.488
115,0.189917,140.339
116,0.191583,140.339
117,0.19325,140.488
118,0.194917,140.868
119,0.196583,140.466
120,0.19825,140.466
121,0.199917,140.294
122,0.2016,140.294
123,0.20325,140.369
124,0.204917,140.369
125,0.206583,140.674
126,0.20835,140.682
127,0.209917,140.332
128,0.211583,140.332
129,0.21325,139.982
130,0.214917,140.131
131,0.216583,140.131
132,0.21825,140.369
133,0.219917,140.525
134,0.221583,140.719
135,0.22325,140.719
136,0.224917,140.548
137,0.2266,140.324
138,0.228267,140.183
139,0.2299,140.183
140,0.231567,139.982
141,0.233233,139.922
142,0.2349,140.384
143,0.236567,140.384
144,0.238233,140.831
145,0.2399,141.039
146,0.241567,141.039
147,0.243233,141.077
148,0.2449,140.965
149,0.246567,141.002
150,0.248233,141.002
151,0.2499,140.995
152,0.251567,140.913
153,0.253233,140.846
154,0.2549,140.846
155,0.256567,140.972
156,0.258233,140.905
157,0.2599,141.248
158,0.261567,141.248
159,0.263233,141.226
160,0.2649,140.98
161,0.266567,140.995
162,0.268233,140.995
163,0.2699,140.861
164,0.271567,141.069
165,0.273233,141.069
166,0.2749,141.211
167,0.276567,141.084
168,0.278233,140.801
169,0.2799,140.801
170,0.281567,140.496
171,0.283233,140.153
172,0.2849,140.414
173,0.286567,140.414
174,0.288217,140.578
175,0.289883,140.846
176,0.29155,141.166
177,0.29325,141.166
178,0.294883,140.905
179,0.29655,141.181
180,0.298217,141.181
181,0.299883,140.928
182,0.30155,140.965
183,0.303217,141.323
184,0.304883,141.323
185,0.30655,141.144
186,0.308217,141.107
187,0.309883,140.913
188,0.31155,140.913
189,0.313217,140.727
190,0.314883,140.578
191,0.31655,140.935
192,0.318217,140.935
193,0.319883,140.987
194,0.32155,140.92
195,0.323217,140.987
196,0.324883,140.987
197,0.32665,140.704
198,0.328217,140.779
199,0.329883,140.779
200,0.33155,140.63
201,0.333217,140.533
202,0.334883,140.458
203,0.33655,140.458
204,0.338217,140.376
205,0.339883,141.002
206,0.34155,141.643
207,0.343217,141.643
208,0.344883,142.276
209,0.34655,143.252
210,0.3482,144.541
211,0.349867,144.541
212,0.351533,146.575
213,0.3532,150.04
214,0.354867,150.04
215,0.356533,154.898
216,0.3582,160.687
217,0.359867,167.944
218,0.361533,167.944
219,0.3632,176.549
220,0.364867,186.63
221,0.36655,198.774
222,0.3682,198.774
223,0.369867,212.334
224,0.371533,227.63
225,0.3732,244.126
226,0.374867,244.126
227,0.376533,261.843
228,0.3782,281.177
229,0.379867,301.734
230,0.381567,301.734
231,0.3832,323.258
232,0.384867,345.804
233,0.386533,345.804
234,0.3882,369.407
235,0.389867,393.987
236,0.391533,419.736
237,0.3932,419.736
238,0.394867,446.737
239,0.396533,474.535
240,0.3982,503.354
241,0.399867,503.354
242,0.401533,533.797
243,0.4032,565.164
244,0.404867,597.812
245,0.406533,597.812
246,0.408183,632.152
247,0.40985,668.026
248,0.4116,705.473
249,0.413183,705.473
250,0.41485,744.961
251,0.416517,786.498
252,0.418183,786.498
253,0.41985,829.794
254,0.421517,875.682
255,0.423183,924.014
256,0.42485,924.014
257,0.426517,974.6849999999999
258,0.428183,1028.515
259,0.429867,1085.699
260,0.431517,1085.699
261,0.433183,1146.883
262,0.43485,1212.731
263,0.436517,1284.108
264,0.438183,1284.108
265,0.43985,1362.234
266,0.441567,1448.587
267,0.443183,1448.587
268,0.444967,1545.645
269,0.446517,1656.204
270,0.448183,1783.647
271,0.44985,1783.647
272,0.451517,1931.861
273,0.453183,2105.169
274,0.45485,2307.43
275,0.456517,2307.43
276,0.458167,2542.801
277,0.459833,2813.823
278,0.4615,3121.592
279,0.463167,3121.592
280,0.464833,3465.287
281,0.4665,3841.497
282,0.46815,3841.497
283,0.46985,4245.065
284,0.471483,4668.184
285,0.47315,5101.785
286,0.474817,5101.785
287,0.476483,5535.021
288,0.47815,5956.627
289,0.479817,6354.607
290,0.481483,6354.607
291,0.48315,6719.068
292,0.484817,7040.873
293,0.486483,7312.424
294,0.48815,7312.424
295,0.489817,7529.244
296,0.491483,7687.33
297,0.49315,7687.33
298,0.494817,7785.812
299,0.496483,7826.165
300,0.49815,7810.928
301,0.499817,7810.928
302,0.501483,7744.499
303,0.50315,7632.136
304,0.504817,7479.861
305,0.506483,7479.861
306,0.50815,7294.126
307,0.509817,7081.322
308,0.511483,6848.231
309,0.513167,6848.231
310,0.514817,6600.142
311,0.516483,6342.225
312,0.51815,6079.212
313,0.519817,6079.212
314,0.521483,5815.037
315,0.52315,5552.91
316,0.524817,5552.91
317,0.526483,5295.679
318,0.528133,5045.943
319,0.529867,4804.343
320,0.531467,4804.343
321,0.533133,4572.705
322,0.5348000000000001,4351.705
323,0.536467,4141.353
324,0.538133,4141.353
325,0.5397999999999999,3942.177
326,0.541467,3753.729
327,0.543133,3576.197
328,0.5448,3576.197
329,0.546583,3408.924
330,0.548133,3251.925
331,0.5498,3251.925
332,0.551467,3104.649
333,0.553133,2966.121
334,0.5548,2836.391
335,0.556467,2836.391
336,0.558133,2714.478
337,0.5598,2600.022
338,0.561467,2493.091
339,0.56325,2493.091
340,0.5648,2392.411
341,0.5664670000000001,2297.983
342,0.568133,2209.157
343,0.5698,2209.157
344,0.5714669999999999,2125.092
345,0.573133,2046.22
346,0.5748,1971.692
347,0.576467,1971.692
348,0.578133,1900.919
349,0.5798,1834.378
350,0.581467,1834.378
351,0.583133,1770.876
352,0.5848,1711.138
353,0.586467,1655.191
354,0.588117,1655.191
355,0.5897829999999999,1601.599
356,0.591467,1551.025
357,0.593167,1502.693
358,0.594783,1502.693
359,0.59645,1456.819
360,0.598117,1413.465
361,0.599783,1371.779
362,0.60145,1371.779
363,0.603117,1331.978
364,0.6048,1293.637
365,0.60645,1293.637
366,0.608117,1257.271
367,0.609783,1222.901
368,0.61145,1189.94
369,0.613117,1189.94
370,0.614783,1158.386
371,0.6164500000000001,1128.279
372,0.618117,1099.482
373,0.619783,1099.482
374,0.6214499999999999,1071.766
375,0.623117,1045.145
376,0.624783,1019.433
377,0.62645,1019.433
378,0.628117,994.675
379,0.629783,971.168
380,0.631483,948.876
381,0.633117,948.876
382,0.634783,927.165
383,0.63645,906.728
384,0.638117,906.728
385,0.639783,886.567
386,0.64145,867.4640000000001
387,0.643117,848.994
388,0.644783,848.994
389,0.64645,830.799
390,0.6481170000000001,813.782
391,0.649767,796.713
392,0.651433,796.713
393,0.6531,780.396
394,0.654767,764.973
395,0.656433,749.856
396,0.6581,749.856
397,0.659767,735.663
398,0.661433,721.8049999999999
399,0.663117,721.8049999999999
400,0.664867,708.312
401,0.6664330000000001,695.1609999999999
402,0.6681,682.145
403,0.669767,682.145
404,0.6714329999999999,669.852
405,0.6731,657.67
406,0.674767,646.003
407,0.676433,646.003
408,0.6781,635.169
409,0.679767,624.463
410,0.681517,614.0549999999999
411,0.6831,614.0549999999999
412,0.684767,604.145
413,0.686433,594.273
414,0.6881,594.273
415,0.689767,584.573
416,0.691433,575.11
417,0.6931,565.9829999999999
418,0.694767,565.9829999999999
419,0.696433,557.259
420,0.698217,548.735
421,0.699767,540.942
422,0.701433,540.942
423,0.7030999999999999,532.955
424,0.704767,525.005
425,0.706433,517.458
426,0.708083,517.458
427,0.70975,509.731
428,0.711417,502.847
429,0.713083,495.985
430,0.71475,495.985
431,0.716417,489.168
432,0.718083,482.537
433,0.71975,482.537
434,0.721433,475.764
435,0.723083,469.387
436,0.72475,463.374
437,0.726417,463.374
438,0.728083,457.488
439,0.72975,451.796
440,0.731417,446.126
441,0.733083,446.126
442,0.73475,440.493
443,0.736433,435.114
444,0.738083,429.891
445,0.73975,429.891
446,0.741417,424.78
447,0.743083,419.736
448,0.74475,419.736
449,0.746417,415.064
450,0.7480830000000001,410.11
451,0.749733,405.394
452,0.7514,405.394
453,0.753067,400.908
454,0.754733,396.103
455,0.7564,391.766
456,0.758067,391.766
457,0.759733,387.326
458,0.7614,383.094
459,0.7630670000000001,379.108
460,0.764717,379.108
461,0.766383,375.412
462,0.76805,371.858
463,0.769717,368.357
464,0.771383,368.357
465,0.77305,364.691
466,0.774717,360.578
467,0.776383,360.578
468,0.77805,356.719
469,0.779733,352.867
470,0.781383,349.335
471,0.783117,349.335
472,0.784717,346.147
473,0.7863830000000001,342.809
474,0.78805,339.732
475,0.789717,339.732
476,0.7913829999999999,336.751
477,0.79305,333.764
478,0.794717,330.798
479,0.796383,330.798
480,0.79805,327.975
481,0.799817,324.979
482,0.801383,324.979
483,0.80305,321.828
484,0.804767,319.086
485,0.806383,316.031
486,0.80805,316.031
487,0.809717,313.52
488,0.811383,311.226
489,0.813067,308.476
490,0.814717,308.476
491,0.816483,306.219
492,0.8180500000000001,303.581
493,0.819717,301.085
494,0.821383,301.085
495,0.8230499999999999,298.604
496,0.824717,295.773
497,0.826383,295.773
498,0.828033,293.329
499,0.8297,291.042
500,0.831367,289.008
501,0.833033,289.008
502,0.8347,287.272
503,0.836367,285.335
504,0.838033,283.04
505,0.8397,283.04
506,0.841367,281.043
507,0.843033,278.749
508,0.8447,276.841
509,0.846367,276.841
510,0.848033,274.993
511,0.8497,273.205
512,0.851367,271.499
513,0.853033,271.499
514,0.8547,269.569
515,0.856367,267.766
516,0.858033,267.766
517,0.8597,265.68
518,0.861367,263.743
519,0.8630330000000001,261.933
520,0.8647,261.933
521,0.866367,260.338
522,0.8680330000000001,258.736
523,0.8697,256.956
524,0.871367,256.956
525,0.8730329999999999,255.212
526,0.8747,253.499
527,0.876367,251.822
528,0.878067,251.822
529,0.8797,250.466
530,0.881383,249.237
531,0.883033,249.237
532,0.884683,247.62
533,0.886367,246.19
534,0.8880169999999999,244.752
535,0.889683,244.752
536,0.89135,243.023
537,0.8930169999999999,241.794
538,0.894683,240.549
539,0.89635,240.549
540,0.898017,239.126
541,0.899683,237.808
542,0.901367,236.146
543,0.903017,236.146
544,0.904683,234.991
545,0.90635,233.717
546,0.908017,232.786
547,0.909683,232.786
548,0.91135,231.631
549,0.913017,229.888
550,0.914683,229.888
551,0.91635,228.599
552,0.91805,227.168
553,0.919683,226.401
554,0.92135,226.401
555,0.923017,225.671
556,0.924683,224.829
557,0.92635,223.584
558,0.928017,223.584
559,0.929683,222.087
560,0.93135,220.895
561,0.933017,219.859
562,0.9348,219.859
563,0.93635,218.712
564,0.938017,217.736
565,0.939683,217.736
566,0.94135,216.991
567,0.943017,215.851
568,0.9446830000000001,215.068
569,0.94635,215.068
570,0.948,214.256
571,0.949667,213.131
572,0.951333,212.051
573,0.953,212.051
574,0.954667,211.194
575,0.9564,210.166
576,0.958,209.145
577,0.959667,209.145
578,0.961333,208.095
579,0.963,206.94
580,0.9646670000000001,206.225
581,0.966333,206.225
582,0.968,205.539
583,0.9696669999999999,205.271
584,0.971333,205.271
585,0.973,204.779
586,0.9747,203.818
587,0.976333,202.782
588,0.978,202.782
589,0.979667,201.821
590,0.981333,201.009
591,0.983,200.458
592,0.984667,200.458
593,0.986333,199.877
594,0.988,199.035
595,0.989667,198.282
596,0.991333,198.282
597,0.993,197.545
598,0.994667,196.978
599,0.996333,196.978
600,0.998,196.435
601,0.999667,195.988
602,1.001333,195.727
603,1.003,195.727
604,1.004667,195.004
605,1.006333,194.319
606,1.008,193.611
607,1.00965,193.611
608,1.011317,192.925
609,1.012983,192.538
610,1.01465,192.18
611,1.016317,192.18
612,1.017983,191.674
613,1.019733,190.869
614,1.021317,189.93
615,1.022983,189.93
616,1.02465,189.111
617,1.026317,188.515
618,1.027983,188.515
619,1.02965,187.866
620,1.031317,187.509
621,1.032983,186.868
622,1.03465,186.868
623,1.036317,186.145
624,1.037983,185.832
625,1.039633,185.512
626,1.0413,185.512
627,1.042967,185.139
628,1.044633,184.551
629,1.0463,183.843
630,1.047967,183.843
631,1.049633,183.374
632,1.0513,182.755
633,1.053067,182.442
634,1.054633,182.442
635,1.0563,182.07
636,1.057967,181.451
637,1.059633,181.451
638,1.061333,181.131
639,1.062967,180.818
640,1.064633,180.386
641,1.0663,180.386
642,1.06795,180.162
643,1.069617,179.596
644,1.071283,178.985
645,1.07295,178.985
646,1.074617,178.501
647,1.076283,177.771
648,1.07795,177.771
649,1.079617,177.503
650,1.081283,176.951
651,1.08295,176.609
652,1.084617,176.609
653,1.086283,176.05
654,1.08795,175.305
655,1.089617,174.947
656,1.091283,174.947
657,1.092967,174.411
658,1.094617,174.12
659,1.096283,174.157
660,1.09795,174.157
661,1.099617,173.979
662,1.101283,173.792
663,1.10295,173.576
664,1.104617,173.576
665,1.106283,173.084
666,1.10795,172.757
667,1.109617,172.757
668,1.111283,172.362
669,1.11295,171.855
670,1.114617,171.609
671,1.116283,171.609
672,1.11795,171.17
673,1.119617,170.596
674,1.121283,170.328
675,1.12295,170.328
676,1.1246,169.94
677,1.126267,170.112
678,1.127933,170.097
679,1.1296,170.097
680,1.131267,170
681,1.132933,169.799
682,1.1346,169.799
683,1.136267,169.076
684,1.137983,168.696
685,1.1396,168.353
686,1.141267,168.353
687,1.142933,167.951
688,1.1446,167.526
689,1.146267,167.37
690,1.147933,167.37
691,1.1496,167.295
692,1.151267,167.079
693,1.152933,167.28
694,1.1546,167.28
695,1.156267,167.094
696,1.157933,166.923
697,1.1596,166.99
698,1.161267,166.99
699,1.162933,166.357
700,1.1646,165.857
701,1.166267,165.857
702,1.167933,165.328
703,1.1696,164.829
704,1.17135,164.524
705,1.172933,164.524
706,1.1746,164.285
707,1.176267,163.794
708,1.177933,163.428
709,1.1796,163.428
710,1.181267,163.414
711,1.182933,163.727
712,1.1846,163.868
713,1.186267,163.868
714,1.187917,164.144
715,1.189583,163.972
716,1.19125,163.972
717,1.192917,163.175
718,1.194583,163.056
719,1.19625,162.542
720,1.197917,162.542
721,1.199583,162.214
722,1.20125,162.229
723,1.202917,161.998
724,1.204583,161.998
725,1.20625,161.834
726,1.207917,161.566
727,1.209583,161.372
728,1.21125,161.372
729,1.212917,160.947
730,1.214583,160.582
731,1.21625,160.448
732,1.217917,160.448
733,1.219583,160.18
734,1.22125,160.038
735,1.222917,160.038
736,1.2246,160.001
737,1.22625,159.957
738,1.227917,159.785
739,1.229583,159.785
740,1.23125,159.532
741,1.232917,159.264
742,1.234583,159.048
743,1.236267,159.048
744,1.237917,158.787
745,1.239583,158.831
746,1.241267,158.712
747,1.242917,158.712
748,1.244583,158.362
749,1.24625,158.459
750,1.2479,158.459
751,1.249567,158.377
752,1.251233,158.347
753,1.2529,158.317
754,1.254567,158.317
755,1.256317,158.25
756,1.2579,157.923
757,1.259567,157.729
758,1.261233,157.729
759,1.2629,157.796
760,1.264567,157.289
761,1.266233,157.006
762,1.2679,157.006
763,1.269567,156.85
764,1.271233,156.85
765,1.2729,156.85
766,1.274567,156.939
767,1.276233,157.17
768,1.2779,156.909
769,1.279567,156.909
770,1.281233,156.403
771,1.2829,156.09
772,1.284567,155.985
773,1.286233,155.985
774,1.2879,155.97
775,1.289633,156
776,1.291233,156.075
777,1.2929,156.075
778,1.294567,156.127
779,1.296233,156.105
780,1.2979,155.911
781,1.299567,155.911
782,1.301233,155.903
783,1.3029,155.352
784,1.304567,155.352
785,1.306233,155.374
786,1.307883,155.397
787,1.30955,155.233
788,1.311217,155.233
789,1.312883,155.345
790,1.314567,154.898
791,1.316267,154.607
792,1.317883,154.607
793,1.319567,154.413
794,1.321217,154.138
795,1.322883,154.197
796,1.32455,154.197
797,1.326217,154.108
798,1.327883,153.959
799,1.32955,153.959
800,1.3312,153.981
801,1.332867,154.108
802,1.334533,154.115
803,1.3362,154.115
804,1.337867,154.085
805,1.339533,154.026
806,1.3412,153.705
807,1.342867,153.705
808,1.344533,153.795
809,1.3462,153.556
810,1.347867,153.057
811,1.349533,153.057
812,1.3512,153.154
813,1.352867,153.042
814,1.354533,153.02
815,1.3562,153.02
816,1.357867,153.422
817,1.359533,153.348
818,1.3612,153.348
819,1.362867,153.02
820,1.364533,153.013
821,1.366183,152.64
822,1.36785,152.64
823,1.369517,152.521
824,1.371183,152.715
825,1.37285,152.692
826,1.374583,152.692
827,1.376183,152.782
828,1.37785,152.506
829,1.379517,151.962
830,1.381183,151.962
831,1.38285,151.858
832,1.384533,151.455
833,1.3862,151.455
834,1.387883,151.455
835,1.389517,151.716
836,1.391183,151.59
837,1.39285,151.59
838,1.394517,151.843
839,1.396183,151.612
840,1.39785,151.284
841,1.399517,151.284
842,1.401183,151.128
843,1.40285,151.031
844,1.404517,151.195
845,1.406183,151.195
846,1.40795,151.217
847,1.409517,151.284
848,1.4112,151.105
849,1.41285,151.105
850,1.414517,151.105
851,1.416183,151.053
852,1.41785,151.053
853,1.419517,151.001
854,1.421183,150.762
855,1.42285,150.412
856,1.424517,150.412
857,1.426167,150.643
858,1.427833,150.502
859,1.4295,150.837
860,1.431167,150.837
861,1.432833,151.053
862,1.4345,150.718
863,1.436167,150.643
864,1.437833,150.643
865,1.4395,150.546
866,1.441167,150.494
867,1.442833,150.494
868,1.4445,150.532
869,1.446167,150.435
870,1.447833,150.494
871,1.4495,150.494
872,1.451167,150.278
873,1.452833,150.144
874,1.4545,150.286
875,1.456183,150.286
876,1.457833,150.01
877,1.4595,150.092
878,1.461167,150.308
879,1.462833,150.308
880,1.4645,150.368
881,1.466167,150.286
882,1.467833,150.286
883,1.4695,150.211
884,1.4712,150.114
885,1.472833,150.07
886,1.4745,150.07
887,1.476167,150.278
888,1.477833,150.36
889,1.4795,150.234
890,1.481167,150.234
891,1.482833,150.092
892,1.4845,149.637
893,1.486167,149.436
894,1.487817,149.436
895,1.489483,149.421
896,1.49115,149.436
897,1.49285,149.734
898,1.494483,149.734
899,1.49615,149.511
900,1.497817,149.384
901,1.499483,149.384
902,1.50115,149.153
903,1.502817,149.049
904,1.504483,149.079
905,1.50615,149.079
906,1.507817,149.049
907,1.509567,148.997
908,1.51115,148.907
909,1.512817,148.907
910,1.514483,148.87
911,1.51615,148.728
912,1.517817,148.758
913,1.519483,148.758
914,1.52115,148.706
915,1.522817,148.93
916,1.524483,148.93
917,1.526217,148.915
918,1.527817,149.064
919,1.529483,148.922
920,1.531183,148.922
921,1.532817,148.81
922,1.534483,148.87
923,1.53615,148.542
924,1.537817,148.542
925,1.539483,148.386
926,1.54115,148.028
927,1.542933,148.05
928,1.544483,148.05
929,1.54615,148.222
930,1.5478,148.512
931,1.549467,148.751
932,1.551133,148.751
933,1.5528,148.602
934,1.554467,148.289
935,1.556133,148.289
936,1.5578,148.214
937,1.559467,148.177
938,1.561133,148.207
939,1.5628,148.207
940,1.5645,148.356
941,1.566133,148.065
942,1.5678,147.916
943,1.569467,147.916
944,1.571133,147.544
945,1.5728,147.618
946,1.574467,147.715
947,1.576133,147.715
948,1.5778,147.544
949,1.579467,147.939
950,1.581133,147.939
951,1.5828,148.043
952,1.584467,147.864
953,1.586133,147.767
954,1.5878,147.767
955,1.589467,147.581
956,1.591133,147.44
957,1.5928,147.618
958,1.594467,147.618
