"ID","sea_time","fid_signal"
1,0,1169.443
2,0.001667,1166.91
3,0.003333,1163.93
4,0.005,1166.165
5,0.006667,1166.165
6,0.008333,1167.953
7,0.01,1167.208
8,0.011667,1164.675
9,0.013333,1164.675
10,0.015,1162.365
11,0.016667,1161.546
12,0.018433,1165.42
13,0.02,1165.42
14,0.021667,1169.071
15,0.023333,1172.274
16,0.025,1172.274
17,0.026667,1170.71
18,0.028333,1168.326
19,0.03,1167.655
20,0.031667,1167.655
21,0.033333,1169.741
22,0.035017,1173.168
23,0.036667,1176.447
24,0.03835,1176.447
25,0.040017,1179.203
26,0.041667,1176.372
27,0.043333,1176.521
28,0.045,1176.521
29,0.046667,1172.125
30,0.048333,1170.263
31,0.05,1170.263
32,0.051667,1168.251
33,0.053333,1164.675
34,0.055,1167.208
35,0.05665,1167.208
36,0.0583,1165.42
37,0.059967,1163.557
38,0.061633,1164.749
39,0.0633,1164.749
40,0.064967,1162.142
41,0.066633,1162.589
42,0.0683,1165.867
43,0.069967,1165.867
44,0.071633,1167.357
45,0.0733,1168.847
46,0.07496700000000001,1168.847
47,0.07663300000000001,1168.251
48,0.07829999999999999,1169.443
49,0.079967,1168.102
50,0.081633,1168.102
51,0.0833,1167.282
52,0.084967,1166.016
53,0.086633,1166.388
54,0.0883,1166.388
55,0.08996700000000001,1168.624
56,0.09163300000000001,1168.549
57,0.09329999999999999,1169.816
58,0.094967,1169.816
59,0.096633,1165.42
60,0.0983,1162.663
61,0.099967,1164.973
62,0.10165,1164.973
63,0.10335,1168.102
64,0.104967,1170.412
65,0.106633,1170.412
66,0.1083,1171.231
67,0.109967,1168.773
68,0.111633,1166.537
69,0.1133,1166.537
70,0.115,1167.58
71,0.116617,1167.059
72,0.118283,1167.059
73,0.11995,1167.059
74,0.121617,1166.612
75,0.123283,1167.059
76,0.12495,1167.506
77,0.126617,1167.506
78,0.128283,1170.412
79,0.12995,1171.827
80,0.131617,1171.827
81,0.133283,1171.008
82,0.13495,1172.572
83,0.136733,1170.114
84,0.138283,1170.114
85,0.13995,1167.804
86,0.141617,1167.059
87,0.143283,1163.259
88,0.14495,1163.259
89,0.146617,1161.695
90,0.148283,1164.749
91,0.14995,1167.506
92,0.151617,1167.506
93,0.153283,1168.624
94,0.15495,1167.953
95,0.156617,1165.792
96,0.158283,1165.792
97,0.15995,1162.291
98,0.161617,1164.898
99,0.163283,1164.898
100,0.16495,1168.177
101,0.166617,1170.188
102,0.168283,1172.349
103,0.16995,1172.349
104,0.171617,1170.039
105,0.173283,1173.243
106,0.17495,1170.933
107,0.1766,1170.933
108,0.1783,1173.243
109,0.179983,1173.615
110,0.1816,1171.902
111,0.183267,1171.902
112,0.184933,1176.968
113,0.1866,1174.807
114,0.188267,1174.807
115,0.189933,1173.615
116,0.1916,1169.965
117,0.193267,1166.984
118,0.194933,1166.984
119,0.1966,1164.824
120,0.198267,1164.824
121,0.199933,1165.271
122,0.201617,1165.271
123,0.2033,1164.898
124,0.204933,1166.686
125,0.2066,1166.984
126,0.208267,1166.984
127,0.20995,1168.102
128,0.2116,1167.953
129,0.213267,1169.369
130,0.214933,1169.369
131,0.2166,1173.019
132,0.218267,1174.882
133,0.219933,1174.882
134,0.221617,1174.435
135,0.223267,1173.913
136,0.224933,1173.094
137,0.2266,1173.094
138,0.228267,1169.518
139,0.229933,1168.549
140,0.2316,1164.377
141,0.233267,1164.377
142,0.234933,1161.396
143,0.236583,1163.781
144,0.238317,1166.09
145,0.239917,1166.09
146,0.241583,1170.561
147,0.24325,1169.518
148,0.244917,1169.518
149,0.246583,1168.027
150,0.24825,1165.941
151,0.249917,1165.867
152,0.2516,1165.867
153,0.25325,1170.337
154,0.255017,1173.466
155,0.256583,1173.168
156,0.25825,1173.168
157,0.259917,1170.71
158,0.261583,1170.635
159,0.26325,1169.294
160,0.264917,1169.294
161,0.266583,1169.592
162,0.26825,1167.208
163,0.269917,1167.208
164,0.2717,1164.973
165,0.27325,1165.718
166,0.274917,1166.761
167,0.276583,1166.761
168,0.27825,1168.698
169,0.279917,1169.145
170,0.281583,1168.847
171,0.28325,1168.847
172,0.284917,1169.667
173,0.286583,1172.051
174,0.28825,1171.082
175,0.289933,1171.082
176,0.291583,1168.773
177,0.29325,1167.729
178,0.294917,1165.196
179,0.296567,1165.196
180,0.298233,1164.228
181,0.2999,1166.016
182,0.301567,1166.016
183,0.303233,1166.165
184,0.3049,1167.655
185,0.306567,1170.188
186,0.308233,1170.188
187,0.3099,1170.039
188,0.311567,1172.498
189,0.313233,1174.733
190,0.3149,1174.733
191,0.316567,1174.733
192,0.318233,1174.957
193,0.3199,1173.094
194,0.3216,1173.094
195,0.323233,1169.667
196,0.3249,1168.475
197,0.326567,1168.475
198,0.328233,1166.984
199,0.3299,1164.079
200,0.331567,1163.781
201,0.333233,1163.781
202,0.3349,1163.855
203,0.336567,1161.546
204,0.338233,1162.142
205,0.339967,1162.142
206,0.341567,1163.781
207,0.343233,1163.408
208,0.3449,1165.941
209,0.346567,1165.941
210,0.348233,1167.432
211,0.349883,1164.675
212,0.35155,1164.6
213,0.353217,1164.6
214,0.354883,1163.259
215,0.356617,1162.738
216,0.3582,1162.738
217,0.359867,1163.557
218,0.361533,1164.079
219,0.3632,1165.792
220,0.364867,1165.792
221,0.366533,1166.761
222,0.3682,1169.741
223,0.369867,1173.615
224,0.371533,1173.615
225,0.373283,1175.627
226,0.374867,1173.094
227,0.376533,1170.859
228,0.3782,1170.859
229,0.379867,1165.569
230,0.381533,1163.334
231,0.3832,1163.334
232,0.384883,1164.973
233,0.386533,1165.867
234,0.3882,1166.165
235,0.389967,1166.165
236,0.391533,1167.729
237,0.3932,1169.667
238,0.394867,1171.231
239,0.396533,1171.231
240,0.398217,1172.87
241,0.399867,1171.082
242,0.401533,1169.816
243,0.4032,1169.816
244,0.404867,1169.22
245,0.406533,1170.635
246,0.4082,1170.635
247,0.409867,1172.125
248,0.411533,1171.231
249,0.4132,1169.816
250,0.414867,1169.816
251,0.416517,1171.231
252,0.418183,1173.765
253,0.41985,1178.533
254,0.421517,1178.533
255,0.423183,1183.599
256,0.42485,1185.313
257,0.426517,1189.634
258,0.428183,1189.634
259,0.42985,1192.987
260,0.431517,1196.861
261,0.433183,1205.206
262,0.43485,1205.206
263,0.436517,1209.229
264,0.438183,1216.531
265,0.43985,1216.531
266,0.441517,1225.77
267,0.443183,1231.804
268,0.44485,1242.906
269,0.446517,1242.906
270,0.448183,1254.454
271,0.44985,1264.885
272,0.451567,1277.849
273,0.453183,1277.849
274,0.45485,1289.174
275,0.456517,1301.244
276,0.4582,1312.271
277,0.45985,1312.271
278,0.461517,1323.596
279,0.463183,1335.219
280,0.46485,1335.219
281,0.466517,1344.308
282,0.468217,1358.464
283,0.46985,1375.75
284,0.471517,1375.75
285,0.473183,1390.502
286,0.474917,1405.328
287,0.4765,1417.845
288,0.478167,1417.845
289,0.479833,1427.531
290,0.4815,1437.888
291,0.483167,1447.797
292,0.484833,1447.797
293,0.4865,1457.185
294,0.488167,1468.882
295,0.489833,1479.76
296,0.49155,1479.76
297,0.493167,1491.606
298,0.494833,1499.355
299,0.4965,1499.355
300,0.498167,1501.516
301,0.499833,1504.198
302,0.5014999999999999,1504.347
303,0.503167,1504.347
304,0.504833,1504.496
305,0.5065,1502.857
306,0.508283,1500.621
307,0.509833,1500.621
308,0.5115,1498.684
309,0.513167,1498.312
310,0.514833,1495.555
311,0.5165,1495.555
312,0.518167,1491.755
313,0.519833,1486.316
314,0.5215,1486.316
315,0.523167,1480.132
316,0.524833,1472.905
317,0.5265,1466.945
318,0.5281670000000001,1466.945
319,0.529833,1461.58
320,0.5315,1451.373
321,0.5331669999999999,1442.283
322,0.534817,1442.283
323,0.536483,1432.225
324,0.53815,1419.112
325,0.539817,1410.917
326,0.541483,1410.917
327,0.543183,1404.583
328,0.5448499999999999,1398.921
329,0.5464830000000001,1393.706
330,0.54815,1393.706
331,0.549817,1388.267
332,0.5514829999999999,1384.914
333,0.55315,1384.914
334,0.554817,1377.24
335,0.5564829999999999,1373.589
336,0.55815,1370.013
337,0.559817,1370.013
338,0.561483,1361.519
339,0.56315,1358.39
340,0.564817,1354.516
341,0.566483,1354.516
342,0.56815,1351.386
343,0.569817,1348.481
344,0.571483,1345.575
345,0.57315,1345.575
346,0.574817,1346.99
347,0.576483,1346.692
348,0.5781500000000001,1346.692
349,0.579817,1351.163
350,0.581483,1361.147
351,0.5831499999999999,1369.119
352,0.584817,1369.119
353,0.586483,1381.412
354,0.58815,1397.803
355,0.589817,1418.069
356,0.591483,1418.069
357,0.5931999999999999,1446.158
358,0.594817,1482.591
359,0.596467,1526.177
360,0.598133,1526.177
361,0.5998,1580.045
362,0.601467,1646.355
363,0.603133,1724.362
364,0.6048,1724.362
365,0.606467,1819.134
366,0.608133,1929.328
367,0.6098,1929.328
368,0.611483,2050.847
369,0.613183,2184.883
370,0.6148,2338.365
371,0.616467,2338.365
372,0.618133,2501.234
373,0.6198,2679.303
374,0.621467,2875.254
375,0.623133,2875.254
376,0.6248,3079.102
377,0.626567,3293.678
378,0.6281330000000001,3522.635
379,0.6298,3522.635
380,0.631467,3760.084
381,0.6331329999999999,4002.452
382,0.6348,4002.452
383,0.636467,4252.717
384,0.638133,4505.888
385,0.639783,4763.901
386,0.64145,4763.901
387,0.643117,5022.138
388,0.644783,5283.728
389,0.64645,5542.114
390,0.6481170000000001,5542.114
391,0.649783,5799.904
392,0.65145,6062.984
393,0.6531169999999999,6319.731
394,0.654783,6319.731
395,0.656433,6574.914
396,0.6581,6825.328
397,0.659767,6825.328
398,0.661433,7072.911
399,0.6631,7318.333
400,0.664767,7560.7
401,0.6664330000000001,7560.7
402,0.6681,7800.087
403,0.669767,8029.789
404,0.6714329999999999,8256.361000000001
405,0.6731,8256.361000000001
406,0.674767,8477.494000000001
407,0.676433,8690.432000000001
408,0.6781,8898.377
409,0.679767,8898.377
410,0.681433,9101.555
411,0.6831,9301.081
412,0.684767,9498.373
413,0.686433,9498.373
414,0.6881,9688.884
415,0.689767,9872.243
416,0.69145,9872.243
417,0.6931,10047.406
418,0.694767,10212.287
419,0.696433,10374.71
420,0.6981000000000001,10374.71
421,0.699767,10529.012
422,0.701433,10679.141
423,0.7030999999999999,10820.925
424,0.704767,10820.925
425,0.706433,10953.396
426,0.7081,11079.684
427,0.709767,11196.584
428,0.711417,11196.584
429,0.7131,11307.225
430,0.714767,11406.168
431,0.716417,11406.168
432,0.718083,11493.116
433,0.71975,11566.877
434,0.721417,11629.835
435,0.723083,11629.835
436,0.72475,11680.424
437,0.726417,11720.285
438,0.728083,11740.625
439,0.72975,11740.625
440,0.731417,11742.785
441,0.733083,11722.595
442,0.73475,11673.868
443,0.736417,11673.868
444,0.738083,11603.684
445,0.73975,11506.603
446,0.741417,11377.931
447,0.743083,11377.931
448,0.744833,11220.798
449,0.746417,11027.157
450,0.7480830000000001,11027.157
451,0.74975,10799.468
452,0.751417,10545.999
453,0.7530829999999999,10266.006
454,0.75475,10266.006
455,0.756417,9968.579
456,0.758083,9660.870000000001
457,0.759783,9349.51
458,0.761417,9349.51
459,0.763083,9040.386
460,0.76475,8734.391
461,0.766417,8436.739
462,0.768083,8436.739
463,0.76975,8146.688
464,0.771417,7863.566
465,0.773083,7863.566
466,0.774733,7594.377
467,0.7764,7336.363
468,0.778067,7093.176
469,0.779733,7093.176
470,0.7814,6868.02
471,0.783067,6655.008
472,0.784767,6452.948
473,0.7864,6452.948
474,0.788083,6260.5
475,0.789733,6072.968
476,0.7914,5893.931
477,0.793067,5893.931
478,0.794733,5722.94
479,0.7964,5562.231
480,0.798067,5412.4
481,0.799733,5412.4
482,0.8014,5270.839
483,0.803067,5135.089
484,0.804733,5135.089
485,0.8064,5004.555
486,0.808067,4877.671
487,0.809733,4758.09
488,0.8114,4758.09
489,0.813067,4643.351
490,0.814733,4533.827
491,0.8164,4428.178
492,0.818067,4428.178
493,0.819733,4326.999
494,0.8214,4234.165
495,0.823067,4142.97
496,0.824733,4142.97
497,0.826417,4058.033
498,0.828067,3977.269
499,0.8298,3893.897
500,0.8314,3893.897
501,0.833067,3815.889
502,0.834717,3745.183
503,0.836383,3745.183
504,0.83805,3674.403
505,0.839717,3606.528
506,0.841383,3538.206
507,0.84305,3538.206
508,0.8447170000000001,3470.108
509,0.846383,3406.703
510,0.84805,3350.228
511,0.8497169999999999,3350.228
512,0.851383,3295.69
513,0.85305,3239.14
514,0.8547169999999999,3239.14
515,0.856383,3185.496
516,0.85805,3133.789
517,0.859717,3087.67
518,0.861383,3087.67
519,0.86315,3041.774
520,0.864717,2996.847
521,0.866383,2954.602
522,0.86805,2954.602
523,0.869717,2908.26
524,0.8714,2868.324
525,0.87305,2830.401
526,0.874717,2830.401
527,0.876383,2789.125
528,0.87805,2751.425
529,0.879717,2712.682
530,0.881383,2712.682
531,0.88305,2676.323
532,0.884717,2643.988
533,0.886383,2643.988
534,0.88805,2611.801
535,0.889717,2581.477
536,0.891383,2551.302
537,0.89305,2551.302
538,0.8947000000000001,2518.222
539,0.896367,2490.208
540,0.898033,2461.299
541,0.8997000000000001,2461.299
542,0.901367,2430.454
543,0.90305,2408.251
544,0.9047500000000001,2381.131
545,0.906367,2381.131
546,0.908033,2356.321
547,0.9097,2333.298
548,0.911367,2333.298
549,0.913033,2305.508
550,0.9147,2285.019
551,0.916367,2262.294
552,0.918033,2262.294
553,0.9197,2243.742
554,0.921367,2225.19
555,0.923033,2206.191
556,0.9247,2206.191
557,0.9263670000000001,2187.565
558,0.928033,2164.245
559,0.9297,2144.873
560,0.93135,2144.873
561,0.933017,2122.074
562,0.934683,2105.683
563,0.93635,2090.558
564,0.938017,2090.558
565,0.939683,2073.05
566,0.94135,2055.839
567,0.943017,2055.839
568,0.9446830000000001,2036.989
569,0.946383,2018.809
570,0.948083,2002.642
571,0.9496830000000001,2002.642
572,0.95135,1988.709
573,0.953017,1976.714
574,0.954667,1964.346
575,0.956333,1964.346
576,0.958,1951.68
577,0.959667,1941.398
578,0.961333,1926.199
579,0.963017,1926.199
580,0.9646670000000001,1910.627
581,0.966333,1898.706
582,0.968,1898.706
583,0.9696669999999999,1884.177
584,0.971333,1870.99
585,0.973017,1862.943
586,0.9747169999999999,1862.943
587,0.976333,1851.097
588,0.978,1839.399
589,0.979667,1828.745
590,0.981417,1828.745
591,0.983,1814.887
592,0.984667,1802.817
593,0.986333,1793.28
594,0.988,1793.28
595,0.989667,1786.128
596,0.991333,1781.583
597,0.993,1777.708
598,0.994667,1777.708
599,0.996333,1769.364
600,0.998,1758.561
601,0.999667,1758.561
602,1.001333,1747.757
603,1.003,1734.123
604,1.004667,1727.045
605,1.006333,1727.045
606,1.008,1720.786
607,1.009667,1711.622
608,1.011333,1705.81
609,1.013,1705.81
610,1.01465,1696.423
611,1.016317,1688.451
612,1.017983,1684.204
613,1.01965,1684.204
614,1.021317,1674.369
615,1.022983,1667.887
616,1.02465,1667.887
617,1.026317,1659.244
618,1.027983,1649.484
619,1.02965,1642.257
620,1.031317,1642.257
621,1.032983,1634.583
622,1.03465,1628.697
623,1.036367,1623.109
624,1.037983,1623.109
625,1.03965,1619.607
626,1.041317,1615.286
627,1.042983,1612.38
628,1.044667,1612.38
629,1.046317,1606.718
630,1.047983,1599.416
631,1.04965,1599.416
632,1.051317,1594.946
633,1.052983,1587.495
634,1.05465,1581.013
635,1.056317,1581.013
636,1.057983,1578.703
637,1.05965,1571.104
638,1.061317,1565.516
639,1.062983,1565.516
640,1.06465,1562.238
641,1.066317,1555.458
642,1.067983,1551.36
643,1.06965,1551.36
644,1.071317,1547.337
645,1.072983,1540.557
646,1.074633,1537.949
647,1.0763,1537.949
648,1.077967,1532.361
649,1.079633,1528.636
650,1.0813,1528.636
651,1.083033,1523.718
652,1.084633,1516.119
653,1.0863,1511.052
654,1.087967,1511.052
655,1.089633,1506.731
656,1.0913,1504.645
657,1.092967,1502.857
658,1.094633,1502.857
659,1.0963,1500.919
660,1.097967,1494.438
661,1.09975,1492.128
662,1.1013,1492.128
663,1.102967,1489.744
664,1.104633,1483.038
665,1.1063,1483.038
666,1.107967,1479.089
667,1.109633,1472.98
668,1.1113,1465.306
669,1.112967,1465.306
670,1.114633,1464.114
671,1.1163,1461.357
672,1.117967,1459.792
673,1.119633,1459.792
674,1.121317,1459.345
675,1.122967,1456.291
676,1.12465,1454.577
677,1.1263,1454.577
678,1.127967,1448.318
679,1.129633,1446.828
680,1.1313,1446.977
681,1.132967,1446.977
682,1.134617,1444.37
683,1.136283,1446.083
684,1.13795,1446.083
685,1.139617,1441.836
686,1.141283,1436.844
687,1.14295,1434.46
688,1.144617,1434.46
689,1.146283,1428.872
690,1.14795,1425.147
691,1.149617,1418.74
692,1.151283,1418.74
693,1.15295,1413.971
694,1.154617,1411.811
695,1.156283,1408.607
696,1.15795,1408.607
697,1.159617,1409.948
698,1.161283,1408.681
699,1.16295,1408.681
700,1.164617,1405.85
701,1.166283,1403.317
702,1.16795,1399.219
703,1.169617,1399.219
704,1.171283,1398.698
705,1.17295,1395.941
706,1.174617,1397.878
707,1.176283,1397.878
708,1.17795,1396.835
709,1.179617,1395.345
710,1.181283,1394.749
711,1.18295,1394.749
712,1.184683,1389.459
713,1.186283,1390.055
714,1.18795,1385.212
715,1.189617,1385.212
716,1.191317,1379.177
717,1.19295,1378.506
718,1.1946,1378.506
719,1.196267,1373.365
720,1.197933,1374.334
721,1.1996,1375.601
722,1.201367,1375.601
723,1.202933,1371.279
724,1.2046,1371.205
725,1.206267,1365.915
726,1.207933,1365.915
727,1.2096,1364.35
728,1.211267,1365.84
729,1.212933,1364.872
730,1.2146,1364.872
731,1.216267,1362.413
732,1.217967,1361.966
733,1.2196,1361.966
734,1.221267,1361.296
735,1.222917,1360.923
736,1.224583,1361.966
737,1.22625,1361.966
738,1.227917,1359.358
739,1.229583,1355.037
740,1.23125,1349.226
741,1.232917,1349.226
742,1.234667,1348.183
743,1.23625,1345.873
744,1.237917,1343.563
745,1.239583,1343.563
746,1.24125,1344.979
747,1.242917,1343.861
748,1.244583,1343.861
749,1.24625,1342.595
750,1.247917,1343.712
751,1.249583,1339.614
752,1.25125,1339.614
753,1.2529,1337.975
754,1.254567,1336.56
755,1.256233,1329.407
756,1.2579,1329.407
757,1.259567,1329.407
758,1.261233,1326.948
759,1.262917,1322.851
760,1.2646,1322.851
761,1.266233,1326.352
762,1.2679,1325.011
763,1.269567,1321.137
764,1.271233,1321.137
765,1.2729,1323
766,1.274567,1318.231
767,1.276233,1318.231
768,1.2779,1315.325
769,1.279567,1314.878
770,1.281233,1312.122
771,1.2829,1312.122
772,1.284583,1313.91
773,1.286233,1313.612
774,1.2879,1316.89
775,1.289567,1316.89
776,1.291233,1317.784
777,1.2929,1315.996
778,1.294567,1313.165
779,1.296233,1313.165
780,1.2979,1307.428
781,1.299567,1305.342
782,1.301233,1305.342
783,1.3029,1303.33
784,1.304567,1305.193
785,1.306233,1306.683
786,1.3079,1306.683
787,1.309567,1305.64
788,1.311233,1306.087
789,1.3129,1303.703
790,1.31455,1303.703
791,1.316217,1302.585
792,1.317883,1301.989
793,1.31965,1297.742
794,1.321217,1297.742
795,1.322883,1296.177
796,1.32455,1296.774
797,1.326217,1294.836
798,1.327883,1294.836
799,1.32955,1293.793
800,1.331217,1293.942
801,1.332883,1293.942
802,1.33455,1289.099
803,1.336267,1289.994
804,1.337883,1292.825
805,1.33955,1292.825
806,1.341217,1289.472
807,1.342883,1287.237
808,1.34455,1285.374
809,1.346217,1285.374
810,1.347883,1283.735
811,1.34955,1285.523
812,1.351217,1289.472
813,1.352883,1289.472
814,1.35455,1287.833
815,1.356217,1285.97
816,1.357883,1285.97
817,1.35955,1283.437
818,1.361217,1279.19
819,1.362883,1277.178
820,1.36455,1277.178
821,1.366217,1278.743
822,1.367883,1279.935
823,1.36955,1279.339
824,1.371217,1279.339
825,1.372867,1282.916
826,1.374567,1282.17
827,1.3762,1282.543
828,1.377867,1282.543
829,1.379533,1283.511
830,1.3812,1282.021
831,1.382867,1279.935
832,1.384533,1279.935
833,1.3862,1273.453
834,1.387867,1272.187
835,1.389533,1272.187
836,1.3912,1267.269
837,1.392867,1263.917
838,1.394533,1264.214
839,1.3962,1264.214
840,1.397867,1265.407
841,1.399533,1268.461
842,1.401217,1268.089
843,1.402867,1268.089
844,1.404533,1268.983
845,1.4062,1266.822
846,1.407867,1263.171
847,1.409533,1263.171
848,1.4112,1264.885
849,1.412867,1266.599
850,1.414533,1266.599
851,1.4162,1264.587
852,1.417867,1265.332
853,1.41955,1264.587
854,1.4212,1264.587
855,1.422867,1261.011
856,1.424533,1259.819
857,1.4262,1258.627
858,1.427867,1258.627
859,1.429533,1257.286
860,1.4312,1257.062
861,1.432867,1255.87
862,1.434517,1255.87
863,1.436183,1258.329
864,1.437917,1256.466
865,1.439517,1256.466
866,1.441183,1256.317
867,1.44285,1260.638
868,1.444517,1260.564
869,1.446183,1260.564
870,1.44785,1262.352
871,1.449517,1259.968
872,1.451183,1254.901
873,1.45285,1254.901
874,1.454567,1250.431
875,1.456183,1248.419
876,1.45785,1247.6
877,1.459517,1247.6
878,1.4612,1246.78
879,1.46285,1247.674
880,1.464517,1248.121
881,1.466183,1248.121
882,1.46785,1251.027
883,1.469517,1252.517
884,1.471283,1249.015
885,1.47285,1249.015
886,1.474517,1245.588
887,1.476183,1241.192
888,1.47785,1241.192
889,1.479517,1239.255
890,1.481217,1241.416
891,1.48285,1242.459
892,1.484517,1242.459
893,1.486183,1244.843
894,1.48785,1246.184
895,1.489517,1245.663
896,1.491183,1245.663
897,1.492833,1245.29
898,1.4945,1245.737
899,1.496167,1245.737
900,1.497833,1244.098
901,1.4995,1243.055
902,1.501167,1242.459
903,1.502833,1242.459
904,1.5045,1240.075
905,1.506167,1240
906,1.507833,1238.51
907,1.5095,1238.51
908,1.511167,1241.118
909,1.512833,1239.031
910,1.514483,1237.69
911,1.51615,1237.69
912,1.517817,1240.82
913,1.519483,1239.181
914,1.52115,1240.149
915,1.522817,1240.149
916,1.524483,1240.671
917,1.52615,1238.734
