"ID","sea_time","fid_signal"
1,0,1161.62
2,0.00165,1162.216
3,0.0033,1164.675
4,0.004967,1163.185
5,0.006633,1163.185
6,0.0083,1165.569
7,0.009967,1168.027
8,0.011633,1166.835
9,0.0133,1166.835
10,0.014967,1168.773
11,0.016633,1166.463
12,0.0183,1164.973
13,0.019967,1164.973
14,0.021633,1166.612
15,0.0234,1166.016
16,0.024967,1166.016
17,0.026633,1165.42
18,0.0283,1163.93
19,0.029967,1162.961
20,0.031633,1162.961
21,0.0333,1163.706
22,0.034967,1166.314
23,0.036633,1166.835
24,0.0383,1166.835
25,0.039967,1166.239
26,0.041617,1165.345
27,0.043283,1166.016
28,0.04495,1166.016
29,0.046617,1167.432
30,0.0483,1168.4
31,0.04995,1168.4
32,0.051617,1166.835
33,0.053283,1166.612
34,0.054967,1165.122
35,0.056617,1165.122
36,0.058283,1163.259
37,0.05995,1164.824
38,0.061617,1164.079
39,0.06328300000000001,1164.079
40,0.064933,1167.432
41,0.06660000000000001,1168.996
42,0.06826699999999999,1168.698
43,0.069933,1168.698
44,0.0716,1167.953
45,0.073267,1164.004
46,0.07498299999999999,1165.494
47,0.0766,1165.494
48,0.078267,1165.941
49,0.079933,1164.973
50,0.08160000000000001,1164.973
51,0.08326699999999999,1165.494
52,0.08493299999999999,1162.887
53,0.0866,1161.546
54,0.088267,1161.546
55,0.089933,1161.769
56,0.0916,1162.589
57,0.093267,1164.004
58,0.094933,1164.004
59,0.09660000000000001,1165.42
60,0.09826699999999999,1165.345
61,0.09993299999999999,1166.537
62,0.1016,1166.537
63,0.103267,1166.463
64,0.104933,1167.58
65,0.1066,1167.58
66,0.108333,1169.741
67,0.109933,1167.729
68,0.1116,1165.643
69,0.113267,1165.643
70,0.114933,1163.334
71,0.1166,1162.589
72,0.118267,1165.271
73,0.119933,1165.271
74,0.1216,1165.569
75,0.123267,1165.867
76,0.124917,1164.973
77,0.126583,1164.973
78,0.12825,1164.675
79,0.129917,1167.282
80,0.131583,1167.282
81,0.133267,1170.635
82,0.13495,1169.667
83,0.136583,1170.859
84,0.13825,1170.859
85,0.139917,1169.89
86,0.1417,1166.91
87,0.14325,1170.263
88,0.144917,1170.263
89,0.146583,1170.188
90,0.14825,1169.741
91,0.149917,1169.071
92,0.1516,1169.071
93,0.15325,1165.643
94,0.154917,1164.004
95,0.156583,1166.165
96,0.15825,1166.165
97,0.159917,1167.58
98,0.161583,1167.059
99,0.16325,1167.059
100,0.164917,1166.686
101,0.166583,1166.537
102,0.16825,1168.698
103,0.169917,1168.698
104,0.171583,1171.529
105,0.17325,1169.592
106,0.174917,1167.58
107,0.176583,1167.58
108,0.17825,1163.483
109,0.179917,1162.514
110,0.181583,1163.259
111,0.18325,1163.259
112,0.1849,1162.738
113,0.186567,1163.93
114,0.188233,1163.93
115,0.1899,1165.345
116,0.191567,1164.973
117,0.193233,1166.463
118,0.1949,1166.463
119,0.196567,1166.463
120,0.198233,1164.228
121,0.1999,1163.483
122,0.201567,1163.483
123,0.203233,1161.546
124,0.2049,1161.769
125,0.206567,1162.291
126,0.208233,1162.291
127,0.2099,1161.993
128,0.211567,1164.898
129,0.213233,1165.122
130,0.2149,1165.122
131,0.216567,1167.804
132,0.218267,1172.051
133,0.2199,1172.051
134,0.221583,1173.392
135,0.223233,1174.957
136,0.2249,1171.455
137,0.226583,1171.455
138,0.228233,1170.71
139,0.2299,1168.027
140,0.231567,1165.569
141,0.233233,1165.569
142,0.2349,1165.345
143,0.236567,1162.663
144,0.238233,1163.781
145,0.2399,1163.781
146,0.241567,1166.388
147,0.243333,1169.145
148,0.244883,1169.145
149,0.24655,1171.455
150,0.248217,1170.859
151,0.249883,1168.922
152,0.25155,1168.922
153,0.253217,1165.941
154,0.254883,1165.494
155,0.25655,1164.451
156,0.258217,1164.451
157,0.26,1164.079
158,0.26155,1165.941
159,0.263217,1166.463
160,0.264883,1166.463
161,0.26655,1169.443
162,0.268217,1169.071
163,0.269883,1171.231
164,0.27155,1171.231
165,0.273217,1172.87
166,0.274883,1169.816
167,0.27665,1169.816
168,0.278217,1170.188
169,0.279883,1168.102
170,0.28155,1163.93
171,0.283233,1163.93
172,0.284883,1162.812
173,0.28655,1161.769
174,0.288217,1161.918
175,0.289883,1161.918
176,0.29155,1162.887
177,0.293217,1166.835
178,0.294883,1171.157
179,0.29655,1171.157
180,0.298217,1170.859
181,0.299917,1170.039
182,0.301567,1170.039
183,0.3032,1169.667
184,0.304867,1168.624
185,0.306533,1168.847
186,0.3082,1168.847
187,0.309867,1169.443
188,0.311533,1167.58
189,0.3132,1164.153
190,0.314867,1164.153
191,0.316533,1163.185
192,0.3182,1164.898
193,0.319867,1164.526
194,0.321533,1164.526
195,0.3232,1166.165
196,0.324867,1165.122
197,0.326533,1165.122
198,0.3282,1163.632
199,0.329867,1163.632
200,0.331533,1163.632
201,0.333183,1163.632
202,0.33485,1166.016
203,0.336517,1166.835
204,0.338183,1167.432
205,0.33985,1167.432
206,0.341517,1172.125
207,0.343183,1176
208,0.344917,1181.29
209,0.346517,1181.29
210,0.348183,1192.167
211,0.34985,1200.587
212,0.351517,1210.272
213,0.353183,1210.272
214,0.35485,1220.554
215,0.356517,1230.687
216,0.358183,1230.687
217,0.35985,1244.396
218,0.361567,1260.191
219,0.363183,1278.222
220,0.364833,1278.222
221,0.3665,1300.052
222,0.368167,1320.764
223,0.369833,1344.532
224,0.3715,1344.532
225,0.373183,1373.291
226,0.374917,1397.207
227,0.3765,1423.582
228,0.37825,1423.582
229,0.379833,1452.342
230,0.3815,1479.313
231,0.383167,1479.313
232,0.384833,1507.551
233,0.3865,1536.533
234,0.388167,1564.845
235,0.389833,1564.845
236,0.3915,1594.722
237,0.393167,1626.164
238,0.39495,1657.233
239,0.3965,1657.233
240,0.398167,1689.047
241,0.399833,1719.296
242,0.4015,1754.016
243,0.403167,1754.016
244,0.404833,1789.927
245,0.4065,1825.69
246,0.408167,1865.029
247,0.409833,1865.029
248,0.4115,1902.431
249,0.413167,1941.249
250,0.414833,1941.249
251,0.4165,1980.588
252,0.418167,2021.119
253,0.419833,2064.332
254,0.4215,2064.332
255,0.42315,2110.153
256,0.424817,2158.21
257,0.426483,2206.042
258,0.42815,2206.042
259,0.429817,2254.62
260,0.431483,2305.657
261,0.43315,2356.619
262,0.434817,2356.619
263,0.436483,2411.231
264,0.43815,2468.303
265,0.439817,2468.303
266,0.4415,2527.907
267,0.443183,2593.994
268,0.444817,2661.273
269,0.446483,2661.273
270,0.44815,2730.265
271,0.449833,2803.877
272,0.451517,2879.5
273,0.45315,2879.5
274,0.454817,2966.3
275,0.456483,3061.22
276,0.458167,3163.219
277,0.459817,3163.219
278,0.461483,3278.33
279,0.46315,3401.488
280,0.464817,3535.301
281,0.466483,3535.301
282,0.46815,3678.352
283,0.469817,3829.375
284,0.471483,3829.375
285,0.47315,3989.413
286,0.474817,4161.596
287,0.476483,4338.995
288,0.47815,4338.995
289,0.479883,4519.299
290,0.481483,4697.144
291,0.48315,4860.684
292,0.4848,4860.684
293,0.486467,5011.41
294,0.488133,5144.551
295,0.4898,5254.597
296,0.491467,5254.597
297,0.493133,5347.878
298,0.4948,5413.667
299,0.496467,5413.667
300,0.498133,5454.868
301,0.4998,5465.299
302,0.501467,5440.563
303,0.5031330000000001,5440.563
304,0.5048,5393.401
305,0.506467,5319.938
306,0.5081329999999999,5227.477
307,0.5098,5227.477
308,0.511467,5119.145
309,0.5132330000000001,4987.344
310,0.5148,4841.76
311,0.516467,4841.76
312,0.518133,4688.054
313,0.5198,4526.153
314,0.521483,4369.318
315,0.523133,4369.318
316,0.5248,4209.652
317,0.526467,4050.135
318,0.528133,4050.135
319,0.5298,3899.41
320,0.531467,3751.665
321,0.533133,3610.924
322,0.5348000000000001,3610.924
323,0.536467,3475.323
324,0.538133,3346.503
325,0.539817,3223.196
326,0.541467,3223.196
327,0.543117,3108.829
328,0.544783,3005.862
329,0.54645,2905.652
330,0.548117,2905.652
331,0.549783,2813.116
332,0.55145,2724.603
333,0.553117,2724.603
334,0.554783,2641.305
335,0.55645,2565.384
336,0.558117,2498.552
337,0.559783,2498.552
338,0.56145,2436.638
339,0.563117,2378.002
340,0.564783,2323.836
341,0.56645,2323.836
342,0.568117,2266.69
343,0.569783,2215.43
344,0.57145,2170.503
345,0.573117,2170.503
346,0.574783,2125.651
347,0.57645,2086.759
348,0.578117,2086.759
349,0.579783,2051.368
350,0.58145,2014.041
351,0.583133,1983.568
352,0.5847830000000001,1983.568
353,0.58645,1953.021
354,0.588117,1922.25
355,0.5897829999999999,1895.949
356,0.59145,1895.949
357,0.593117,1866.519
358,0.594783,1842.678
359,0.59645,1821.443
360,0.598117,1821.443
361,0.599783,1799.464
362,0.60145,1782.775
363,0.603117,1764.67
364,0.6047670000000001,1764.67
365,0.606433,1744.33
366,0.6081,1727.119
367,0.6097669999999999,1727.119
368,0.611433,1707.971
369,0.6131,1688.376
370,0.614833,1674.369
371,0.616433,1674.369
372,0.6181,1657.903
373,0.619767,1640.692
374,0.621433,1628.399
375,0.6231,1628.399
376,0.62475,1613.572
377,0.626417,1601.353
378,0.6280829999999999,1591.742
379,0.62975,1591.742
380,0.631533,1579.523
381,0.6331,1567.826
382,0.63475,1567.826
383,0.636417,1557.767
384,0.638083,1549.572
385,0.63975,1539.662
386,0.641417,1539.662
387,0.643083,1532.51
388,0.64475,1522.675
389,0.646417,1514.182
390,0.648083,1514.182
391,0.64975,1505.464
392,0.651417,1495.481
393,0.653083,1486.018
394,0.6547500000000001,1486.018
395,0.656417,1477.003
396,0.658083,1470.372
397,0.6597499999999999,1470.372
398,0.661433,1463.965
399,0.663083,1458.675
400,0.664733,1450.405
401,0.6664,1450.405
402,0.668067,1444.966
403,0.669733,1437.217
404,0.6714,1432.151
405,0.673067,1432.151
406,0.674733,1427.457
407,0.6764,1419.783
408,0.678067,1415.983
409,0.679733,1415.983
410,0.6814,1409.724
411,0.683067,1402.274
412,0.684733,1398.548
413,0.6864,1398.548
414,0.688067,1394.451
415,0.689733,1392.29
416,0.6914,1392.29
417,0.693067,1389.012
418,0.694733,1385.063
419,0.6964,1377.836
420,0.698067,1377.836
421,0.699733,1371.13
422,0.7014,1369.119
423,0.703067,1363.158
424,0.7047330000000001,1363.158
425,0.7064,1362.041
426,0.7081,1358.241
427,0.7097329999999999,1352.429
428,0.7114,1352.429
429,0.713067,1350.343
430,0.714733,1345.202
431,0.71645,1343.191
432,0.718067,1343.191
433,0.719733,1341.104
434,0.7214,1337.603
435,0.72305,1337.603
436,0.7247169999999999,1336.336
437,0.7264,1331.046
438,0.7281,1328.588
439,0.7297169999999999,1328.588
440,0.731383,1325.16
441,0.73305,1321.882
442,0.734717,1319.349
443,0.736383,1319.349
444,0.73805,1315.624
445,0.739717,1316.592
446,0.741383,1314.357
447,0.74305,1314.357
448,0.744717,1314.208
449,0.746383,1309.887
450,0.74805,1309.887
451,0.749833,1304.15
452,0.751383,1301.393
453,0.75305,1296.997
454,0.754717,1296.997
455,0.756383,1296.028
456,0.75805,1294.166
457,0.759717,1289.472
458,0.761383,1289.472
459,0.76305,1286.343
460,0.764717,1283.437
461,0.766383,1279.488
462,0.76805,1279.488
463,0.769717,1277.849
464,0.771383,1277.551
465,0.77305,1277.551
466,0.774717,1276.433
467,0.776383,1276.284
468,0.77805,1278.222
469,0.779717,1278.222
470,0.781367,1275.316
471,0.783033,1274.943
472,0.7847,1275.614
473,0.786367,1275.614
474,0.788033,1271.516
475,0.7897,1269.877
476,0.791367,1268.759
477,0.793033,1268.759
478,0.7947,1265.332
479,0.796367,1263.097
480,0.798067,1260.564
481,0.799783,1260.564
482,0.8013670000000001,1257.062
483,0.803033,1258.925
484,0.8047,1258.925
485,0.8063669999999999,1259.223
486,0.808033,1261.607
487,0.8097,1261.905
488,0.8113669999999999,1261.905
489,0.813033,1258.552
490,0.8147,1255.572
491,0.816367,1252.145
492,0.818033,1252.145
493,0.8197,1248.941
494,0.821367,1248.494
495,0.823033,1249.611
496,0.8247,1249.611
497,0.826367,1248.568
498,0.828033,1247.302
499,0.8297,1247.302
500,0.831367,1243.651
501,0.833033,1240.298
502,0.83475,1241.863
503,0.836367,1241.863
504,0.838033,1242.98
505,0.8397,1244.098
506,0.841367,1246.408
507,0.843017,1246.408
508,0.844683,1241.192
509,0.84635,1239.181
510,0.848017,1234.412
511,0.849683,1234.412
512,0.8513500000000001,1232.922
513,0.853017,1231.879
514,0.854683,1233.146
515,0.8563499999999999,1233.146
516,0.858017,1232.326
517,0.859683,1227.707
518,0.861367,1227.707
519,0.863017,1228.079
520,0.864683,1224.726
521,0.86635,1226.589
522,0.868133,1226.589
523,0.869683,1227.26
524,0.87135,1225.77
525,0.873017,1228.079
526,0.874683,1228.079
527,0.876383,1226.962
528,0.87805,1226.664
529,0.879683,1229.197
530,0.88135,1229.197
531,0.8830170000000001,1226.962
532,0.884683,1224.577
533,0.88635,1224.577
534,0.8880169999999999,1223.087
535,0.889683,1222.268
536,0.89135,1220.182
537,0.8930169999999999,1220.182
538,0.894683,1221.895
539,0.89635,1220.629
540,0.898017,1216.009
541,0.899683,1216.009
542,0.90135,1216.233
543,0.903,1214.147
544,0.904667,1214.743
545,0.9063330000000001,1214.743
546,0.908,1215.19
547,0.909667,1213.029
548,0.9113329999999999,1213.029
549,0.913,1213.402
550,0.91465,1211.241
551,0.916317,1211.837
552,0.917983,1211.837
553,0.91965,1212.582
554,0.9213170000000001,1211.39
555,0.922983,1209.974
556,0.92465,1209.974
557,0.9263169999999999,1208.559
558,0.927983,1205.504
559,0.92965,1205.578
560,0.931317,1205.578
561,0.932983,1205.727
562,0.93465,1208.112
563,0.936317,1210.794
564,0.937983,1210.794
565,0.93965,1210.049
566,0.941367,1212.582
567,0.9429999999999999,1212.582
568,0.94465,1208.782
569,0.946317,1206.473
570,0.947983,1205.355
571,0.94965,1205.355
572,0.951317,1202.226
573,0.95305,1201.63
574,0.95465,1201.257
575,0.956317,1201.257
576,0.957983,1204.088
577,0.95965,1205.876
578,0.9613,1206.473
579,0.962967,1206.473
580,0.964633,1206.547
581,0.9663,1202.375
582,0.967967,1202.375
583,0.969633,1200.661
584,0.9713000000000001,1201.555
585,0.972967,1201.481
586,0.974633,1201.481
587,0.9762999999999999,1200.363
588,0.977967,1199.916
589,0.979633,1198.053
590,0.9813,1198.053
591,0.982967,1196.489
592,0.984633,1197.234
593,0.9864000000000001,1195.893
594,0.987967,1195.893
595,0.989633,1196.116
596,0.9913,1196.489
597,0.992967,1196.712
598,0.994633,1196.712
599,0.9963,1198.053
600,0.997967,1194.477
601,0.999633,1194.477
602,1.0013,1191.944
603,1.002967,1191.869
604,1.004633,1189.411
605,1.0063,1189.411
606,1.007967,1190.081
607,1.009633,1191.795
608,1.0113,1188.368
609,1.012967,1188.368
610,1.014633,1190.081
611,1.0163,1191.571
612,1.017967,1192.465
613,1.019667,1192.465
614,1.021283,1192.391
615,1.02295,1190.454
616,1.024617,1190.454
617,1.026283,1190.975
618,1.02795,1190.826
619,1.029617,1194.775
620,1.031283,1194.775
621,1.03295,1196.34
622,1.034617,1195.744
623,1.036333,1194.254
624,1.03795,1194.254
625,1.039617,1192.54
626,1.041283,1191.422
627,1.04295,1189.634
628,1.044617,1189.634
629,1.046283,1190.901
630,1.04795,1189.858
631,1.049617,1191.124
632,1.051283,1191.124
633,1.05295,1192.614
634,1.054617,1189.411
635,1.056283,1189.411
636,1.05795,1187.921
637,1.059617,1186.207
638,1.061283,1184.121
639,1.06295,1184.121
640,1.064617,1185.462
641,1.066283,1187.995
642,1.06795,1189.485
643,1.069617,1189.485
644,1.07135,1188.591
645,1.07295,1189.187
646,1.074617,1189.411
647,1.076283,1189.411
648,1.07795,1189.262
649,1.079617,1190.677
650,1.081283,1190.677
651,1.082933,1187.548
652,1.0846,1186.729
653,1.086267,1183.674
654,1.08805,1183.674
655,1.089667,1181.662
656,1.091267,1182.705
657,1.092933,1179.874
658,1.0946,1179.874
659,1.096267,1182.035
660,1.097933,1181.96
661,1.0996,1183.227
662,1.101267,1183.227
663,1.102933,1184.419
664,1.1047,1182.482
665,1.106267,1182.482
666,1.107933,1182.333
667,1.1096,1181.215
668,1.111267,1180.023
669,1.112933,1180.023
670,1.1146,1180.47
671,1.116267,1181.29
672,1.117933,1180.47
673,1.1196,1180.47
674,1.121267,1180.47
675,1.12295,1182.556
676,1.1246,1182.78
677,1.126267,1182.78
678,1.127933,1180.172
679,1.1296,1179.576
680,1.131267,1179.948
681,1.132933,1179.948
682,1.1346,1179.874
683,1.136267,1183.078
684,1.137933,1183.078
685,1.1396,1180.917
686,1.141267,1173.839
687,1.142917,1173.094
688,1.144583,1173.094
689,1.14625,1173.988
690,1.147917,1178.011
691,1.149583,1184.121
692,1.15125,1184.121
693,1.152917,1186.132
694,1.154583,1183.078
695,1.15625,1182.482
696,1.157917,1182.482
697,1.159583,1180.768
698,1.16125,1179.799
699,1.162933,1179.799
700,1.164583,1182.705
701,1.16625,1182.929
702,1.167917,1183.376
703,1.169583,1183.376
704,1.17125,1182.556
705,1.172917,1179.65
706,1.174583,1179.725
707,1.17625,1179.725
708,1.177917,1179.427
709,1.179583,1179.576
710,1.18125,1182.184
711,1.182917,1182.184
712,1.184583,1178.458
713,1.18625,1176.745
714,1.187917,1174.51
715,1.189617,1174.51
716,1.19125,1173.019
717,1.19295,1175.925
718,1.194583,1175.925
719,1.19625,1176
720,1.197917,1177.043
721,1.199583,1177.937
722,1.20125,1177.937
723,1.2029,1178.831
724,1.204567,1180.47
725,1.206333,1184.866
726,1.207883,1184.866
727,1.20955,1185.834
728,1.211233,1184.717
729,1.212883,1184.121
730,1.21455,1184.121
731,1.216217,1178.086
732,1.217883,1175.404
733,1.21955,1175.404
734,1.221217,1171.38
735,1.222983,1170.114
736,1.22455,1174.286
737,1.226217,1174.286
738,1.227883,1174.882
739,1.22955,1176.149
740,1.231217,1176.968
741,1.232883,1176.968
742,1.23455,1175.031
743,1.236217,1173.988
744,1.237883,1178.309
745,1.23965,1178.309
746,1.241217,1177.266
747,1.242933,1176.521
748,1.24455,1176.149
749,1.246217,1176.149
750,1.247883,1174.659
751,1.24955,1174.212
752,1.251217,1174.212
753,1.252883,1174.063
754,1.25455,1173.243
755,1.256217,1170.635
756,1.257883,1170.635
757,1.259533,1171.38
758,1.2612,1172.051
759,1.262867,1176.447
760,1.264533,1176.447
761,1.2662,1178.458
762,1.267867,1179.352
763,1.269533,1178.458
764,1.2712,1178.458
765,1.272867,1176.149
766,1.274533,1176.596
767,1.2762,1176.596
768,1.277867,1177.713
769,1.279533,1180.097
770,1.2812,1180.768
771,1.282883,1180.768
772,1.284533,1177.937
773,1.2862,1175.18
774,1.287867,1174.882
775,1.289533,1174.882
776,1.2912,1170.337
777,1.292867,1169.667
778,1.294533,1169.369
779,1.2962,1169.369
780,1.297867,1169.294
781,1.299533,1176.372
782,1.3012,1176.372
783,1.302867,1181.439
784,1.304533,1184.419
785,1.3062,1182.78
786,1.3079,1182.78
787,1.309533,1175.627
788,1.3112,1172.423
789,1.312867,1169.816
790,1.314533,1169.816
791,1.3162,1168.624
792,1.317867,1169.667
793,1.319533,1169.22
794,1.3212,1169.22
795,1.32285,1172.796
796,1.3246,1174.063
797,1.326183,1174.733
798,1.32785,1174.733
799,1.329517,1175.925
800,1.331183,1172.647
801,1.33285,1172.647
802,1.334517,1171.902
803,1.336183,1171.976
804,1.33785,1173.69
805,1.339517,1173.69
806,1.34125,1174.733
807,1.34285,1174.137
808,1.344517,1173.466
809,1.346183,1173.466
810,1.34785,1171.976
811,1.349517,1170.71
812,1.351183,1173.913
813,1.35285,1173.913
814,1.354517,1174.286
815,1.356183,1173.69
816,1.35795,1174.212
817,1.359517,1174.212
818,1.361183,1169.741
819,1.36285,1171.231
820,1.364517,1171.231
821,1.366183,1170.114
822,1.36785,1169.294
823,1.369517,1169.592
824,1.3712,1169.592
825,1.37285,1169.518
826,1.374517,1171.082
827,1.376183,1171.082
828,1.37785,1171.082
829,1.379517,1174.957
830,1.381183,1176.372
831,1.382833,1173.988
832,1.3845,1173.988
833,1.386217,1173.466
834,1.387833,1169.89
835,1.3895,1169.89
836,1.391167,1166.463
837,1.392833,1165.792
838,1.3945,1164.749
839,1.396167,1164.749
840,1.397833,1164.526
841,1.3995,1166.165
842,1.401167,1170.188
843,1.402833,1170.188
844,1.4045,1168.847
845,1.406167,1169.145
846,1.407833,1170.561
847,1.4095,1170.561
848,1.411167,1166.463
849,1.412833,1167.804
850,1.4145,1167.804
851,1.416167,1167.506
852,1.417833,1166.835
853,1.4195,1170.337
854,1.421167,1170.337
855,1.422833,1169.89
856,1.4245,1172.498
857,1.426167,1169.592
858,1.427833,1169.592
859,1.4295,1169.816
860,1.431167,1170.486
861,1.432833,1167.133
862,1.4345,1167.133
863,1.436167,1169.592
864,1.437833,1166.388
865,1.4395,1166.388
866,1.441167,1166.388
867,1.442883,1169.89
868,1.444483,1167.804
869,1.44615,1167.804
870,1.447817,1170.114
871,1.449483,1172.796
872,1.45115,1171.529
873,1.452817,1171.529
874,1.4545,1172.349
875,1.456217,1170.784
876,1.457817,1167.357
877,1.4595,1167.357
878,1.46115,1167.357
879,1.462817,1167.879
880,1.464483,1169.592
881,1.46615,1169.592
882,1.467817,1170.263
883,1.469483,1170.859
884,1.47115,1170.859
885,1.472817,1172.125
886,1.474483,1171.306
887,1.476267,1171.157
888,1.477817,1171.157
889,1.479483,1169.145
890,1.48115,1167.282
891,1.482817,1168.847
892,1.484483,1168.847
893,1.48615,1168.102
894,1.487817,1171.753
895,1.489483,1174.212
896,1.49115,1174.212
897,1.492833,1172.423
898,1.494483,1172.647
899,1.49615,1172.647
900,1.4978,1168.4
901,1.499467,1164.824
902,1.501133,1166.91
903,1.502783,1166.91
904,1.50445,1168.4
905,1.506117,1171.902
906,1.507783,1175.776
907,1.50945,1175.776
908,1.511117,1171.678
909,1.512783,1170.933
910,1.51445,1168.847
911,1.516117,1168.847
912,1.517783,1165.569
913,1.51945,1166.537
914,1.521117,1164.675
915,1.522783,1164.675
916,1.52445,1163.259
917,1.52615,1166.09
918,1.5278,1166.09
919,1.52945,1169.667
