"ID","sea_time","fid_signal"
1,0,1170.337
2,0.0016,1170.337
3,0.003267,1172.2
4,0.004933,1173.615
5,0.0066,1173.615
6,0.008267,1173.988
7,0.009950000000000001,1175.031
8,0.0116,1174.137
9,0.013267,1174.137
10,0.014933,1172.051
11,0.0166,1170.114
12,0.018267,1170.412
13,0.019967,1170.412
14,0.0216,1168.326
15,0.023267,1167.432
16,0.024933,1167.953
17,0.0266,1167.953
18,0.028267,1163.334
19,0.029933,1161.769
20,0.0316,1162.738
21,0.033267,1162.738
22,0.034933,1162.738
23,0.0366,1162.291
24,0.038267,1162.291
25,0.039933,1162.738
26,0.0416,1161.769
27,0.043267,1162.067
28,0.044933,1162.067
29,0.0466,1166.761
30,0.048267,1167.879
31,0.049933,1168.773
32,0.0516,1168.773
33,0.053267,1167.655
34,0.054933,1163.781
35,0.0566,1162.44
36,0.058267,1162.44
37,0.059917,1162.514
38,0.061583,1164.675
39,0.06325,1164.675
40,0.064917,1167.729
41,0.066583,1171.678
42,0.06825000000000001,1174.286
43,0.06991700000000001,1174.286
44,0.07158299999999999,1172.796
45,0.07325,1172.572
46,0.074917,1171.976
47,0.076583,1171.976
48,0.07825,1170.486
49,0.079917,1173.466
50,0.081583,1172.498
51,0.08325,1172.498
52,0.08500000000000001,1171.827
53,0.086617,1169.965
54,0.08825,1166.686
55,0.089917,1166.686
56,0.091583,1165.196
57,0.09325,1162.216
58,0.094933,1162.216
59,0.096583,1165.122
60,0.09825,1166.761
61,0.09991700000000001,1167.58
62,0.101583,1167.58
63,0.10325,1167.729
64,0.104917,1166.314
65,0.106583,1166.91
66,0.10825,1166.91
67,0.109917,1169.369
68,0.111583,1170.859
69,0.11325,1171.604
70,0.114917,1171.604
71,0.116583,1169.145
72,0.11835,1167.432
73,0.1199,1167.432
74,0.121567,1168.027
75,0.123233,1168.698
76,0.1249,1171.902
77,0.126567,1171.902
78,0.128233,1170.635
79,0.129883,1170.188
80,0.13155,1171.231
81,0.133217,1171.231
82,0.134883,1170.263
83,0.13655,1172.721
84,0.138217,1173.541
85,0.139883,1173.541
86,0.14155,1174.286
87,0.143217,1174.063
88,0.144883,1174.063
89,0.14655,1173.69
90,0.148217,1173.988
91,0.149883,1170.039
92,0.15155,1170.039
93,0.153217,1167.804
94,0.154883,1165.42
95,0.15655,1166.91
96,0.158217,1166.91
97,0.159883,1170.039
98,0.161583,1172.274
99,0.163217,1173.466
100,0.164883,1173.466
101,0.16655,1169.369
102,0.168217,1168.996
103,0.1699,1166.612
104,0.17155,1166.612
105,0.173217,1167.432
106,0.174883,1168.177
107,0.17655,1168.177
108,0.178217,1167.506
109,0.179867,1170.039
110,0.181533,1170.188
111,0.1832,1170.188
112,0.184867,1169.89
113,0.186533,1167.059
114,0.1882,1164.749
115,0.189867,1164.749
116,0.191533,1164.898
117,0.1932,1166.165
118,0.194867,1167.357
119,0.196533,1167.357
120,0.1982,1167.059
121,0.199867,1166.165
122,0.201533,1166.165
123,0.203267,1167.58
124,0.204867,1166.686
125,0.206533,1166.984
126,0.2082,1166.984
127,0.209867,1165.047
128,0.211533,1164.6
129,0.2132,1167.059
130,0.214867,1167.059
131,0.216533,1166.761
132,0.2182,1167.58
133,0.219867,1164.079
134,0.221533,1164.079
135,0.2232,1160.726
136,0.224867,1163.706
137,0.226533,1167.357
138,0.2282,1167.357
139,0.229867,1169.518
140,0.231533,1170.263
141,0.2332,1170.263
142,0.234867,1166.686
143,0.236633,1165.122
144,0.238183,1163.93
145,0.23985,1163.93
146,0.241517,1165.122
147,0.243183,1166.612
148,0.24485,1166.463
149,0.246517,1166.463
150,0.248183,1165.643
151,0.24985,1165.271
152,0.251517,1165.345
153,0.253183,1165.345
154,0.25485,1165.867
155,0.256517,1169.518
156,0.258183,1169.518
157,0.25985,1169.89
158,0.261517,1173.019
159,0.263217,1174.659
160,0.26485,1174.659
161,0.266517,1173.839
162,0.268183,1173.243
163,0.269867,1168.922
164,0.271517,1168.922
165,0.273183,1166.388
166,0.27485,1166.984
167,0.276517,1168.847
168,0.278183,1168.847
169,0.27985,1172.274
170,0.281517,1171.38
171,0.283183,1168.847
172,0.28485,1168.847
173,0.286517,1167.506
174,0.288183,1166.016
175,0.28985,1166.016
176,0.291517,1166.835
177,0.293183,1166.835
178,0.29485,1166.761
179,0.296517,1166.761
180,0.298167,1165.792
181,0.299833,1161.844
182,0.3015,1161.173
183,0.303167,1161.173
184,0.304867,1162.887
185,0.3065,1162.961
186,0.308167,1165.718
187,0.309833,1165.718
188,0.3115,1169.369
189,0.313167,1168.326
190,0.314833,1168.326
191,0.3165,1168.847
192,0.318167,1170.039
193,0.319833,1167.506
194,0.321567,1167.506
195,0.323167,1165.941
196,0.324833,1166.388
197,0.3265,1164.675
198,0.328167,1164.675
199,0.329833,1165.569
200,0.3315,1167.282
201,0.333167,1167.282
202,0.334833,1167.282
203,0.3365,1166.686
204,0.338233,1166.612
205,0.339867,1165.569
206,0.3415,1165.569
207,0.343167,1168.177
208,0.344833,1170.039
209,0.3465,1170.039
210,0.348167,1171.157
211,0.349833,1175.478
212,0.3515,1177.341
213,0.353167,1177.341
214,0.354917,1184.94
215,0.3565,1192.54
216,0.358167,1200.885
217,0.359817,1200.885
218,0.361483,1209.602
219,0.36315,1217.797
220,0.364817,1229.942
221,0.366483,1229.942
222,0.36815,1242.161
223,0.369817,1261.532
224,0.371483,1261.532
225,0.37315,1283.81
226,0.374817,1301.393
227,0.376483,1322.031
228,0.37815,1322.031
229,0.379817,1339.912
230,0.3815,1361.221
231,0.38315,1390.949
232,0.384817,1390.949
233,0.386483,1419.038
234,0.38815,1449.361
235,0.389817,1477.301
236,0.391483,1477.301
237,0.39315,1505.315
238,0.394817,1537.353
239,0.396483,1537.353
240,0.39815,1567.975
241,0.399817,1599.342
242,0.401483,1631.23
243,0.40315,1631.23
244,0.404817,1666.546
245,0.406483,1705.363
246,0.40815,1748.428
247,0.409817,1748.428
248,0.411483,1791.865
249,0.41315,1834.705
250,0.414817,1885.071
251,0.416483,1885.071
252,0.418133,1934.543
253,0.4198,1988.411
254,0.421467,2042.726
255,0.42315,2042.726
256,0.424783,2098.083
257,0.42645,2157.465
258,0.428117,2157.465
259,0.429783,2221.838
260,0.43145,2291.277
261,0.433117,2365.857
262,0.434783,2365.857
263,0.43645,2450.421
264,0.438117,2539.605
265,0.439833,2644.211
266,0.44145,2644.211
267,0.443117,2764.761
268,0.4448,2910.271
269,0.44645,3090.799
270,0.448117,3090.799
271,0.449783,3310.964
272,0.45145,3577.545
273,0.453117,3577.545
274,0.454783,3901.347
275,0.456567,4292.13
276,0.458117,4760.027
277,0.459783,4760.027
278,0.46145,5312.338
279,0.463117,5945.712
280,0.464783,6661.788
281,0.46645,6661.788
282,0.468117,7441.417
283,0.469783,8276.552
284,0.47145,9150.951999999999
285,0.473217,9150.951999999999
286,0.474783,10032.355
287,0.47645,10907.873
288,0.478117,10907.873
289,0.479767,11746.063
290,0.481433,12527.63
291,0.4831,13230.592
292,0.484767,13230.592
293,0.486433,13834.61
294,0.4881,14331.117
295,0.489867,14710.725
296,0.491433,14710.725
297,0.4931,14971.346
298,0.494767,15116.781
299,0.496433,15148.595
300,0.4981,15148.595
301,0.499767,15069.991
302,0.501433,14897.585
303,0.5031,14644.266
304,0.504767,14644.266
305,0.506433,14321.432
306,0.5081,13945.476
307,0.509767,13945.476
308,0.511467,13526.678
309,0.5131,13073.013
310,0.514767,12598.038
311,0.516433,12598.038
312,0.5181,12111.44
313,0.519767,11622.235
314,0.521467,11135.712
315,0.5231,11135.712
316,0.524767,10657.608
317,0.526433,10188.52
318,0.5281,9733.959999999999
319,0.529767,9733.959999999999
320,0.531433,9302.348
321,0.5331,8887.200999999999
322,0.534767,8887.200999999999
323,0.536433,8498.207
324,0.538083,8133.575
325,0.53975,7784.739
326,0.541417,7784.739
327,0.543083,7459.745
328,0.54475,7152.483
329,0.546417,6860.42
330,0.548083,6860.42
331,0.54975,6585.121
332,0.551417,6327.853
333,0.553083,6083.399
334,0.55475,6083.399
335,0.5564170000000001,5854.145
336,0.558083,5644.485
337,0.55975,5448.014
338,0.5614170000000001,5448.014
339,0.563083,5265.102
340,0.56475,5091.95
341,0.5664169999999999,5091.95
342,0.568083,4926.547
343,0.56975,4771.203
344,0.571417,4622.563
345,0.573083,4622.563
346,0.57485,4486.441
347,0.576417,4356.354
348,0.578083,4231.259
349,0.57975,4231.259
350,0.581417,4115.328
351,0.583083,4002.452
352,0.58475,3899.038
353,0.586417,3899.038
354,0.588083,3801.286
355,0.58975,3709.942
356,0.59145,3622.323
357,0.593083,3622.323
358,0.59475,3537.014
359,0.59645,3457.293
360,0.598067,3457.293
361,0.599733,3379.285
362,0.6014,3308.952
363,0.603067,3241.301
364,0.604733,3241.301
365,0.6064000000000001,3177.598
366,0.608067,3118.59
367,0.609733,3059.73
368,0.6114000000000001,3059.73
369,0.613067,3001.243
370,0.614733,2944.618
371,0.6163999999999999,2890.974
372,0.618067,2890.974
373,0.61975,2839.491
374,0.6214,2794.266
375,0.623067,2794.266
376,0.624733,2747.029
377,0.6264,2699.867
378,0.628067,2655.163
379,0.629733,2655.163
380,0.6314,2611.503
381,0.633067,2574.474
382,0.634733,2536.401
383,0.6364,2536.401
384,0.6380670000000001,2503.022
385,0.639733,2466.44
386,0.6414,2431.199
387,0.6430670000000001,2431.199
388,0.644733,2403.855
389,0.6464,2372.116
390,0.6480669999999999,2372.116
391,0.649733,2345.219
392,0.6514,2318.546
393,0.653067,2285.54
394,0.654733,2285.54
395,0.6564,2254.695
396,0.65805,2225.116
397,0.659717,2196.059
398,0.6613830000000001,2196.059
399,0.663067,2171.621
400,0.664767,2151.057
401,0.6663829999999999,2130.792
402,0.66805,2130.792
403,0.669717,2112.761
404,0.671383,2094.582
405,0.673117,2072.156
406,0.674717,2072.156
407,0.676383,2050.549
408,0.67805,2026.334
409,0.679717,2026.334
410,0.681383,2005.845
411,0.68305,1989.677
412,0.684717,1974.702
413,0.686383,1974.702
414,0.6880500000000001,1959.13
415,0.689717,1942.515
416,0.691383,1924.261
417,0.693083,1924.261
418,0.694717,1906.38
419,0.696383,1891.926
420,0.6980499999999999,1878.068
421,0.699717,1878.068
422,0.701383,1865.327
423,0.70305,1852.512
424,0.704717,1852.512
425,0.706383,1838.878
426,0.70805,1825.69
427,0.709767,1810.417
428,0.711383,1810.417
429,0.713033,1797.08
430,0.7147,1782.626
431,0.716367,1768.619
432,0.718017,1768.619
433,0.719683,1756.4
434,0.72135,1745.373
435,0.723017,1734.793
436,0.724683,1734.793
437,0.726467,1724.884
438,0.728017,1716.39
439,0.729683,1716.39
440,0.7313499999999999,1706.928
441,0.733017,1698.881
442,0.734683,1687.333
443,0.7363499999999999,1687.333
444,0.738017,1677.647
445,0.7397,1667.887
446,0.74135,1657.307
447,0.743017,1657.307
448,0.744683,1648.366
449,0.74635,1639.277
450,0.748017,1628.995
451,0.749683,1628.995
452,0.75135,1620.874
453,0.753017,1616.552
454,0.754683,1609.996
455,0.75635,1609.996
456,0.7580170000000001,1601.726
457,0.7597,1594.871
458,0.76135,1594.871
459,0.7630169999999999,1585.484
460,0.764683,1580.79
461,0.76635,1579.002
462,0.7680169999999999,1579.002
463,0.769683,1570.582
464,0.77135,1562.387
465,0.773017,1551.36
466,0.774683,1551.36
467,0.7763330000000001,1541.078
468,0.778,1536.012
469,0.779667,1531.243
470,0.7813330000000001,1531.243
471,0.783,1524.24
472,0.784667,1517.013
473,0.7863329999999999,1517.013
474,0.788,1510.978
475,0.789667,1504.57
476,0.791333,1500.547
477,0.793,1500.547
478,0.794667,1499.727
479,0.796333,1494.735
480,0.798,1493.171
481,0.799667,1493.171
482,0.801333,1488.626
483,0.803,1480.207
484,0.804667,1477.823
485,0.806333,1477.823
486,0.8080000000000001,1473.725
487,0.809667,1473.874
488,0.811333,1471.192
489,0.8129999999999999,1471.192
490,0.814667,1466.647
491,0.816333,1461.804
492,0.8179999999999999,1461.804
493,0.819667,1454.204
494,0.821333,1451.373
495,0.823,1447.201
496,0.824667,1447.201
497,0.826333,1442.954
498,0.828017,1436.323
499,0.829667,1430.586
500,0.831333,1430.586
501,0.833,1423.731
502,0.834667,1416.653
503,0.836333,1415.312
504,0.837983,1415.312
505,0.83965,1411.512
506,0.841317,1406.297
507,0.842983,1406.297
508,0.844767,1400.188
509,0.846317,1395.419
510,0.848,1391.843
511,0.84965,1391.843
512,0.851317,1391.694
513,0.853017,1392.215
514,0.85465,1387.075
515,0.856317,1387.075
516,0.8579830000000001,1382.306
517,0.85965,1375.973
518,0.861317,1371.801
519,0.8629829999999999,1371.801
520,0.86465,1370.981
521,0.866317,1371.801
522,0.8679829999999999,1373.515
523,0.86965,1373.515
524,0.871317,1367.629
525,0.872983,1361.892
526,0.87465,1361.892
527,0.876317,1357.272
528,0.877983,1352.653
529,0.87965,1353.174
530,0.881317,1353.174
531,0.882983,1356.08
532,0.884667,1356.378
533,0.886317,1353.994
534,0.887983,1353.994
535,0.8896500000000001,1351.535
536,0.891317,1345.5
537,0.892983,1339.391
538,0.8946499999999999,1339.391
539,0.8963,1336.485
540,0.897967,1334.771
541,0.899633,1334.771
542,0.9013,1333.43
543,0.902967,1332.536
544,0.904633,1331.568
545,0.9063,1331.568
546,0.907967,1327.768
547,0.909633,1324.415
548,0.9113,1320.243
549,0.912967,1320.243
550,0.914633,1316.443
551,0.9163,1315.474
552,0.917967,1314.953
553,0.919633,1314.953
554,0.9213,1314.878
555,0.922967,1312.569
556,0.924633,1312.569
557,0.9263169999999999,1312.643
558,0.927967,1309.812
559,0.929717,1306.981
560,0.9313,1306.981
561,0.932967,1307.353
562,0.934633,1303.479
563,0.9363,1298.115
564,0.937967,1298.115
565,0.9396330000000001,1293.346
566,0.9413,1292.378
567,0.942967,1292.974
568,0.9446329999999999,1292.974
569,0.946333,1298.115
570,0.947967,1297.817
571,0.9496329999999999,1294.687
572,0.9513,1294.687
573,0.952967,1290.664
574,0.954633,1288.131
575,0.956283,1288.131
576,0.95795,1287.684
577,0.9596170000000001,1283.735
578,0.961283,1280.978
579,0.963067,1280.978
580,0.9646169999999999,1276.88
581,0.966283,1275.837
582,0.96795,1276.88
583,0.969617,1276.88
584,0.971283,1277.7
585,0.97295,1276.284
586,0.974617,1279.041
587,0.976283,1279.041
588,0.97795,1277.924
589,0.979617,1276.508
590,0.981283,1276.508
591,0.98295,1276.583
592,0.984617,1273.155
593,0.986283,1272.932
594,0.98795,1272.932
595,0.989617,1269.132
596,0.991283,1266.524
597,0.99295,1262.799
598,0.994617,1262.799
599,0.996283,1259.67
600,0.99795,1259.744
601,0.999617,1259.148
602,1.001283,1259.148
603,1.00295,1257.956
604,1.0046,1257.583
605,1.006267,1255.125
606,1.007933,1255.125
607,1.0096,1254.231
608,1.011267,1251.101
609,1.012967,1251.101
610,1.014583,1248.866
611,1.016267,1249.984
612,1.017917,1249.611
613,1.019583,1249.611
614,1.02125,1251.549
615,1.022933,1251.623
616,1.024583,1249.239
