"ID","sea_time","fid_signal"
1,0,1170.561
2,0.001667,1169.816
3,0.003333,1169.145
4,0.005,1169.145
5,0.006667,1170.412
6,0.008333,1170.859
7,0.01005,1170.859
8,0.011667,1171.753
9,0.013333,1169.518
10,0.015,1169.592
11,0.016667,1169.592
12,0.018333,1168.027
13,0.02,1166.984
14,0.021683,1167.059
15,0.023333,1167.059
16,0.025,1168.251
17,0.0267,1170.635
18,0.028333,1171.976
19,0.03,1171.976
20,0.03165,1172.2
21,0.033317,1172.423
22,0.034983,1172.423
23,0.03665,1172.945
24,0.038317,1174.51
25,0.039983,1177.117
26,0.04165,1177.117
27,0.043317,1175.925
28,0.044983,1175.404
29,0.04665,1174.137
30,0.048317,1174.137
31,0.049983,1175.255
32,0.051683,1173.541
33,0.053317,1173.541
34,0.054983,1173.541
35,0.05665,1174.212
36,0.058317,1170.486
37,0.059983,1172.125
38,0.06165,1172.125
39,0.063317,1172.423
40,0.064983,1171.008
41,0.06665,1171.008
42,0.068333,1170.933
43,0.069983,1171.827
44,0.07165000000000001,1172.572
45,0.07331699999999999,1172.572
46,0.07498299999999999,1172.721
47,0.07665,1171.678
48,0.078317,1168.4
49,0.079983,1168.4
50,0.08165,1167.208
51,0.083317,1169.22
52,0.08508300000000001,1170.561
53,0.08665,1170.561
54,0.08831700000000001,1170.039
55,0.08996700000000001,1168.922
56,0.09163300000000001,1168.922
57,0.09329999999999999,1165.941
58,0.094967,1167.729
59,0.096633,1168.549
60,0.0983,1168.549
61,0.099967,1166.612
62,0.101633,1166.537
63,0.1033,1166.165
64,0.104967,1166.165
65,0.106633,1167.208
66,0.1083,1169.071
67,0.109967,1172.647
68,0.111633,1172.647
69,0.1133,1174.063
70,0.114967,1173.913
71,0.11665,1177.49
72,0.118333,1177.49
73,0.119967,1173.69
74,0.121633,1168.326
75,0.1233,1168.326
76,0.124967,1166.239
77,0.126633,1162.514
78,0.1283,1164.228
79,0.129967,1164.228
80,0.131633,1165.569
81,0.1333,1169.443
82,0.134967,1168.996
83,0.136633,1168.996
84,0.1383,1166.239
85,0.139967,1167.059
86,0.141633,1166.09
87,0.1433,1166.09
88,0.144967,1166.686
89,0.146633,1170.412
90,0.1483,1170.412
91,0.149967,1173.541
92,0.151617,1172.274
93,0.153333,1170.412
94,0.15495,1170.412
95,0.156617,1168.847
96,0.158283,1166.91
97,0.15995,1166.388
98,0.161617,1166.388
99,0.163283,1169.741
100,0.16495,1168.624
101,0.166617,1171.157
102,0.168283,1171.157
103,0.17,1175.776
104,0.171617,1175.404
105,0.173283,1177.043
106,0.17495,1177.043
107,0.176617,1175.702
108,0.178283,1173.392
109,0.17995,1173.392
110,0.181617,1175.18
111,0.183283,1174.882
112,0.18495,1175.553
113,0.186617,1175.553
114,0.188283,1172.647
115,0.18995,1171.976
116,0.191617,1174.882
117,0.193283,1174.882
118,0.19495,1171.38
119,0.196617,1173.988
120,0.198283,1173.243
121,0.19995,1173.243
122,0.201617,1168.4
123,0.20335,1167.879
124,0.20495,1167.879
125,0.206617,1165.792
126,0.208283,1167.282
127,0.20995,1168.847
128,0.2116,1168.847
129,0.213267,1167.655
130,0.214933,1167.953
131,0.2166,1164.079
132,0.218267,1164.079
133,0.219933,1164.749
134,0.2216,1168.177
135,0.223267,1166.835
136,0.224933,1166.835
137,0.2266,1167.133
138,0.228283,1167.282
139,0.229983,1166.91
140,0.2316,1166.91
141,0.233267,1172.721
142,0.234933,1173.839
143,0.2366,1173.839
144,0.238267,1172.274
145,0.239933,1171.976
146,0.2416,1169.294
147,0.243267,1169.294
148,0.244933,1169.89
149,0.2466,1171.306
150,0.248267,1169.965
151,0.24995,1169.965
152,0.2516,1168.177
153,0.253267,1167.804
154,0.254933,1168.326
155,0.2566,1168.326
156,0.258267,1171.306
157,0.259933,1169.965
158,0.2616,1169.965
159,0.26325,1166.463
160,0.264917,1161.471
161,0.266583,1161.695
162,0.26825,1161.695
163,0.2699,1163.781
164,0.271567,1165.792
165,0.273233,1167.879
166,0.2749,1167.879
167,0.276567,1166.239
168,0.27825,1166.835
169,0.279933,1166.537
170,0.281567,1166.537
171,0.283233,1167.58
172,0.2849,1167.729
173,0.286567,1167.729
174,0.2883,1166.984
175,0.2899,1169.369
176,0.291567,1173.765
177,0.293233,1173.765
178,0.2949,1176.223
179,0.296567,1177.862
180,0.298233,1177.415
181,0.299933,1177.415
182,0.301567,1175.925
183,0.303233,1173.094
184,0.3049,1170.039
185,0.306567,1170.039
186,0.308233,1169.89
187,0.3099,1168.549
188,0.311567,1168.773
189,0.313233,1168.773
190,0.3149,1169.294
191,0.316567,1166.984
192,0.318233,1166.984
193,0.3199,1166.165
194,0.321683,1164.973
195,0.323233,1166.388
196,0.3249,1166.388
197,0.326567,1170.188
198,0.328217,1169.369
199,0.329883,1173.317
200,0.33155,1173.317
201,0.333217,1171.976
202,0.334883,1171.157
203,0.33655,1172.274
204,0.338217,1172.274
205,0.339883,1170.561
206,0.34155,1173.243
207,0.343217,1173.243
208,0.344883,1171.455
209,0.34655,1173.615
210,0.348217,1172.498
211,0.349883,1172.498
212,0.35155,1172.274
213,0.353217,1172.721
214,0.354883,1167.58
215,0.35655,1167.58
216,0.358217,1166.835
217,0.359883,1167.282
218,0.36155,1169.22
219,0.363217,1169.22
220,0.364883,1170.635
221,0.36655,1173.243
222,0.368267,1170.859
223,0.369883,1170.859
224,0.37155,1169.294
225,0.373217,1169.145
226,0.374917,1169.145
227,0.37655,1168.326
228,0.378217,1172.498
229,0.379883,1172.796
230,0.38155,1172.796
231,0.383217,1177.862
232,0.384883,1182.705
233,0.38655,1181.96
234,0.388217,1181.96
235,0.389867,1183.823
236,0.391533,1184.94
237,0.3932,1183.227
238,0.394867,1183.227
239,0.396533,1184.791
240,0.3982,1185.909
241,0.399867,1185.909
242,0.401533,1187.697
243,0.4032,1190.677
244,0.404867,1198.426
245,0.4066,1198.426
246,0.4082,1208.037
247,0.409867,1215.19
248,0.411533,1221.97
249,0.4132,1221.97
250,0.414867,1228.005
251,0.416533,1231.953
252,0.4182,1240.969
253,0.419867,1240.969
254,0.421533,1253.113
255,0.4232,1261.309
256,0.424883,1272.559
257,0.426533,1272.559
258,0.4282,1281.649
259,0.429867,1292.676
260,0.431533,1292.676
261,0.4332,1304.373
262,0.434867,1315.325
263,0.436533,1327.843
264,0.4382,1327.843
265,0.439983,1339.093
266,0.441533,1350.716
267,0.4432,1364.127
268,0.444867,1364.127
269,0.446533,1377.612
270,0.4482,1388.118
271,0.449883,1401.752
272,0.451567,1401.752
273,0.453217,1412.779
274,0.45485,1425.445
275,0.456517,1425.445
276,0.458183,1440.793
277,0.45985,1451.671
278,0.461517,1464.635
279,0.463183,1464.635
280,0.46485,1474.917
281,0.466517,1486.912
282,0.468183,1499.206
283,0.46985,1499.206
284,0.471517,1513.064
285,0.473183,1522.452
286,0.47485,1527.443
287,0.476517,1527.443
288,0.478183,1535.043
289,0.47985,1540.259
290,0.481517,1540.259
291,0.483183,1549.423
292,0.48485,1558.289
293,0.486517,1564.696
294,0.488183,1564.696
295,0.48985,1571.253
296,0.491517,1575.127
297,0.493183,1575.798
298,0.49485,1575.798
299,0.496517,1575.798
300,0.498183,1576.841
301,0.49985,1575.649
302,0.501517,1575.649
303,0.503183,1573.786
304,0.50485,1575.798
305,0.506517,1573.488
306,0.508167,1573.488
307,0.509833,1572.669
308,0.5115,1574.531
309,0.513167,1574.531
310,0.514833,1570.359
311,0.5165,1564.398
312,0.518167,1558.065
313,0.519833,1558.065
314,0.521517,1549.795
315,0.5232329999999999,1542.866
316,0.5249,1537.427
317,0.5265,1537.427
318,0.5281670000000001,1532.286
319,0.529833,1522.675
320,0.5315,1512.617
321,0.5331669999999999,1512.617
322,0.534833,1502.037
323,0.5365,1493.32
324,0.538167,1493.32
325,0.539833,1488.402
326,0.541617,1481.697
327,0.543167,1476.929
328,0.544833,1476.929
329,0.5465,1466.125
330,0.548167,1460.686
331,0.549833,1456.216
332,0.5515,1456.216
333,0.553167,1452.342
334,0.554817,1454.651
335,0.5564829999999999,1458.302
336,0.55825,1458.302
337,0.559817,1467.913
338,0.561483,1485.124
339,0.56315,1505.837
340,0.564817,1505.837
341,0.566483,1531.392
342,0.568133,1567.23
343,0.5698,1567.23
344,0.5714669999999999,1605.526
345,0.573133,1657.233
346,0.5748,1721.978
347,0.576467,1721.978
348,0.578133,1798.347
349,0.5798,1890.734
350,0.581467,1995.713
351,0.583133,1995.713
352,0.5848,2116.114
353,0.586467,2252.832
354,0.588133,2406.835
355,0.5898,2406.835
356,0.591467,2577.975
357,0.593133,2761.856
358,0.5948,2761.856
359,0.596483,2953.708
360,0.598167,3154.129
361,0.5998329999999999,3366.172
362,0.601467,3366.172
363,0.603133,3587.306
364,0.6048,3817.529
365,0.606467,4062.28
366,0.608133,4062.28
367,0.6098,4310.533
368,0.611467,4563.257
369,0.613133,4819.631
370,0.6148,4819.631
371,0.616467,5073.622
372,0.618133,5329.326
373,0.6198,5585.849
374,0.621467,5585.849
375,0.623133,5841.777
376,0.6248,6094.947
377,0.626467,6094.947
378,0.6281330000000001,6344.766
379,0.629783,6593.541
380,0.63145,6841.719
381,0.633117,6841.719
382,0.634783,7088.482
383,0.63645,7328.615
384,0.638117,7566.288
385,0.639783,7566.288
386,0.64145,7800.162
387,0.643133,8029.64
388,0.644783,8259.191999999999
389,0.64645,8259.191999999999
390,0.6481170000000001,8484.273999999999
391,0.649783,8702.129000000001
392,0.65145,8702.129000000001
393,0.6531169999999999,8911.043
394,0.654783,9114.071
395,0.65645,9312.778
396,0.658117,9312.778
397,0.659783,9505.973
398,0.66145,9702.742
399,0.663117,9892.955
400,0.664783,9892.955
401,0.66645,10073.855
402,0.668117,10252.446
403,0.669783,10420.755
404,0.67145,10420.755
405,0.67315,10587.573
406,0.674867,10753.349
407,0.67655,10914.505
408,0.678117,10914.505
409,0.679783,11072.233
410,0.68145,11226.312
411,0.683117,11226.312
412,0.684783,11369.81
413,0.68645,11509.434
414,0.688117,11644.363
415,0.689767,11644.363
416,0.691433,11774.674
417,0.693233,11900.813
418,0.694767,12025.461
419,0.696433,12025.461
420,0.6981000000000001,12144.297
421,0.699767,12257.1
422,0.701433,12373.254
423,0.7030999999999999,12373.254
424,0.704767,12481.585
425,0.706433,12587.606
426,0.7081,12587.606
427,0.709767,12691.766
428,0.711433,12786.835
429,0.7131,12879.818
430,0.714767,12879.818
431,0.716433,12968.854
432,0.7181,13054.981
433,0.719767,13142.303
434,0.721433,13142.303
435,0.7231,13221.801
436,0.7247670000000001,13299.584
437,0.726433,13373.494
438,0.7281,13373.494
439,0.7297670000000001,13440.475
440,0.731433,13507.978
441,0.7331,13507.978
442,0.7347669999999999,13574.213
443,0.736433,13639.257
444,0.7381,13703.033
445,0.739767,13703.033
446,0.741433,13761.818
447,0.7431,13817.102
448,0.7448,13864.413
449,0.746417,13864.413
450,0.7481,13911.352
451,0.74975,13957.992
452,0.751417,13999.343
453,0.7531,13999.343
454,0.7548,14038.012
455,0.756417,14068.037
456,0.758083,14096.424
457,0.75975,14096.424
458,0.761417,14125.184
459,0.763083,14150.813
460,0.76475,14150.813
461,0.766417,14173.984
462,0.768083,14188.364
463,0.76975,14192.686
464,0.771417,14192.686
465,0.773083,14189.557
466,0.77475,14179.646
467,0.776417,14163.404
468,0.778133,14163.404
469,0.7797500000000001,14135.018
470,0.781417,14089.942
471,0.783083,14028.4
472,0.7847499999999999,14028.4
473,0.786417,13943.688
474,0.788083,13838.112
475,0.78975,13838.112
476,0.791417,13709.44
477,0.793083,13543.441
478,0.7948,13343.99
479,0.796417,13343.99
480,0.798083,13102.964
481,0.79975,12818.128
482,0.801417,12494.549
483,0.803083,12494.549
484,0.80475,12132.078
485,0.8064170000000001,11738.315
486,0.808083,11328.385
487,0.809733,11328.385
488,0.8115329999999999,10912.939
489,0.813067,10498.39
490,0.814733,10094.047
491,0.8164,10094.047
492,0.818067,9698.718999999999
493,0.819733,9319.708000000001
494,0.8214,9319.708000000001
495,0.823117,8959.844999999999
496,0.824733,8623.674999999999
497,0.8264,8309.558000000001
498,0.828083,8309.558000000001
499,0.8297330000000001,8012.876
500,0.8314,7736.012
501,0.833067,7476.732
502,0.8347329999999999,7476.732
503,0.8364,7231.906
504,0.838067,7000.342
505,0.839733,6781.22
506,0.8414,6781.22
507,0.843067,6572.977
508,0.8447170000000001,6375.462
509,0.846383,6375.462
510,0.84805,6194.413
511,0.8497169999999999,6022.528
512,0.851383,5857.423
513,0.85305,5857.423
514,0.8547169999999999,5702.153
515,0.856383,5552.322
516,0.85805,5408.674
517,0.859717,5408.674
518,0.861383,5275.234
519,0.86305,5149.618
520,0.864717,5026.311
521,0.866383,5026.311
522,0.86805,4910.603
523,0.8697,4796.013
524,0.871367,4796.013
525,0.8730329999999999,4688.576
526,0.8747,4591.793
527,0.876367,4499.704
528,0.878033,4499.704
529,0.8797,4411.191
530,0.881367,4321.486
531,0.883033,4235.208
532,0.8847,4235.208
533,0.886367,4149.005
534,0.888083,4072.562
535,0.8897,4000.664
536,0.891367,4000.664
537,0.893033,3925.86
538,0.8947000000000001,3859.773
539,0.896417,3787.801
540,0.898033,3787.801
541,0.8997000000000001,3720.82
542,0.901367,3657.937
543,0.903033,3657.937
544,0.9046999999999999,3595.799
545,0.906367,3539.473
546,0.908033,3480.166
547,0.9097,3480.166
548,0.911367,3424.808
549,0.913067,3375.113
550,0.9147,3324.673
551,0.916367,3324.673
552,0.918033,3279.969
553,0.9197,3234.446
554,0.921367,3184.825
555,0.923033,3184.825
556,0.9247,3138.855
557,0.9263670000000001,3096.089
558,0.928033,3096.089
559,0.9298,3055.185
560,0.93135,3014.43
561,0.933033,2975.538
562,0.934733,2975.538
563,0.93635,2936.274
564,0.938017,2902.374
565,0.939683,2871.156
566,0.94135,2871.156
567,0.943017,2835.765
568,0.9446830000000001,2802.983
569,0.94635,2766.55
570,0.948017,2766.55
571,0.9496830000000001,2728.999
572,0.95135,2703.145
573,0.953017,2674.609
574,0.9546829999999999,2674.609
575,0.95635,2647.564
576,0.958017,2622.455
577,0.959683,2622.455
578,0.96135,2591.163
579,0.963017,2560.988
580,0.964717,2530.888
581,0.96635,2530.888
582,0.968017,2506.524
583,0.969683,2481.938
584,0.97135,2461.001
585,0.973017,2461.001
586,0.974683,2444.908
587,0.9763500000000001,2421.439
588,0.978017,2397.746
589,0.979683,2397.746
590,0.9813499999999999,2373.457
591,0.983017,2347.082
592,0.984683,2347.082
593,0.9863499999999999,2326.22
594,0.988017,2306.327
595,0.989667,2288.297
596,0.991333,2288.297
597,0.993,2272.949
598,0.994667,2254.695
599,0.996333,2236.739
600,0.998,2236.739
601,0.999667,2217.814
602,1.001333,2198.368
603,1.003017,2181.828
604,1.004667,2181.828
605,1.006333,2169.535
606,1.008,2154.335
607,1.009667,2138.391
608,1.011333,2138.391
609,1.013,2122.596
610,1.014717,2106.875
611,1.016333,2106.875
612,1.018,2093.986
613,1.0197,2079.234
614,1.021333,2067.685
615,1.023,2067.685
616,1.024667,2053.752
617,1.026333,2042.949
618,1.028,2033.636
619,1.029667,2033.636
620,1.031383,2021.417
621,1.033,2008.826
622,1.034667,1994.967
623,1.036333,1994.967
624,1.038017,1981.556
625,1.039667,1969.188
626,1.041333,1969.188
627,1.043,1959.726
628,1.044667,1946.017
629,1.046333,1935.735
630,1.0481,1935.735
631,1.049667,1923.814
632,1.051317,1911.968
633,1.052983,1900.122
634,1.05465,1900.122
635,1.056317,1888.871
636,1.057983,1880.899
637,1.05965,1873.672
638,1.061317,1873.672
639,1.062983,1868.978
640,1.06465,1861.453
641,1.066317,1861.453
642,1.067983,1850.65
643,1.06965,1839.399
644,1.071317,1828.224
645,1.072983,1828.224
646,1.07465,1818.538
647,1.076317,1808.628
648,1.077983,1801.476
649,1.07965,1801.476
650,1.081317,1795.664
651,1.082983,1786.351
652,1.08465,1780.689
653,1.086317,1780.689
654,1.087983,1773.685
655,1.08965,1766.16
656,1.091317,1762.062
657,1.092983,1762.062
658,1.09465,1754.91
659,1.096317,1746.118
660,1.097983,1746.118
661,1.09965,1736.954
662,1.101317,1729.503
663,1.102983,1722.574
664,1.104667,1722.574
665,1.1063,1716.837
666,1.107967,1709.908
667,1.109667,1705.363
668,1.11135,1705.363
669,1.112967,1701.191
670,1.114633,1695.082
671,1.1163,1692.697
672,1.117967,1692.697
673,1.119633,1681.82
674,1.1213,1671.24
675,1.122967,1671.24
676,1.124633,1663.938
677,1.1263,1655.668
678,1.127967,1652.762
679,1.129633,1652.762
680,1.1313,1648.963
681,1.133033,1644.269
682,1.134633,1640.916
683,1.136283,1640.916
684,1.13795,1636.073
685,1.139617,1633.167
686,1.141283,1628.399
687,1.14295,1628.399
688,1.144617,1617.894
689,1.146283,1611.039
690,1.14795,1606.792
691,1.149617,1606.792
692,1.151283,1601.949
693,1.15295,1602.173
694,1.154617,1602.173
695,1.156283,1597.926
696,1.15795,1592.04
697,1.159617,1587.793
698,1.161283,1587.793
699,1.16295,1581.237
700,1.164617,1574.01
701,1.1664,1571.104
702,1.16795,1571.104
703,1.1696,1565.889
704,1.171267,1563.877
705,1.172933,1562.238
706,1.1746,1562.238
707,1.176267,1558.661
708,1.17795,1555.607
709,1.1796,1555.607
710,1.181267,1551.211
711,1.182933,1549.125
712,1.1846,1543.239
713,1.186317,1543.239
714,1.188033,1539.066
715,1.1896,1535.639
716,1.191267,1530.945
717,1.192933,1530.945
718,1.1946,1528.263
719,1.196267,1524.985
720,1.197933,1519.546
721,1.1996,1519.546
722,1.201267,1515.448
723,1.202933,1507.252
724,1.2046,1504.868
725,1.206267,1504.868
726,1.207933,1506.135
727,1.2096,1505.464
728,1.211267,1505.464
729,1.212933,1506.507
730,1.2146,1502.112
731,1.216267,1497.641
732,1.217933,1497.641
733,1.2196,1492.575
734,1.221267,1490.116
735,1.222933,1485.72
736,1.2246,1485.72
737,1.226267,1479.462
738,1.227917,1479.611
739,1.229583,1474.768
740,1.23125,1474.768
741,1.232917,1470.447
742,1.234583,1469.702
743,1.23625,1469.702
744,1.237917,1467.317
745,1.239583,1467.466
746,1.24125,1468.584
747,1.242917,1468.584
748,1.244583,1467.839
749,1.24625,1462.027
750,1.247917,1456.439
751,1.249583,1456.439
752,1.2513,1456.141
753,1.252933,1455.024
754,1.254583,1452.491
755,1.25625,1452.491
756,1.257917,1451.969
757,1.259583,1449.212
758,1.26125,1449.212
759,1.262917,1445.264
760,1.264583,1444.519
761,1.26625,1443.699
762,1.267917,1443.699
763,1.269583,1441.389
764,1.27125,1436.919
765,1.272917,1432.598
766,1.274583,1432.598
767,1.27625,1430.064
768,1.277917,1424.551
769,1.279583,1422.39
770,1.28125,1422.39
771,1.282917,1423.88
772,1.284683,1417.697
773,1.28625,1414.195
774,1.287917,1414.195
775,1.289567,1412.109
776,1.291233,1407.042
777,1.2929,1407.042
778,1.294567,1407.638
779,1.296233,1407.638
780,1.2979,1404.881
781,1.299567,1404.881
782,1.301233,1401.007
783,1.3029,1397.505
784,1.304567,1393.035
785,1.306233,1393.035
786,1.3079,1391.545
787,1.309567,1391.396
788,1.311233,1391.545
789,1.3129,1391.545
790,1.314567,1392.365
791,1.316233,1390.725
792,1.3179,1390.725
793,1.319567,1388.192
794,1.321233,1386.181
795,1.3229,1385.51
796,1.324567,1385.51
797,1.326233,1382.083
798,1.327917,1379.401
799,1.329617,1379.028
800,1.331233,1379.028
801,1.3329,1379.698
802,1.334567,1379.475
803,1.336233,1380.071
804,1.3379,1380.071
805,1.339567,1375.228
806,1.341233,1373.291
807,1.3429,1373.217
808,1.344567,1373.217
809,1.346233,1372.546
810,1.347883,1372.77
811,1.34955,1372.77
812,1.351217,1366.511
813,1.352883,1364.425
814,1.35455,1360.625
815,1.356217,1360.625
816,1.357883,1358.166
817,1.35955,1360.104
818,1.361217,1357.347
819,1.362883,1357.347
820,1.36455,1356.155
821,1.366217,1356.825
822,1.367883,1352.504
823,1.369567,1352.504
824,1.371217,1351.386
825,1.372883,1351.237
826,1.37455,1351.237
827,1.376217,1349.524
828,1.377883,1349.3
829,1.37955,1348.853
830,1.381217,1348.853
831,1.382883,1346.692
832,1.38455,1342.893
833,1.386283,1340.359
834,1.387883,1340.359
835,1.38955,1339.242
836,1.391217,1337.826
837,1.392883,1337.901
838,1.39455,1337.901
839,1.396217,1338.571
840,1.397883,1337.528
841,1.39955,1336.858
842,1.401217,1336.858
843,1.402933,1335.368
844,1.4046,1333.132
845,1.406217,1333.132
846,1.407867,1333.803
847,1.409533,1333.952
848,1.4112,1332.76
849,1.412867,1332.76
850,1.414533,1329.407
851,1.4162,1326.203
852,1.417867,1322.478
853,1.419533,1322.478
854,1.4212,1323.149
855,1.422867,1324.043
856,1.424533,1322.18
857,1.4262,1322.18
858,1.42785,1320.69
859,1.429517,1320.392
860,1.431183,1320.392
861,1.43285,1321.137
862,1.434517,1322.851
863,1.436183,1325.607
864,1.43785,1325.607
865,1.439517,1325.533
866,1.441183,1322.925
867,1.44285,1320.988
868,1.444517,1320.988
869,1.446183,1318.008
870,1.44785,1313.314
871,1.449517,1312.271
872,1.451183,1312.271
873,1.45285,1307.949
874,1.454517,1306.534
875,1.456183,1306.534
876,1.45785,1303.479
877,1.459517,1303.852
878,1.461183,1305.044
879,1.46285,1305.044
880,1.464517,1305.267
881,1.466183,1305.64
882,1.467833,1305.118
883,1.4695,1305.118
884,1.471167,1306.012
885,1.472833,1304.373
886,1.474533,1304.299
887,1.476167,1304.299
888,1.477833,1300.201
889,1.4795,1293.793
890,1.4812,1292.229
891,1.482833,1292.229
892,1.4845,1290.143
893,1.486167,1292.378
894,1.487867,1292.378
895,1.4895,1294.762
896,1.491167,1296.923
897,1.492833,1297.519
898,1.4945,1297.519
899,1.496167,1297.295
900,1.497833,1299.53
901,1.4995,1295.06
902,1.501167,1295.06
903,1.502833,1294.538
904,1.504583,1291.707
905,1.506167,1289.472
906,1.507833,1289.472
907,1.5095,1286.715
908,1.511167,1285.225
909,1.512833,1285.225
