"ID","sea_time","fid_signal"
1,0,140.846
2,0.001667,140.719
3,0.003333,140.719
4,0.005,140.965
5,0.006667,140.637
6,0.008333,140.198
7,0.01,140.198
8,0.0117,139.974
9,0.013333,139.706
10,0.015,139.542
11,0.016667,139.542
12,0.018333,139.631
13,0.02,139.996
14,0.021667,139.996
15,0.023333,140.361
16,0.025,140.578
17,0.02665,140.816
18,0.028383,140.816
19,0.029983,140.876
20,0.03165,140.764
21,0.033317,140.615
22,0.034983,140.615
23,0.03665,140.443
24,0.038317,140.16
25,0.039983,140.28
26,0.04165,140.28
27,0.043317,140.257
28,0.045067,140.175
29,0.04665,140.563
30,0.048317,140.563
31,0.049983,140.51
32,0.05165,140.451
33,0.053317,140.451
34,0.054983,140.518
35,0.05665,140.384
36,0.058317,140.28
37,0.059983,140.28
38,0.061767,140.451
39,0.063317,140.25
40,0.064983,140.354
41,0.06665,140.354
42,0.068317,140.615
43,0.069983,140.764
44,0.07166699999999999,140.697
45,0.07331699999999999,140.697
46,0.07498299999999999,140.436
47,0.07665,140.056
48,0.078317,140.056
49,0.079983,139.765
50,0.08165,139.788
51,0.083317,139.765
52,0.084967,139.765
53,0.086633,139.996
54,0.0883,140.265
55,0.08996700000000001,140.607
56,0.09163300000000001,140.607
57,0.09329999999999999,140.734
58,0.094967,140.585
59,0.096633,140.503
60,0.0983,140.503
61,0.099967,140.391
62,0.101633,140.361
63,0.1033,140.421
64,0.104967,140.421
65,0.106633,140.198
66,0.1083,140.332
67,0.109967,140.332
68,0.111633,140.458
69,0.1133,140.734
70,0.114967,141.002
71,0.116633,141.002
72,0.1183,141.062
73,0.119967,140.958
74,0.12165,140.779
75,0.123333,140.779
76,0.124967,140.488
77,0.126633,140.376
78,0.1283,140.406
79,0.129967,140.406
80,0.131633,140.28
81,0.1333,140.57
82,0.134967,140.57
83,0.136633,140.496
84,0.1383,140.25
85,0.14,140.272
86,0.141633,140.272
87,0.1433,140.16
88,0.144967,140.145
89,0.146633,140.645
90,0.148283,140.645
91,0.14995,140.518
92,0.151617,140.458
93,0.153283,140.25
94,0.15495,140.25
95,0.156617,139.825
96,0.158283,140.086
97,0.15995,140.078
98,0.161617,140.078
99,0.163283,140.063
100,0.16495,140.302
101,0.166617,140.302
102,0.168283,140.339
103,0.16995,140.563
104,0.171617,140.868
105,0.173283,140.868
106,0.17495,140.764
107,0.176617,140.436
108,0.178283,140.51
109,0.179983,140.51
110,0.181617,140.63
111,0.183283,140.57
112,0.18495,140.764
113,0.186617,140.764
114,0.188283,140.704
115,0.18995,140.667
116,0.191617,140.667
117,0.193283,140.89
118,0.19495,140.801
119,0.196617,140.801
120,0.198283,140.801
121,0.19995,140.66
122,0.201617,140.667
123,0.203283,140.816
124,0.204933,140.816
125,0.2066,140.652
126,0.208267,140.384
127,0.209933,140.361
128,0.2116,140.361
129,0.213283,140.332
130,0.214967,140.257
131,0.216617,140.391
132,0.218267,140.391
133,0.219933,140.19
134,0.2216,140.019
135,0.223267,140.019
136,0.224933,140.257
137,0.2266,140.488
138,0.228267,140.92
139,0.229933,140.92
140,0.2316,141.099
141,0.233267,141.069
142,0.234933,140.786
143,0.2366,140.786
144,0.238267,140.309
145,0.239933,140.004
146,0.2416,139.78
147,0.243267,139.78
148,0.244933,140.049
149,0.2466,140.16
150,0.248267,140.16
151,0.249933,140.257
152,0.2516,140.443
153,0.253267,140.488
154,0.254933,140.488
155,0.2566,140.518
156,0.258267,140.592
157,0.259933,140.66
158,0.261583,140.66
159,0.26325,140.496
160,0.264967,140.704
161,0.266567,141.039
162,0.268233,141.039
163,0.2699,140.987
164,0.271567,141.241
165,0.273233,141.241
166,0.2749,141.047
167,0.276567,140.823
168,0.278233,140.816
169,0.2799,140.816
170,0.281633,140.645
171,0.283233,140.451
172,0.2849,140.607
173,0.2866,140.607
174,0.2883,140.488
175,0.2899,140.332
176,0.291567,140.57
177,0.293233,140.57
178,0.2949,140.093
179,0.296567,140.22
180,0.29835,140.384
181,0.2999,140.384
182,0.301567,140.175
183,0.303233,140.451
184,0.3049,140.451
185,0.306567,140.51
186,0.308233,140.607
187,0.3099,140.838
188,0.311567,140.838
189,0.313233,140.92
190,0.3149,140.548
191,0.316567,140.54
192,0.318233,140.54
193,0.3199,140.57
194,0.321567,140.525
195,0.323233,140.496
196,0.3249,140.496
197,0.32655,140.324
198,0.328217,140.265
199,0.329883,140.265
200,0.33155,140.198
201,0.333217,140.682
202,0.334883,140.741
203,0.33655,140.741
204,0.338217,140.816
205,0.339883,140.898
206,0.34155,140.734
207,0.343217,140.734
208,0.344883,140.779
209,0.34655,140.98
210,0.348217,141.561
211,0.349883,141.561
212,0.35155,142.582
213,0.353217,144.325
214,0.354883,146.292
215,0.356583,146.292
216,0.358217,148.81
217,0.359883,152.156
218,0.361583,152.156
219,0.363217,155.739
220,0.364883,160.538
221,0.36655,166.014
222,0.368217,166.014
223,0.369883,172.354
224,0.371567,179.946
225,0.373217,188.477
226,0.374883,188.477
227,0.37655,197.873
228,0.378217,207.826
229,0.379883,218.496
230,0.38155,218.496
231,0.383267,229.523
232,0.384883,241.302
233,0.386533,241.302
234,0.3882,253.774
235,0.389867,266.91
236,0.391533,280.596
237,0.3932,280.596
238,0.394867,294.812
239,0.396533,309.557
240,0.3982,324.965
241,0.399867,324.965
242,0.401533,340.7
243,0.4032,357.248
244,0.404867,374.749
245,0.406533,374.749
246,0.4082,392.81
247,0.409867,412.099
248,0.411533,412.099
249,0.4132,432.32
250,0.414867,453.502
251,0.416617,475.623
252,0.4182,475.623
253,0.419867,498.98
254,0.421533,523.232
255,0.4232,548.795
256,0.424867,548.795
257,0.426533,576.228
258,0.4282,604.816
259,0.429867,635.013
260,0.431533,635.013
261,0.4332,667.05
262,0.434867,700.548
263,0.436567,736.52
264,0.4382,736.52
265,0.439867,775.389
266,0.441533,816.3819999999999
267,0.443183,816.3819999999999
268,0.44485,860.579
269,0.446517,907.876
270,0.448183,958.554
271,0.449867,958.554
272,0.45155,1013.927
273,0.453183,1073.651
274,0.45485,1138.456
275,0.456517,1138.456
276,0.458183,1208.417
277,0.45985,1283.31
278,0.461517,1363.404
279,0.463183,1363.404
280,0.46485,1447.827
281,0.466517,1535.878
282,0.468183,1535.878
283,0.46985,1625.97
284,0.471517,1716.673
285,0.473183,1806.177
286,0.47485,1806.177
287,0.476517,1892.5
288,0.478183,1973.644
289,0.47985,2047.665
290,0.481517,2047.665
291,0.483183,2112.739
292,0.48485,2167.381
293,0.486517,2210.885
294,0.488183,2210.885
295,0.48985,2241.828
296,0.491517,2259.955
297,0.493183,2265.081
298,0.49485,2265.081
299,0.496517,2257.496
300,0.498183,2238.564
301,0.49985,2238.564
302,0.501567,2209.067
303,0.503183,2170.146
304,0.504867,2123.013
305,0.5065,2123.013
306,0.508167,2068.84
307,0.509833,2009.086
308,0.5115,1945.429
309,0.513167,1945.429
310,0.514833,1878.954
311,0.5165,1810.916
312,0.518167,1742.147
313,0.519833,1742.147
314,0.5215,1673.46
315,0.523167,1605.503
316,0.524833,1605.503
317,0.5265,1538.739
318,0.5281670000000001,1474.03
319,0.529833,1411.349
320,0.5315,1411.349
321,0.5331669999999999,1351.006
322,0.534867,1293.533
323,0.5365,1238.667
324,0.538167,1238.667
325,0.539833,1186.475
326,0.5415,1137.614
327,0.543167,1091.19
328,0.544833,1091.19
329,0.5465,1047.313
330,0.548167,1005.866
331,0.549833,966.564
332,0.5514829999999999,966.564
333,0.55315,929.706
334,0.554817,895.254
335,0.5564829999999999,895.254
336,0.55815,862.889
337,0.559817,832.155
338,0.561483,803.523
339,0.56315,803.523
340,0.5648,776.216
341,0.5664670000000001,750.5119999999999
342,0.568133,726.424
343,0.5698,726.424
344,0.5714669999999999,703.1559999999999
345,0.573133,681.415
346,0.5748,661.068
347,0.576467,661.068
348,0.5781500000000001,641.897
349,0.5798,624.016
350,0.581467,624.016
351,0.583133,607.021
352,0.5848,590.675
353,0.586467,575.081
354,0.588133,575.081
355,0.5898,560.351
356,0.591467,546.254
357,0.593133,533.044
358,0.5948,533.044
359,0.596467,520.386
360,0.598133,508.204
361,0.5998,496.574
362,0.601467,496.574
363,0.603133,485.204
364,0.6048,474.706
365,0.606467,474.706
366,0.608133,464.693
367,0.6098,455.134
368,0.611467,446.215
369,0.613133,446.215
370,0.6148169999999999,437.14
371,0.616467,428.423
372,0.618133,420.153
373,0.6198669999999999,420.153
374,0.621467,412.188
375,0.623133,404.73
376,0.6248,397.347
377,0.62645,397.347
378,0.628117,390.619
379,0.629783,384.189
380,0.63145,377.879
381,0.633117,377.879
382,0.634783,371.613
383,0.6365,365.354
384,0.638117,365.354
385,0.639783,359.632
386,0.64145,354.365
387,0.643117,349.469
388,0.644783,349.469
389,0.64645,344.53
390,0.64815,339.314
391,0.649783,334.501
392,0.65145,334.501
393,0.653233,329.621
394,0.654783,325.091
395,0.65645,320.978
396,0.658117,320.978
397,0.659783,316.724
398,0.66145,312.88
399,0.663117,312.88
400,0.664783,309.065
401,0.66645,305.191
402,0.668117,301.421
403,0.669783,301.421
404,0.67145,297.956
405,0.673117,294.425
406,0.674783,291.184
407,0.67645,291.184
408,0.678117,288.144
409,0.679783,285.238
410,0.68145,282.615
411,0.683117,282.615
412,0.684767,279.963
413,0.686433,277.027
414,0.6881,274.092
415,0.689767,274.092
416,0.691433,271.201
417,0.6931,268.132
418,0.694767,268.132
419,0.696433,265.77
420,0.6981000000000001,263.095
421,0.699767,260.733
422,0.701433,260.733
423,0.7030999999999999,258.55
424,0.704767,256.009
425,0.706433,253.953
426,0.7081,253.953
427,0.7098,251.725
428,0.711433,249.788
429,0.7131,247.993
430,0.714767,247.993
431,0.716433,246.033
432,0.7181,244.096
433,0.7198,244.096
434,0.721433,242.107
435,0.7231,240.155
436,0.7247670000000001,238.352
437,0.726433,238.352
438,0.7281,236.861
439,0.7297670000000001,235.103
440,0.731433,233.509
441,0.7331,233.509
442,0.7347669999999999,231.937
443,0.736433,230.171
444,0.7381,228.725
445,0.739767,228.725
446,0.741433,227.28
447,0.7431,225.79
448,0.74475,224.71
449,0.746417,224.71
450,0.7480830000000001,223.57
451,0.74975,222.199
452,0.751417,222.199
453,0.7530829999999999,221.021
454,0.75485,219.33
455,0.756417,217.609
456,0.758083,217.609
457,0.75975,216.35
458,0.761417,215.121
459,0.763083,214.003
460,0.76475,214.003
461,0.766417,213.057
462,0.768083,212.021
463,0.76975,210.747
464,0.771483,210.747
465,0.773083,209.682
466,0.774767,208.445
467,0.776417,208.445
468,0.778083,206.999
469,0.7797500000000001,205.763
470,0.781417,204.355
471,0.783083,204.355
472,0.7847499999999999,203.356
473,0.786417,202.686
474,0.7882,201.851
475,0.78975,201.851
476,0.791417,201.255
477,0.793083,200.316
478,0.79475,199.34
479,0.796467,199.34
480,0.7981,198.349
481,0.79975,197.537
482,0.801417,197.537
483,0.803083,196.651
484,0.804733,195.615
485,0.8064,194.676
486,0.808067,194.676
487,0.809733,193.506
488,0.8114,193.164
489,0.813067,192.724
490,0.814733,192.724
491,0.8164,192.322
492,0.818067,191.994
493,0.819733,191.167
494,0.8214,191.167
495,0.823067,190.184
496,0.824733,189.014
497,0.8264,188.09
498,0.828067,188.09
499,0.8297330000000001,187.114
500,0.8314,186.346
501,0.833067,186.346
502,0.8347329999999999,186.153
503,0.8364,185.579
504,0.838067,184.976
505,0.839733,184.976
506,0.8414,184.372
507,0.84305,183.716
508,0.8447170000000001,183.009
509,0.846383,183.009
510,0.84805,182.48
511,0.8497169999999999,181.973
512,0.851383,181.317
513,0.85305,181.317
514,0.8547169999999999,180.915
515,0.856433,180.244
516,0.85805,180.244
517,0.859717,179.969
518,0.8614000000000001,179.373
519,0.8631,178.747
520,0.86475,178.747
521,0.866367,178.263
522,0.8680330000000001,177.458
523,0.8697,177.152
524,0.871367,177.152
525,0.8730830000000001,176.877
526,0.8747,176.191
527,0.876367,175.871
528,0.878033,175.871
529,0.8797,175.044
530,0.881367,174.142
531,0.883033,173.777
532,0.8847,173.777
533,0.886367,173.442
534,0.888033,173.487
535,0.88975,173.487
536,0.891367,173.166
537,0.893033,172.988
538,0.8947000000000001,172.354
539,0.896367,172.354
540,0.898033,171.602
541,0.8997000000000001,171.14
542,0.901367,170.484
543,0.903033,170.484
544,0.9046999999999999,169.97
545,0.90645,169.881
546,0.908033,169.814
547,0.9097,169.814
548,0.911367,169.598
549,0.913033,169.262
550,0.9147,169.262
551,0.916367,168.689
552,0.918033,167.966
553,0.9197,167.75
554,0.921367,167.75
555,0.923033,167.534
556,0.924683,167.035
557,0.92635,166.915
558,0.928017,166.915
559,0.929683,166.275
560,0.93135,165.641
561,0.933017,165.388
562,0.934683,165.388
563,0.93635,164.881
564,0.9380500000000001,164.576
565,0.939683,164.457
566,0.94135,164.457
567,0.943017,164.069
568,0.9446830000000001,163.808
569,0.94635,163.808
570,0.948017,163.615
571,0.9497,163.496
572,0.951367,163.577
573,0.95305,163.577
574,0.9546829999999999,163.183
575,0.95635,163.212
576,0.958017,162.989
577,0.959683,162.989
578,0.96135,162.333
579,0.963017,162.274
580,0.964683,161.946
581,0.96635,161.946
582,0.968017,161.529
583,0.969683,161.581
584,0.97135,161.581
585,0.973017,161.476
586,0.974683,161.327
587,0.9763500000000001,161.052
588,0.978017,161.052
589,0.979683,160.642
590,0.9813499999999999,160.597
591,0.983017,160.165
592,0.984667,160.165
593,0.986333,159.934
594,0.988,159.733
595,0.989667,159.264
596,0.99135,159.264
597,0.993,158.906
598,0.994667,158.831
599,0.996333,158.831
600,0.998,158.66
601,0.999667,158.362
602,1.001333,158.176
603,1.003,158.176
604,1.004667,157.915
605,1.006333,157.759
606,1.00805,157.632
607,1.009683,157.632
608,1.011333,157.312
609,1.013,156.932
610,1.014667,156.507
611,1.016333,156.507
612,1.018,156.067
613,1.019667,156.03
614,1.021333,156.052
615,1.023,156.052
616,1.024717,156.052
617,1.026333,156.112
618,1.028,156.112
619,1.029667,156.038
620,1.031333,155.851
621,1.033,155.546
622,1.034667,155.546
623,1.036333,155.3
624,1.038,154.868
625,1.039667,154.749
626,1.04135,154.749
627,1.043,154.786
628,1.04465,154.719
629,1.046317,155.181
630,1.047983,155.181
631,1.04965,154.868
632,1.051317,154.696
633,1.052983,154.696
634,1.05465,154.503
635,1.056317,153.996
636,1.057983,154.197
637,1.05965,154.197
638,1.061317,154.167
639,1.062983,154.145
640,1.06465,154.093
641,1.066317,154.093
642,1.067983,153.981
643,1.06965,153.877
644,1.071317,153.549
645,1.072983,153.549
646,1.07465,153.534
647,1.076317,153.199
648,1.077983,152.871
649,1.07965,152.871
650,1.081317,152.789
651,1.083033,152.454
652,1.08465,152.454
653,1.086317,152.282
654,1.087983,152.305
655,1.08965,152.573
656,1.091317,152.573
657,1.092983,152.215
658,1.09465,152.148
659,1.096317,151.783
660,1.097983,151.783
661,1.09965,151.321
662,1.101317,151.172
663,1.102983,151.113
664,1.104633,151.113
665,1.1063,150.904
666,1.107967,150.74
667,1.109733,150.844
668,1.1113,150.844
669,1.112967,150.695
670,1.114633,150.867
671,1.1163,150.867
672,1.117967,150.867
673,1.119633,150.755
674,1.1213,150.666
675,1.122967,150.666
676,1.124667,150.532
677,1.1263,150.174
678,1.127967,150.196
679,1.129633,150.196
680,1.1313,150.01
681,1.132967,149.995
682,1.134617,150.45
683,1.136283,150.45
684,1.13795,150.427
685,1.139617,150.479
686,1.141283,150.479
687,1.143067,150.345
688,1.144617,149.913
689,1.146283,149.57
690,1.14795,149.57
691,1.149617,149.354
692,1.151283,149.041
693,1.15295,148.967
694,1.154617,148.967
695,1.156283,148.93
696,1.15795,148.84
697,1.159617,149.138
698,1.1613,149.138
699,1.16295,149.228
700,1.1646,149.295
701,1.166267,149.295
702,1.167933,149.198
703,1.1696,148.647
704,1.171267,148.572
705,1.172933,148.572
706,1.1746,148.281
707,1.176267,148.349
708,1.177933,148.617
709,1.1796,148.617
710,1.181267,148.423
711,1.182933,148.311
712,1.1846,148.393
713,1.186267,148.393
714,1.187933,148.386
715,1.1896,148.319
716,1.191267,148.319
717,1.192933,148.371
718,1.1946,148.267
719,1.196267,148.103
720,1.197933,148.103
721,1.1996,148.296
722,1.201267,148.408
723,1.202933,148.468
724,1.2046,148.468
725,1.206317,148.632
726,1.207933,148.52
727,1.2096,148.304
728,1.211267,148.304
729,1.212933,147.887
730,1.2146,147.425
731,1.216267,146.955
732,1.217933,146.955
733,1.2196,146.896
734,1.221267,146.762
735,1.222933,146.762
736,1.224583,146.955
737,1.22625,147.156
738,1.227933,147.142
739,1.229633,147.142
740,1.23125,147.045
741,1.232917,147.119
742,1.234583,147.171
743,1.23625,147.171
744,1.237917,146.918
745,1.239583,146.866
746,1.24125,146.732
747,1.242917,146.732
748,1.244583,146.471
749,1.24625,146.545
750,1.247917,146.545
751,1.249583,146.545
752,1.25125,146.419
753,1.252917,146.545
754,1.254583,146.545
755,1.25625,146.553
756,1.257917,146.516
757,1.259583,146.441
758,1.261367,146.441
759,1.262917,146.061
760,1.264583,145.89
761,1.26625,145.748
762,1.267917,145.748
763,1.269583,145.763
764,1.27125,145.8
765,1.272917,145.972
766,1.274583,145.972
767,1.27625,146.031
768,1.277917,146.039
769,1.279583,146.039
770,1.28125,146.307
771,1.282917,146.136
772,1.284567,146.173
773,1.286233,146.173
774,1.2879,146.188
775,1.289567,146.084
776,1.291233,146.255
777,1.2929,146.255
778,1.294567,146.046
779,1.296233,145.666
780,1.2979,145.331
781,1.2996,145.331
782,1.301233,145.175
783,1.3029,145.331
784,1.3046,145.331
785,1.306233,145.569
786,1.3079,145.637
787,1.309567,145.607
788,1.311233,145.607
789,1.3129,145.54
790,1.314567,145.271
791,1.316233,145.562
792,1.3179,145.562
793,1.319567,145.689
794,1.321233,145.614
795,1.3229,145.733
796,1.324567,145.733
797,1.326233,145.51
798,1.3279,145.279
799,1.329567,145.383
800,1.331233,145.383
801,1.3329,145.391
802,1.334567,145.122
803,1.336233,145.122
804,1.3379,145.137
805,1.339567,144.884
806,1.341233,144.891
807,1.3429,144.891
808,1.34455,144.906
809,1.3463,144.847
810,1.347883,145.026
811,1.34955,145.026
812,1.351217,144.713
813,1.3529,144.921
814,1.35455,144.996
815,1.356217,144.996
816,1.357883,144.675
817,1.35955,144.951
818,1.361217,144.951
819,1.362883,144.809
820,1.36455,144.601
821,1.366217,144.824
822,1.367883,144.824
823,1.36955,144.392
824,1.371217,144.355
825,1.372883,144.437
826,1.37455,144.437
827,1.376217,144.646
828,1.377883,144.854
829,1.379633,144.862
830,1.381217,144.862
831,1.382883,144.698
832,1.38455,144.459
833,1.386217,144.526
834,1.387883,144.526
835,1.38955,144.318
836,1.391217,144.251
837,1.392883,144.251
838,1.39455,144.169
839,1.396217,143.975
840,1.397883,144.05
841,1.39955,144.05
842,1.401217,144.31
843,1.402883,144.303
844,1.40455,144.489
845,1.4062,144.489
846,1.407867,144.541
847,1.409533,144.474
848,1.4112,144.526
849,1.412867,144.526
850,1.414533,144.318
851,1.4162,144.199
852,1.417867,144.199
853,1.419533,143.886
854,1.4212,143.744
855,1.422867,143.96
856,1.424533,143.96
857,1.426183,143.796
858,1.42785,143.893
859,1.429517,143.915
860,1.431183,143.915
861,1.43285,143.982
862,1.434517,144.169
863,1.436183,144.377
864,1.43785,144.377
865,1.439517,144.482
866,1.441183,144.482
867,1.44285,144.482
868,1.444517,144.362
869,1.446183,144.005
870,1.44785,143.722
871,1.449517,143.722
872,1.4512,143.58
873,1.4529,143.781
874,1.454517,143.848
875,1.456183,143.848
876,1.45785,143.953
877,1.459517,143.632
878,1.461183,143.29
879,1.46285,143.29
880,1.464567,143.461
881,1.466167,143.737
882,1.467833,143.886
883,1.4695,143.886
884,1.471167,144.243
885,1.472833,144.452
886,1.4745,144.452
887,1.476167,144.102
888,1.477833,144.385
889,1.4795,144.511
890,1.481167,144.511
891,1.482833,144.251
892,1.4845,144.437
893,1.486167,144.348
894,1.487833,144.348
895,1.4895,143.997
896,1.491167,144.057
897,1.492833,144.117
898,1.4945,144.117
899,1.496167,143.878
900,1.497967,143.856
901,1.4995,143.856
902,1.501167,143.707
903,1.502833,143.431
904,1.5045,143.334
905,1.506167,143.334
906,1.507833,143.446
907,1.5095,143.372
908,1.511167,143.349
909,1.512833,143.349
910,1.5145,143.394
911,1.516167,143.23
912,1.517833,143.55
913,1.5195,143.55
914,1.521167,143.67
915,1.522833,143.901
916,1.524483,144.027
917,1.52615,144.027
918,1.527833,143.677
919,1.5295,143.714
920,1.531217,143.714
921,1.532833,143.677
922,1.534483,143.819
923,1.53615,143.759
924,1.537817,143.759
925,1.539483,143.833
926,1.54115,143.64
927,1.542817,143.386
928,1.544483,143.386
929,1.54615,143.424
930,1.547817,143.155
931,1.549483,143.193
932,1.55115,143.193
933,1.552817,143.029
934,1.554483,142.984
935,1.55615,142.984
936,1.557817,142.924
937,1.559483,143.118
938,1.56115,143.237
939,1.562817,143.237
940,1.564483,143.55
941,1.56615,143.848
942,1.567817,143.595
943,1.569483,143.595
944,1.57115,143.841
945,1.572817,143.923
946,1.574483,143.573
947,1.57615,143.573
948,1.577817,143.55
949,1.579483,143.513
950,1.58115,143.513
951,1.5828,143.111
952,1.584467,143.521
953,1.586133,143.61
954,1.5878,143.61
955,1.589467,143.744
956,1.591133,143.871
957,1.5928,143.461
958,1.594467,143.461
959,1.596133,143.051
960,1.597867,142.619
961,1.599533,142.351
962,1.601133,142.351
