"ID","sea_time","fid_signal"
1,0,38.59
2,0.001667,38.603
3,0.003333,38.611
4,0.005,38.604
5,0.006667,38.604
6,0.008333,38.536
7,0.01,38.384
8,0.011667,38.164
9,0.013333,38.164
10,0.015,38.006
11,0.016667,37.975
12,0.018333,37.975
13,0.020033,38.076
14,0.021667,38.228
15,0.023333,38.31
16,0.025,38.31
17,0.026667,38.293
18,0.028333,38.252
19,0.03,38.221
20,0.031667,38.221
21,0.033333,38.229
22,0.035,38.27
23,0.036667,38.304
24,0.038333,38.304
25,0.040033,38.335
26,0.041667,38.33
27,0.043333,38.33
28,0.044983,38.292
29,0.04665,38.268
30,0.048317,38.27
31,0.049983,38.27
32,0.05165,38.27
33,0.053317,38.28
34,0.054983,38.301
35,0.05665,38.301
36,0.058333,38.286
37,0.059983,38.281
38,0.06165,38.309
39,0.063317,38.309
40,0.064983,38.306
41,0.06665,38.317
42,0.068317,38.324
43,0.069983,38.324
44,0.07165000000000001,38.289
45,0.07331699999999999,38.294
46,0.07498299999999999,38.294
47,0.07665,38.315
48,0.078317,38.332
49,0.079983,38.341
50,0.081717,38.341
51,0.083317,38.337
52,0.084983,38.324
53,0.08665,38.307
54,0.08831700000000001,38.307
55,0.08998299999999999,38.303
56,0.09165,38.306
57,0.093317,38.338
58,0.094983,38.338
59,0.09665,38.362
60,0.098367,38.382
61,0.1,38.382
62,0.101683,38.359
63,0.1033,38.347
64,0.104967,38.352
65,0.106633,38.352
66,0.1083,38.359
67,0.109983,38.366
68,0.1117,38.35
69,0.1133,38.35
70,0.115083,38.341
71,0.116633,38.327
72,0.1183,38.327
73,0.119967,38.327
74,0.121633,38.33
75,0.1233,38.329
76,0.124967,38.329
77,0.126633,38.339
78,0.1283,38.33
79,0.129967,38.3
80,0.131633,38.3
81,0.1333,38.292
82,0.134967,38.293
83,0.136633,38.292
84,0.1383,38.292
85,0.139967,38.297
86,0.141633,38.297
87,0.1433,38.286
88,0.144967,38.286
89,0.146633,38.299
90,0.1483,38.292
91,0.149967,38.309
92,0.151633,38.309
93,0.1533,38.333
94,0.154967,38.341
95,0.156633,38.341
96,0.1583,38.382
97,0.159967,38.36
98,0.161633,38.335
99,0.163283,38.335
100,0.16495,38.309
101,0.166617,38.3
102,0.168283,38.326
103,0.16995,38.326
104,0.171617,38.331
105,0.173283,38.339
106,0.17495,38.315
107,0.176683,38.315
108,0.178283,38.287
109,0.17995,38.275
110,0.181617,38.275
111,0.183283,38.3
112,0.18495,38.319
113,0.186617,38.347
114,0.188283,38.347
115,0.18995,38.347
116,0.191617,38.327
117,0.193283,38.328
118,0.19495,38.328
119,0.196617,38.32
120,0.198283,38.312
121,0.2,38.306
122,0.201617,38.306
123,0.203283,38.292
124,0.20495,38.265
125,0.206617,38.299
126,0.208283,38.299
127,0.20995,38.292
128,0.211617,38.318
129,0.213283,38.318
130,0.21495,38.33
131,0.216617,38.312
132,0.218283,38.321
133,0.21995,38.321
134,0.221617,38.327
135,0.223267,38.353
136,0.224933,38.365
137,0.2266,38.365
138,0.228267,38.377
139,0.229933,38.335
140,0.2316,38.3
141,0.233367,38.3
142,0.234933,38.289
143,0.2366,38.282
144,0.238267,38.282
145,0.239933,38.308
146,0.2416,38.352
147,0.243267,38.381
148,0.244933,38.381
149,0.246583,38.408
150,0.24825,38.405
151,0.249917,38.365
152,0.251583,38.365
153,0.253267,38.341
154,0.254917,38.303
155,0.256617,38.315
156,0.25825,38.315
157,0.259917,38.329
158,0.261583,38.343
159,0.26325,38.332
160,0.264917,38.332
161,0.266583,38.294
162,0.26825,38.28
163,0.269917,38.28
164,0.271583,38.28
165,0.27325,38.337
166,0.274917,38.387
167,0.276583,38.387
168,0.27825,38.394
169,0.279917,38.379
170,0.281583,38.365
171,0.283233,38.365
172,0.2849,38.327
173,0.286567,38.331
174,0.288233,38.349
175,0.2899,38.349
176,0.291567,38.325
177,0.293233,38.345
178,0.2949,38.345
179,0.296567,38.336
180,0.298233,38.325
181,0.2999,38.332
182,0.301567,38.332
183,0.303233,38.312
184,0.3049,38.329
185,0.306567,38.332
186,0.308233,38.332
187,0.3099,38.353
188,0.311567,38.374
189,0.313233,38.375
190,0.3149,38.375
191,0.316567,38.359
192,0.3183,38.355
193,0.3199,38.355
194,0.3216,38.336
195,0.3233,38.356
196,0.3249,38.375
197,0.326567,38.375
198,0.328233,38.37
199,0.3299,38.381
200,0.331567,38.38
201,0.333233,38.38
202,0.334983,38.385
203,0.336567,38.395
204,0.338233,38.388
205,0.3399,38.388
206,0.341567,38.368
207,0.343217,38.366
208,0.344883,38.386
209,0.34655,38.386
210,0.348217,38.393
211,0.349883,38.413
212,0.351667,38.439
213,0.353217,38.439
214,0.354883,38.437
215,0.35655,38.448
216,0.358217,38.448
217,0.359883,38.46
218,0.36155,38.441
219,0.363217,38.423
220,0.364883,38.423
221,0.36655,38.441
222,0.368317,38.411
223,0.369883,38.392
224,0.37155,38.392
225,0.373217,38.437
226,0.374883,38.479
227,0.37655,38.479
228,0.378217,38.57
229,0.379883,38.647
230,0.38155,38.663
231,0.383217,38.663
232,0.384883,38.689
233,0.38655,38.671
234,0.388217,38.658
235,0.389883,38.658
236,0.39155,38.673
237,0.393217,38.7
238,0.394883,38.756
239,0.39655,38.756
240,0.39825,38.873
241,0.3999,39.019
242,0.40155,39.172
243,0.4032,39.172
244,0.404867,39.386
245,0.406533,39.617
246,0.4082,39.617
247,0.409867,39.912
248,0.411533,40.283
249,0.4132,40.775
250,0.414867,40.775
251,0.416533,41.398
252,0.4182,42.12
253,0.419867,42.987
254,0.421533,42.987
255,0.4232,44.021
256,0.424867,45.256
257,0.426533,46.749
258,0.4282,46.749
259,0.429867,48.525
260,0.431533,50.54
261,0.4332,50.54
262,0.434867,52.825
263,0.436533,55.386
264,0.4382,58.219
265,0.439867,58.219
266,0.441533,61.371
267,0.4432,64.858
268,0.444867,68.681
269,0.446533,68.681
270,0.4482,72.863
271,0.449867,77.354
272,0.451533,82.13800000000001
273,0.4533,82.13800000000001
274,0.454867,87.252
275,0.456533,92.664
276,0.4582,98.366
277,0.459867,98.366
278,0.461533,104.346
279,0.463183,110.562
280,0.46485,110.562
281,0.466517,117.008
282,0.468183,123.638
283,0.469917,130.457
284,0.471517,130.457
285,0.473217,137.393
286,0.474917,144.487
287,0.476517,151.751
288,0.478183,151.751
289,0.47985,159.148
290,0.481517,166.707
291,0.483183,174.394
292,0.48485,174.394
293,0.486617,182.174
294,0.488183,190.046
295,0.48985,190.046
296,0.491517,198.061
297,0.493183,206.146
298,0.49485,214.414
299,0.496517,214.414
300,0.498183,222.899
301,0.49985,231.586
302,0.501517,240.65
303,0.503183,240.65
304,0.50485,250.079
305,0.506517,260.015
306,0.5081830000000001,270.636
307,0.50985,270.636
308,0.511517,282.101
309,0.5131829999999999,294.752
310,0.51485,294.752
311,0.516517,308.909
312,0.5181829999999999,325.002
313,0.51985,343.548
314,0.521517,343.548
315,0.523167,365.081
316,0.524833,390.271
317,0.5265,419.863
318,0.5281670000000001,419.863
319,0.529833,454.582
320,0.5315,495.183
321,0.5331669999999999,542.3819999999999
322,0.534833,542.3819999999999
323,0.5365,596.711
324,0.53815,658.597
325,0.539833,728.279
326,0.541533,728.279
327,0.54315,805.673
328,0.544817,890.451
329,0.5464830000000001,890.451
330,0.54815,982.035
331,0.549817,1079.495
332,0.5514829999999999,1181.627
333,0.55315,1181.627
334,0.554817,1286.971
335,0.5564829999999999,1393.816
336,0.55815,1500.36
337,0.559817,1500.36
338,0.561483,1604.854
339,0.56315,1705.533
340,0.564817,1800.647
341,0.566483,1800.647
342,0.56815,1888.724
343,0.569817,1968.3
344,0.5715,1968.3
345,0.57315,2038.215
346,0.574817,2097.67
347,0.576483,2145.928
348,0.5781500000000001,2145.928
349,0.579817,2182.688
350,0.581483,2207.966
351,0.583133,2221.858
352,0.5848,2221.858
353,0.586467,2224.743
354,0.5881999999999999,2217.184
355,0.5898,2199.754
356,0.591467,2199.754
357,0.593133,2173.363
358,0.5948,2138.993
359,0.596467,2097.623
360,0.598133,2097.623
361,0.5998,2050.371
362,0.601467,1998.097
363,0.603133,1998.097
364,0.604917,1941.715
365,0.606467,1882.09
366,0.608133,1819.932
367,0.6098,1819.932
368,0.611467,1756.107
369,0.613133,1691.337
370,0.6148,1626.293
371,0.6165,1626.293
372,0.618133,1561.558
373,0.61985,1497.55
374,0.621467,1434.669
375,0.623133,1434.669
376,0.6248,1373.139
377,0.626467,1313.213
378,0.6281330000000001,1313.213
379,0.6298,1255.14
380,0.631467,1199.038
381,0.6331329999999999,1145.126
382,0.6348,1145.126
383,0.636467,1093.459
384,0.638133,1044.071
385,0.6398,997.022
386,0.641467,997.022
387,0.643117,952.235
388,0.644783,909.727
389,0.64645,869.436
390,0.6481170000000001,869.436
391,0.649783,831.279
392,0.65145,795.217
393,0.6531169999999999,761.103
394,0.654783,761.103
395,0.65645,728.8920000000001
396,0.658117,698.521
397,0.659783,698.521
398,0.66145,669.865
399,0.663117,642.855
400,0.664783,617.37
401,0.66645,617.37
402,0.668117,593.33
403,0.669783,570.658
404,0.67145,549.322
405,0.673117,549.322
406,0.674783,529.213
407,0.67645,510.243
408,0.678117,492.355
409,0.679783,492.355
410,0.68145,475.447
411,0.683117,459.496
412,0.684783,459.496
413,0.68645,444.428
414,0.688117,430.183
415,0.6898,416.692
416,0.69145,416.692
417,0.693117,403.876
418,0.694783,391.74
419,0.69645,380.218
420,0.698117,380.218
421,0.699783,369.27
422,0.701433,358.859
423,0.7030999999999999,348.927
424,0.704767,348.927
425,0.70645,339.464
426,0.7081,330.465
427,0.709767,330.465
428,0.711433,321.89
429,0.7131,313.689
430,0.714767,305.871
431,0.716433,305.871
432,0.7181,298.379
433,0.719767,291.239
434,0.721433,284.405
435,0.7232,284.405
436,0.7247670000000001,277.811
437,0.726433,271.492
438,0.7281,265.45
439,0.7297670000000001,265.45
440,0.731433,259.633
441,0.7331,254.05
442,0.7347669999999999,248.685
443,0.736433,248.685
444,0.7381,243.489
445,0.739767,238.515
446,0.741433,238.515
447,0.7431,233.718
448,0.744767,229.064
449,0.746433,224.577
450,0.7481,224.577
451,0.749767,220.265
452,0.751433,216.097
453,0.7531,212.082
454,0.754767,212.082
455,0.756433,208.182
456,0.7581,204.378
457,0.759767,200.724
458,0.761433,200.724
459,0.763117,197.158
460,0.7648,193.734
461,0.766417,193.734
462,0.768083,190.393
463,0.76975,187.138
464,0.771417,184
465,0.773083,184
466,0.77475,180.988
467,0.776417,178.057
468,0.778083,175.219
469,0.779767,175.219
470,0.781417,172.461
471,0.783083,169.729
472,0.7847499999999999,167.08
473,0.786417,167.08
474,0.788083,164.523
475,0.78975,162.054
476,0.791417,159.65
477,0.793083,159.65
478,0.79475,157.358
479,0.796417,155.111
480,0.798083,155.111
481,0.79975,152.902
482,0.801417,150.782
483,0.803083,148.705
484,0.80475,148.705
485,0.8064170000000001,146.677
486,0.808167,144.694
487,0.80975,142.737
488,0.8114170000000001,142.737
489,0.813083,140.812
490,0.81475,138.953
491,0.8164169999999999,137.142
492,0.818083,137.142
493,0.81975,135.414
494,0.821417,133.716
495,0.823067,133.716
496,0.824783,132.082
497,0.8264,130.482
498,0.82805,128.905
499,0.829717,128.905
500,0.831383,127.397
501,0.833083,125.881
502,0.834717,124.425
503,0.836383,124.425
504,0.83805,122.995
505,0.839717,121.623
506,0.84145,120.285
507,0.84305,120.285
508,0.8447170000000001,118.978
509,0.846383,117.678
510,0.84805,116.361
511,0.8497169999999999,116.361
512,0.851383,115.096
513,0.85305,113.868
514,0.8547169999999999,113.868
515,0.856383,112.658
516,0.85805,111.487
517,0.859717,110.356
518,0.861383,110.356
519,0.86305,109.24
520,0.864733,108.2
521,0.8663999999999999,107.166
522,0.86805,107.166
523,0.869717,106.134
524,0.871383,105.103
525,0.87305,104.094
526,0.874717,104.094
527,0.876383,103.113
528,0.87805,102.12
529,0.879717,102.12
530,0.881383,101.168
531,0.883033,100.254
532,0.8847,99.376
533,0.886367,99.376
534,0.888033,98.55
535,0.8897,97.758
536,0.891367,96.92
537,0.893033,96.92
538,0.8947000000000001,96.107
539,0.896367,95.303
540,0.898033,94.48099999999999
541,0.8997000000000001,94.48099999999999
542,0.901383,93.729
543,0.903033,92.959
544,0.9046999999999999,92.959
545,0.906367,92.22
546,0.908033,91.47799999999999
547,0.9097,90.76300000000001
548,0.911367,90.76300000000001
549,0.913033,90.057
550,0.9147,89.34
551,0.916367,88.69
552,0.918033,88.69
553,0.9197,88.026
554,0.921367,87.381
555,0.923033,86.758
556,0.9247,86.758
557,0.926417,86.14100000000001
558,0.928033,85.508
559,0.9297,84.881
560,0.9313669999999999,84.881
561,0.933033,84.23999999999999
562,0.9347,83.616
563,0.9363669999999999,83.616
564,0.938033,83.029
565,0.9397,82.465
566,0.94135,81.95699999999999
567,0.943033,81.95699999999999
568,0.9446830000000001,81.435
569,0.946367,80.91
570,0.948067,80.378
571,0.9496830000000001,80.378
572,0.95135,79.869
573,0.953017,79.364
574,0.9546829999999999,78.858
575,0.95635,78.858
576,0.958017,78.376
577,0.9598,77.857
578,0.96135,77.857
579,0.963017,77.375
580,0.964683,76.90300000000001
581,0.96635,76.465
582,0.968017,76.465
583,0.969683,76.062
584,0.97135,75.624
585,0.973017,75.215
586,0.974683,75.215
587,0.9763500000000001,74.785
588,0.978017,74.327
589,0.979683,73.899
590,0.9814000000000001,73.899
591,0.983017,73.486
592,0.984683,73.054
593,0.9863499999999999,72.672
594,0.988017,72.672
595,0.989683,72.306
596,0.99135,71.905
597,0.993017,71.905
598,0.994683,71.54900000000001
599,0.99635,71.19799999999999
600,0.998017,70.819
601,0.999683,70.819
602,1.001333,70.462
603,1.003,70.07899999999999
604,1.004667,69.68600000000001
605,1.006333,69.68600000000001
606,1.008,69.351
607,1.009667,68.991
608,1.011333,68.649
609,1.013,68.649
610,1.014667,68.318
611,1.016333,67.959
612,1.018,67.959
613,1.019667,67.64400000000001
614,1.021333,67.364
615,1.023,67.072
616,1.024667,67.072
617,1.026333,66.794
618,1.028017,66.512
619,1.029667,66.22
620,1.031333,66.22
621,1.033,65.91800000000001
622,1.034667,65.59999999999999
623,1.036333,65.27500000000001
624,1.038,65.27500000000001
625,1.039667,64.93899999999999
626,1.041333,64.64
627,1.043,64.377
628,1.044717,64.377
629,1.046333,64.142
630,1.048033,63.919
631,1.049667,63.919
632,1.051333,63.699
633,1.053,63.454
634,1.054667,63.202
635,1.056333,63.202
636,1.058,62.969
637,1.059667,62.7
638,1.061317,62.44
639,1.062983,62.44
640,1.06465,62.183
641,1.066317,61.886
642,1.067983,61.633
643,1.06965,61.633
644,1.071317,61.397
645,1.072983,61.146
646,1.07465,61.146
647,1.076317,60.948
648,1.0781,60.737
649,1.07965,60.517
650,1.081317,60.517
651,1.082983,60.295
652,1.08465,60.068
653,1.086317,59.856
654,1.087983,59.856
655,1.08965,59.664
656,1.091317,59.495
657,1.093,59.298
658,1.09465,59.298
659,1.096317,59.076
660,1.097983,58.855
661,1.09965,58.657
662,1.101317,58.657
663,1.102983,58.456
664,1.10465,58.278
665,1.106317,58.278
666,1.107983,58.118
667,1.10965,57.927
668,1.111317,57.725
669,1.112983,57.725
670,1.11465,57.537
671,1.116333,57.323
672,1.118017,57.124
673,1.119633,57.124
674,1.1213,56.984
675,1.122983,56.805
676,1.124667,56.624
677,1.126283,56.624
678,1.12795,56.446
679,1.129617,56.256
680,1.131283,56.256
681,1.13295,56.116
682,1.134617,56.002
683,1.136283,55.868
684,1.13795,55.868
685,1.139617,55.692
686,1.141283,55.493
687,1.14295,55.275
688,1.144617,55.275
689,1.146283,55.105
690,1.14795,54.953
691,1.149617,54.838
692,1.151283,54.838
693,1.15295,54.733
694,1.154617,54.592
695,1.156283,54.592
696,1.15795,54.459
697,1.159617,54.301
698,1.161283,54.131
699,1.162983,54.131
700,1.164617,53.947
701,1.166283,53.793
702,1.16795,53.633
703,1.169617,53.633
704,1.171283,53.5
705,1.17295,53.403
706,1.174617,53.293
707,1.176283,53.293
708,1.17795,53.196
709,1.1796,53.065
710,1.181283,52.92
711,1.182933,52.92
712,1.1846,52.806
713,1.186267,52.653
714,1.187933,52.653
715,1.1896,52.511
716,1.191267,52.4
717,1.192933,52.266
718,1.1946,52.266
719,1.196333,52.177
720,1.197933,52.102
721,1.1996,51.969
722,1.201267,51.969
723,1.202933,51.825
724,1.2046,51.696
725,1.206267,51.568
726,1.207933,51.568
727,1.2096,51.47
728,1.211267,51.367
729,1.212933,51.367
730,1.2146,51.258
731,1.216267,51.137
732,1.217933,51.026
733,1.2196,51.026
734,1.221267,50.925
735,1.222933,50.807
736,1.2246,50.701
737,1.226267,50.701
738,1.227933,50.615
739,1.2296,50.528
740,1.231267,50.458
741,1.232933,50.458
742,1.2346,50.332
743,1.236267,50.229
744,1.237933,50.134
745,1.2396,50.134
746,1.241267,50.002
747,1.242917,49.963
748,1.244583,49.963
749,1.24625,49.876
750,1.247917,49.8
751,1.249583,49.709
752,1.25125,49.709
753,1.252917,49.599
754,1.254583,49.47
755,1.25625,49.345
756,1.257917,49.345
757,1.259583,49.255
758,1.26125,49.157
759,1.262917,49.106
760,1.264617,49.106
761,1.26625,49.011
762,1.267933,48.928
763,1.269583,48.928
764,1.27125,48.83
765,1.272917,48.716
766,1.274583,48.655
767,1.276283,48.655
768,1.277917,48.559
769,1.279583,48.476
770,1.28125,48.398
771,1.282917,48.398
772,1.284583,48.309
773,1.28625,48.231
774,1.287917,48.171
775,1.289583,48.171
776,1.29125,48.117
777,1.292917,48.015
778,1.294583,48.015
779,1.29625,47.944
780,1.298,47.885
781,1.299583,47.787
782,1.301233,47.787
783,1.3029,47.749
784,1.304567,47.711
785,1.306233,47.614
786,1.3079,47.614
787,1.309567,47.532
788,1.311233,47.417
789,1.3129,47.312
790,1.314667,47.312
791,1.316233,47.238
792,1.3179,47.161
793,1.319567,47.108
794,1.321233,47.108
795,1.3229,47.047
796,1.324567,46.995
797,1.326233,46.995
798,1.3279,46.939
799,1.329567,46.884
800,1.33135,46.834
801,1.3329,46.834
802,1.334567,46.752
803,1.336233,46.694
804,1.3379,46.619
805,1.339567,46.619
806,1.341283,46.545
807,1.3429,46.506
808,1.344567,46.461
809,1.346233,46.461
810,1.3479,46.426
811,1.349567,46.35
812,1.351233,46.35
813,1.3529,46.294
814,1.354567,46.239
815,1.356233,46.159
816,1.3579,46.159
817,1.359567,46.15
818,1.36125,46.084
819,1.362933,46.01
820,1.36455,46.01
821,1.366217,45.963
822,1.367883,45.86
823,1.36955,45.81
824,1.371217,45.81
825,1.372883,45.751
826,1.37455,45.712
827,1.376217,45.656
828,1.377883,45.656
829,1.37955,45.604
830,1.381217,45.58
831,1.382883,45.58
832,1.38455,45.517
833,1.386217,45.494
834,1.387883,45.455
835,1.38955,45.455
836,1.391217,45.384
837,1.392883,45.317
838,1.39455,45.267
839,1.396217,45.267
840,1.397883,45.197
841,1.39955,45.156
842,1.401217,45.139
843,1.402883,45.139
844,1.40455,45.123
845,1.406217,45.122
846,1.4079,45.122
847,1.40955,45.089
848,1.4112,45.028
849,1.412867,44.955
850,1.414533,44.955
851,1.416267,44.869
852,1.417867,44.823
853,1.419533,44.781
854,1.4212,44.781
855,1.42285,44.712
856,1.424517,44.671
857,1.426183,44.611
858,1.42785,44.611
859,1.429517,44.567
860,1.431183,44.546
861,1.43285,44.507
862,1.434517,44.507
863,1.436183,44.494
864,1.43785,44.449
865,1.439517,44.449
866,1.441183,44.437
867,1.442867,44.415
868,1.444517,44.356
869,1.446183,44.356
870,1.44785,44.339
871,1.449617,44.256
872,1.451183,44.2
873,1.452867,44.2
874,1.454517,44.16
875,1.456183,44.119
876,1.45785,44.102
877,1.459517,44.102
878,1.461183,44.041
879,1.46285,43.987
880,1.464517,43.987
881,1.466183,43.928
882,1.46785,43.913
883,1.469517,43.901
884,1.471183,43.901
885,1.47285,43.883
886,1.474517,43.886
887,1.476183,43.826
888,1.47785,43.826
889,1.479517,43.785
890,1.4812,43.769
891,1.482833,43.722
892,1.4845,43.722
893,1.486167,43.678
894,1.487833,43.659
895,1.4895,43.659
896,1.491167,43.61
897,1.492833,43.596
898,1.4945,43.564
899,1.496167,43.564
900,1.497833,43.522
901,1.4995,43.492
902,1.501167,43.419
903,1.502833,43.419
904,1.5045,43.405
905,1.506167,43.406
906,1.507833,43.347
907,1.5095,43.347
908,1.511167,43.309
909,1.512833,43.29
910,1.5145,43.255
911,1.516167,43.255
912,1.517833,43.239
913,1.5195,43.231
914,1.521167,43.231
915,1.522833,43.187
916,1.5245,43.113
917,1.526167,43.087
918,1.527867,43.087
919,1.5295,43.045
920,1.531167,42.986
921,1.532833,42.958
922,1.53455,42.958
923,1.536167,42.915
924,1.537833,42.904
925,1.5395,42.915
926,1.54115,42.915
927,1.542817,42.917
928,1.544483,42.933
929,1.54615,42.933
930,1.547817,42.901
931,1.549483,42.868
932,1.551217,42.821
933,1.552817,42.821
934,1.5545,42.757
935,1.55615,42.74
936,1.557817,42.706
937,1.559483,42.706
938,1.56115,42.696
939,1.562817,42.69
940,1.564483,42.693
941,1.56615,42.693
942,1.56785,42.704
943,1.569483,42.664
944,1.57115,42.636
945,1.572817,42.636
946,1.574483,42.56
947,1.57615,42.5
948,1.577817,42.5
949,1.579483,42.462
950,1.58115,42.43
951,1.582817,42.439
952,1.584483,42.439
953,1.58615,42.428
954,1.587817,42.396
955,1.589483,42.379
956,1.59115,42.379
957,1.592817,42.357
958,1.594483,42.318
959,1.59615,42.316
960,1.597817,42.316
961,1.599483,42.292
962,1.601133,42.25
963,1.6028,42.25
964,1.604467,42.249
965,1.606133,42.241
966,1.6078,42.216
967,1.609467,42.216
968,1.611133,42.208
969,1.6128,42.19
970,1.614467,42.184
971,1.61615,42.184
972,1.6178,42.188
973,1.619467,42.153
974,1.621133,42.125
975,1.6228,42.125
976,1.624467,42.089
977,1.62615,42.059
978,1.6278,42.079
979,1.629467,42.079
980,1.631133,42.045
981,1.6328,41.994
982,1.634467,41.994
983,1.636133,41.949
984,1.6378,41.885
985,1.639467,41.893
