"ID","sea_time","fid_signal"
1,0,140.786
2,0.001667,140.876
3,0.00335,140.876
4,0.005,140.905
5,0.006667,140.965
6,0.008333,140.637
7,0.01,140.637
8,0.011667,140.399
9,0.013333,139.9
10,0.015,139.9
11,0.016667,139.602
12,0.018333,140.034
13,0.02,140.443
14,0.021667,140.443
15,0.023333,141.166
16,0.025,141.3
17,0.026683,141.166
18,0.028317,141.166
19,0.03,140.898
20,0.03165,140.525
21,0.033317,140.429
22,0.034983,140.429
23,0.03665,140.168
24,0.038317,139.996
25,0.039967,139.996
26,0.041633,140.108
27,0.0433,139.989
28,0.045033,140.168
29,0.046633,140.168
30,0.0483,140.354
31,0.049967,140.376
32,0.051633,140.548
33,0.0533,140.548
34,0.054967,140.756
35,0.056633,140.734
36,0.0583,140.563
37,0.059967,140.563
38,0.061633,140.57
39,0.0633,140.384
40,0.064967,140.384
41,0.066633,140.391
42,0.0683,140.302
43,0.069967,140.16
44,0.071633,140.16
45,0.0733,140.272
46,0.07496700000000001,140.272
47,0.07663300000000001,140.309
48,0.07838299999999999,140.309
49,0.079967,140.496
50,0.081633,140.682
51,0.0833,140.838
52,0.084967,140.838
53,0.086633,141.054
54,0.0883,141.002
55,0.08996700000000001,140.712
56,0.091617,140.712
57,0.093283,140.607
58,0.09495000000000001,140.384
59,0.09661699999999999,140.384
60,0.098283,140.63
61,0.09995,140.563
62,0.101617,140.749
63,0.103283,140.749
64,0.10495,141.032
65,0.106617,140.809
66,0.108283,140.995
67,0.10995,140.995
68,0.111617,140.592
69,0.113283,140.66
70,0.11495,140.615
71,0.116617,140.615
72,0.118317,140.674
73,0.11995,140.943
74,0.121617,140.943
75,0.123283,140.794
76,0.12495,140.861
77,0.126617,140.861
78,0.128283,140.861
79,0.12995,140.883
80,0.131617,140.928
81,0.133283,140.831
82,0.13495,140.831
83,0.136617,140.481
84,0.138283,140.361
85,0.13995,140.153
86,0.141617,140.153
87,0.143283,140.063
88,0.144967,140.078
89,0.146617,139.959
90,0.148283,139.959
91,0.14995,139.974
92,0.151617,140.131
93,0.153267,140.131
94,0.154933,140.235
95,0.1566,140.361
96,0.158267,140.563
97,0.159933,140.563
98,0.1616,140.809
99,0.16335,141.189
100,0.164933,141.479
101,0.1666,141.479
102,0.168267,141.494
103,0.169933,141.062
104,0.1716,140.712
105,0.173267,140.712
106,0.174933,140.376
107,0.1766,140.198
108,0.178267,140.198
109,0.179933,140.242
110,0.1816,140.138
111,0.183267,140.324
112,0.184933,140.324
113,0.1866,140.481
114,0.188267,140.719
115,0.189933,140.741
116,0.1916,140.741
117,0.193267,140.533
118,0.194933,140.257
119,0.196717,139.989
120,0.198267,139.989
121,0.199933,140.376
122,0.2016,140.563
123,0.203267,140.809
124,0.204967,140.809
125,0.2066,141.047
126,0.208267,140.823
127,0.209933,140.823
128,0.2116,140.838
129,0.21325,140.756
130,0.214917,140.771
131,0.216583,140.771
132,0.21825,140.794
133,0.219933,140.712
134,0.221583,140.861
135,0.22325,140.861
136,0.224967,140.883
137,0.226583,140.838
138,0.22825,140.585
139,0.229917,140.585
140,0.231583,140.563
141,0.23325,140.592
142,0.234917,140.592
143,0.236583,140.63
144,0.23825,140.801
145,0.239917,140.741
146,0.241583,140.741
147,0.24325,140.853
148,0.244917,140.92
149,0.246583,141.069
150,0.24825,141.069
151,0.249917,141.092
152,0.251583,140.898
153,0.25325,140.652
154,0.254917,140.652
155,0.256583,140.369
156,0.25825,140.235
157,0.259917,140.242
158,0.261583,140.242
159,0.26325,140.354
160,0.264917,140.533
161,0.266583,140.533
162,0.26825,140.645
163,0.269917,140.779
164,0.271567,140.779
165,0.273233,140.779
166,0.2749,140.98
167,0.276567,141.293
168,0.278233,141.159
169,0.2799,141.159
170,0.28165,141.241
171,0.283233,141.047
172,0.2849,140.779
173,0.2866,140.779
174,0.288233,140.905
175,0.2899,140.95
176,0.291567,140.95
177,0.293267,140.727
178,0.2949,140.868
179,0.296567,140.794
180,0.298233,140.794
181,0.2999,140.816
182,0.301567,140.719
183,0.303233,140.302
184,0.3049,140.302
185,0.306567,140.101
186,0.308233,139.728
187,0.3099,139.907
188,0.311567,139.907
189,0.313233,140.131
190,0.314983,140.481
191,0.316567,140.481
192,0.318233,140.518
193,0.3199,140.518
194,0.321567,140.578
195,0.323233,140.578
196,0.3249,140.093
197,0.326567,140.406
198,0.328233,140.384
199,0.3299,140.384
200,0.33155,140.063
201,0.3332,140.369
202,0.334867,140.585
203,0.336533,140.585
204,0.3382,140.823
205,0.339867,141.114
206,0.341533,141.382
207,0.3432,141.382
208,0.344867,141.233
209,0.346533,141.449
210,0.3482,141.449
211,0.349867,141.71
212,0.351533,141.405
213,0.3532,141.405
214,0.354867,141.405
215,0.356533,141.256
216,0.3582,141.017
217,0.359867,141.352
218,0.361533,141.352
219,0.3632,141.293
220,0.364867,141.3
221,0.366567,141.516
222,0.368217,141.516
223,0.369867,141.233
224,0.371533,141.226
225,0.3732,141.226
226,0.374867,141.226
227,0.376533,141.017
228,0.3782,140.95
229,0.379867,140.95
230,0.381533,140.972
231,0.3832,140.935
232,0.384867,140.838
233,0.386533,140.838
234,0.3882,141.077
235,0.389867,141.308
236,0.391517,141.278
237,0.393183,141.278
238,0.394867,141.554
239,0.396517,141.65
240,0.398183,141.561
241,0.3999,141.561
242,0.401517,141.859
243,0.403183,141.993
244,0.40485,141.993
245,0.406517,142.15
246,0.408183,142.075
247,0.40985,141.814
248,0.411517,141.814
249,0.413183,141.852
250,0.41485,141.986
251,0.416583,142.455
252,0.418183,142.455
253,0.41985,143.051
254,0.421517,143.148
255,0.423183,143.036
256,0.42485,143.036
257,0.426517,143.006
258,0.428183,142.843
259,0.42985,142.843
260,0.431517,143.23
261,0.4333,143.707
262,0.43485,143.878
263,0.436517,143.878
264,0.438183,143.938
265,0.43985,143.997
266,0.441517,144.169
267,0.443183,144.169
268,0.44485,144.37
269,0.44655,144.78
270,0.4482,145.122
271,0.44985,145.122
272,0.451517,145.122
273,0.453167,145.16
274,0.454833,145.16
275,0.4565,145.54
276,0.458167,145.778
277,0.459833,146.404
278,0.4615,146.404
279,0.463167,147.454
280,0.464833,148.065
281,0.4665,148.535
282,0.468167,148.535
283,0.469833,149.027
284,0.4715,149.131
285,0.473167,149.474
286,0.474833,149.474
287,0.4765,150.003
288,0.478167,150.338
289,0.479833,150.837
290,0.4815,150.837
291,0.483167,151.016
292,0.484833,151.463
293,0.4865,151.463
294,0.488167,151.493
295,0.489833,151.82
296,0.4915,152.506
297,0.493167,152.506
298,0.494833,152.603
299,0.4965,152.983
300,0.498167,152.834
301,0.499833,152.834
302,0.5014999999999999,152.573
303,0.503167,152.417
304,0.504833,152.193
305,0.5065,152.193
306,0.508167,152.238
307,0.50985,151.977
308,0.511483,151.977
309,0.5131829999999999,151.671
310,0.514867,151.373
311,0.516483,151.008
312,0.518167,151.008
313,0.519817,150.695
314,0.521483,150.435
315,0.52315,150.33
316,0.524817,150.33
317,0.526483,150.278
318,0.52815,150.248
319,0.529817,149.943
320,0.531483,149.943
321,0.53315,149.779
322,0.534883,149.421
323,0.536483,148.714
324,0.53815,148.714
325,0.539817,148.319
326,0.541483,147.745
327,0.54315,147.745
328,0.544817,147.216
329,0.5464830000000001,147.067
330,0.54815,146.985
331,0.549817,146.985
332,0.551567,146.769
333,0.55315,146.873
334,0.554817,147.03
335,0.5564829999999999,147.03
336,0.55815,147.112
337,0.559817,146.985
338,0.561483,146.426
339,0.56315,146.426
340,0.564817,145.942
341,0.566483,145.674
342,0.568183,145.972
343,0.569817,145.972
344,0.5714669999999999,146.233
345,0.573133,146.173
346,0.5748,146.173
347,0.576467,145.845
348,0.578133,145.271
349,0.5798,144.809
350,0.581467,144.809
351,0.583133,144.817
352,0.5848,144.683
353,0.586483,144.884
354,0.588133,144.884
355,0.5898,144.608
356,0.591467,144.169
357,0.593133,143.804
358,0.5948,143.804
359,0.596467,143.29
360,0.598133,143.632
361,0.5998,143.632
362,0.601467,143.751
363,0.603133,143.878
364,0.6048,143.96
365,0.6065,143.96
366,0.608133,143.513
367,0.6098,143.327
368,0.611467,143.327
369,0.613133,143.327
370,0.6148,143.148
371,0.616467,143.081
372,0.618133,143.051
373,0.6198,143.051
374,0.621467,142.947
375,0.623133,142.723
376,0.624783,142.723
377,0.62645,142.708
378,0.628117,142.753
379,0.629783,142.559
380,0.631433,142.559
381,0.6331,142.381
382,0.634767,142.187
383,0.6365,142.06
384,0.6381,142.06
385,0.639767,142.12
386,0.641433,142.589
387,0.6431,142.731
388,0.644767,142.731
389,0.646433,142.895
390,0.6481,142.947
391,0.649767,142.947
392,0.651433,142.865
393,0.653217,142.932
394,0.654783,142.708
395,0.656433,142.708
396,0.6581,142.582
397,0.659767,142.604
398,0.661433,142.589
399,0.6631,142.589
400,0.664767,142.626
401,0.6664330000000001,142.671
402,0.6681,142.209
403,0.669817,142.209
404,0.6714329999999999,141.747
405,0.6731,141.457
406,0.674767,141.338
407,0.676433,141.338
408,0.6781,141.293
409,0.679767,141.755
410,0.681433,141.755
411,0.6831,141.852
412,0.684767,141.948
413,0.6865329999999999,142.142
414,0.6881,142.142
415,0.689767,141.919
416,0.691433,141.807
417,0.693083,141.717
418,0.694767,141.717
419,0.6964669999999999,141.665
420,0.698083,141.613
421,0.69975,141.68
422,0.701417,141.68
423,0.703083,141.539
424,0.70475,141.472
425,0.706417,141.472
426,0.708083,141.419
427,0.70975,141.442
428,0.711417,141.606
429,0.713083,141.606
430,0.71475,141.464
431,0.716417,141.397
432,0.718083,141.36
433,0.71975,141.36
434,0.721417,141.457
435,0.723083,141.822
436,0.72475,142.083
437,0.726417,142.083
438,0.728083,142.068
439,0.7297670000000001,141.829
440,0.731417,141.472
441,0.733083,141.472
442,0.73475,141.211
443,0.736417,141.062
444,0.738083,141.062
445,0.73975,140.898
446,0.741417,140.876
447,0.743083,140.868
448,0.74475,140.868
449,0.746417,141.114
450,0.7480830000000001,141.405
451,0.74975,141.71
452,0.7514,141.71
453,0.753067,141.934
454,0.754733,141.792
455,0.7564,141.591
456,0.758067,141.591
457,0.759733,141.263
458,0.7614,141.069
459,0.7630670000000001,141.069
460,0.764733,140.943
461,0.7664,140.95
462,0.7680670000000001,141.189
463,0.769733,141.189
464,0.771467,141.121
465,0.7730669999999999,141.241
466,0.774733,141.427
467,0.7764,141.427
468,0.778067,141.174
469,0.779733,141.054
470,0.7814,141.084
471,0.783067,141.084
472,0.784733,140.95
473,0.7864,141.077
474,0.788083,141.248
475,0.789733,141.248
476,0.7914,141.121
477,0.793067,141.047
478,0.794733,141.047
479,0.7964,141.233
480,0.798067,141.315
481,0.799733,141.233
482,0.8014,141.233
483,0.803067,141.211
484,0.80485,140.943
485,0.8064,140.853
486,0.808067,140.853
487,0.809767,141.017
488,0.811383,141.01
489,0.8130500000000001,140.98
490,0.814717,140.98
491,0.816383,140.861
492,0.8180500000000001,140.801
493,0.819717,140.801
494,0.821383,140.883
495,0.8230499999999999,141.151
496,0.824717,141.308
497,0.826383,141.308
498,0.82805,141.367
499,0.829717,141.323
500,0.831383,141.077
501,0.83305,141.077
502,0.834717,140.98
503,0.836383,140.913
504,0.83805,141.054
505,0.839717,141.054
506,0.841383,141.233
507,0.84305,141.233
508,0.8447170000000001,141.136
509,0.846383,141.136
510,0.84805,140.995
511,0.8497169999999999,141.025
512,0.8514,141.025
513,0.85305,141.285
514,0.8547169999999999,141.598
515,0.856383,141.703
516,0.858067,141.703
517,0.859717,141.628
518,0.861383,141.658
519,0.86305,141.762
520,0.864717,141.762
521,0.866383,141.926
522,0.86805,141.867
523,0.8697,141.65
524,0.871367,141.65
525,0.8730329999999999,141.263
526,0.8747,141.144
527,0.8764,141.144
528,0.878033,141.159
529,0.8797,140.995
530,0.881367,140.943
531,0.883033,140.943
532,0.8847,140.838
533,0.886367,140.622
534,0.888033,140.689
535,0.8897,140.689
536,0.891367,140.928
537,0.893033,141.017
538,0.8947000000000001,141.189
539,0.896367,141.189
540,0.898033,141.516
541,0.8997000000000001,141.77
542,0.901367,141.77
543,0.903033,141.978
544,0.9046999999999999,141.963
545,0.906367,141.554
546,0.908033,141.554
547,0.9097,141.107
548,0.911367,140.764
549,0.913033,140.779
550,0.914683,140.779
551,0.91635,141.01
552,0.918017,141.129
553,0.919683,140.995
554,0.92135,140.995
555,0.9231,141.047
556,0.924683,141.136
557,0.92635,141.248
558,0.928017,141.248
559,0.929683,141.345
560,0.931333,141.323
561,0.9330000000000001,141.323
562,0.934667,141.047
563,0.936333,140.928
564,0.9379999999999999,141.002
565,0.939667,141.002
566,0.941333,140.779
567,0.9429999999999999,140.92
568,0.944667,141.047
569,0.946333,141.047
570,0.948,141.218
571,0.949667,141.427
572,0.951367,141.405
573,0.953017,141.405
574,0.954667,141.218
575,0.956333,141.084
576,0.958,141.084
577,0.959667,140.958
578,0.961333,140.935
579,0.963,140.794
580,0.9646670000000001,140.794
581,0.966333,140.801
582,0.968,140.883
583,0.9696669999999999,141.017
584,0.971333,141.017
585,0.973,141.047
586,0.974667,140.727
587,0.976333,140.51
588,0.978,140.51
589,0.979667,140.458
590,0.981333,140.503
591,0.983,140.391
592,0.984667,140.391
593,0.986333,140.436
594,0.988,140.339
595,0.989667,140.339
596,0.991317,140.347
597,0.9929829999999999,140.697
598,0.99465,140.935
599,0.996317,140.935
600,0.997983,140.935
601,0.99965,140.913
602,1.001317,140.801
603,1.002983,140.801
604,1.00465,140.645
605,1.006317,140.645
606,1.00805,140.958
607,1.00965,140.958
608,1.011317,141.136
609,1.012983,140.883
610,1.01465,140.883
611,1.016317,140.883
612,1.017983,140.63
613,1.01965,140.503
614,1.021317,140.503
