"ID","sea_time","fid_signal"
1,0,141.181
2,0.001667,141.442
3,0.003333,141.442
4,0.005,141.442
5,0.006667,141.256
6,0.008333,141.166
7,0.01,140.592
8,0.01175,140.592
9,0.013333,140.198
10,0.015,139.87
11,0.016667,139.855
12,0.018333,139.855
13,0.02,140.205
14,0.021667,140.384
15,0.023333,140.518
16,0.024983,140.518
17,0.02665,140.481
18,0.028317,140.354
19,0.029983,140.354
20,0.03165,140.682
21,0.033317,140.779
22,0.034983,140.622
23,0.03665,140.622
24,0.038317,140.615
25,0.040017,140.518
26,0.04165,140.92
27,0.043317,140.92
28,0.045033,141.323
29,0.04665,141.412
30,0.048317,141.017
31,0.049983,141.017
32,0.05165,140.682
33,0.053317,140.592
34,0.054983,140.592
35,0.05665,140.518
36,0.058317,141.039
37,0.059983,141.285
38,0.06165,141.285
39,0.063317,141.367
40,0.064983,141.636
41,0.06665,141.36
42,0.068317,141.36
43,0.069983,141.263
44,0.07165000000000001,141.069
45,0.07331699999999999,140.883
46,0.07498299999999999,140.883
47,0.07665,141.002
48,0.078317,140.883
49,0.079983,140.838
50,0.08165,140.838
51,0.083317,140.764
52,0.084967,140.496
53,0.086633,140.496
54,0.0883,140.525
55,0.08996700000000001,140.533
56,0.09163300000000001,140.6
57,0.09329999999999999,140.6
58,0.094967,140.898
59,0.09669999999999999,140.898
60,0.0983,141.099
61,0.099967,141.099
62,0.101633,141.241
63,0.1033,140.987
64,0.104967,140.838
65,0.106633,140.838
66,0.1083,140.779
67,0.109967,140.92
68,0.111633,140.92
69,0.11335,141.092
70,0.114983,141.263
71,0.11665,140.935
72,0.1183,140.935
73,0.119967,140.458
74,0.121633,140.414
75,0.1233,140.391
76,0.124967,140.391
77,0.126633,140.689
78,0.1283,141.054
79,0.130067,140.965
80,0.131633,140.965
81,0.1333,140.898
82,0.134967,140.898
83,0.136633,140.764
84,0.1383,140.764
85,0.139967,140.935
86,0.141633,141.002
87,0.143283,141.002
88,0.14495,140.749
89,0.146617,140.741
90,0.148283,140.6
91,0.14995,140.6
92,0.151617,140.563
93,0.153283,140.883
94,0.15495,141.136
95,0.156617,141.136
96,0.158283,141.323
97,0.15995,141.129
98,0.161617,140.779
99,0.163283,140.779
100,0.16495,140.399
101,0.166617,140.205
102,0.168283,140.205
103,0.16995,140.332
104,0.171617,140.578
105,0.173283,140.861
106,0.17495,140.861
107,0.176617,140.95
108,0.178283,140.995
109,0.17995,141.017
110,0.181617,141.017
111,0.183283,140.816
112,0.18495,140.898
113,0.186617,140.868
114,0.188283,140.868
115,0.189967,140.95
116,0.191617,140.823
117,0.193317,141.039
118,0.19495,141.039
119,0.196617,141.107
120,0.198283,140.958
121,0.19995,140.958
122,0.201617,141.136
123,0.203283,141.077
124,0.204933,141.047
125,0.2066,141.047
126,0.208267,141.099
127,0.209933,140.965
128,0.2116,140.578
129,0.213267,140.578
130,0.215,140.548
131,0.2166,140.488
132,0.218267,140.458
133,0.219933,140.458
134,0.2216,140.57
135,0.223267,140.51
136,0.224933,140.51
137,0.2266,140.756
138,0.228267,140.801
139,0.229933,140.749
140,0.2316,140.749
141,0.233267,140.756
142,0.234933,140.66
143,0.2366,140.816
144,0.238267,140.816
145,0.239933,141.054
146,0.2416,141.203
147,0.243267,141.174
148,0.244917,141.174
149,0.246583,141.092
150,0.248367,141.025
151,0.249917,141.025
152,0.251583,141.203
153,0.25325,141.174
154,0.254917,140.92
155,0.256583,140.92
156,0.25825,140.622
157,0.259917,140.324
158,0.261583,140.183
159,0.26325,140.183
160,0.2649,140.28
161,0.266567,140.265
162,0.268233,140.123
163,0.26995,140.123
164,0.271617,139.989
165,0.273283,140.123
166,0.2749,140.488
167,0.276567,140.488
168,0.278233,140.525
169,0.2799,140.779
170,0.281567,140.779
171,0.283233,140.518
172,0.2849,140.168
173,0.286567,140.332
174,0.288233,140.332
175,0.2899,140.481
176,0.291567,140.771
177,0.293233,141.196
178,0.2949,141.196
179,0.296567,141.174
180,0.298233,141.174
181,0.2999,141.248
182,0.301567,141.248
183,0.303233,141.114
184,0.3049,141.166
185,0.306567,141.166
186,0.308233,141.256
187,0.3099,141.256
188,0.311567,141.226
189,0.313233,141.226
190,0.3149,141.3
191,0.316567,141.002
192,0.318233,141.211
193,0.3199,141.211
194,0.321567,141.136
195,0.323233,141.032
196,0.324883,140.89
197,0.32655,140.89
198,0.328217,140.853
199,0.329883,141.002
200,0.33155,141.069
201,0.333283,141.069
202,0.334933,141.501
203,0.336583,141.308
204,0.338217,141.308
205,0.339883,141.397
206,0.34155,141.479
207,0.343217,141.136
208,0.344883,141.136
209,0.34655,140.868
210,0.348217,140.496
211,0.349883,140.287
212,0.35155,140.287
213,0.353217,140.384
214,0.354883,140.727
215,0.35655,141.136
216,0.358217,141.136
217,0.359883,141.218
218,0.36155,141.285
219,0.363217,141.285
220,0.364883,141.367
221,0.3666,141.129
222,0.368217,141.293
223,0.369883,141.293
224,0.37155,141.367
225,0.373217,141.196
226,0.374883,141.487
227,0.37655,141.487
228,0.378217,141.68
229,0.379883,141.613
230,0.38155,142.008
231,0.3832,142.008
232,0.384867,141.963
233,0.386533,141.926
234,0.3882,142.299
235,0.389867,142.299
236,0.391533,142.142
237,0.3932,142.165
238,0.394867,142.165
239,0.396533,142.269
240,0.3982,142.299
241,0.399867,142.381
242,0.401533,142.381
243,0.4032,142.403
244,0.404867,142.15
245,0.406533,142.016
246,0.4082,142.016
247,0.4099,141.881
248,0.411533,141.852
249,0.4132,141.934
250,0.414867,141.934
251,0.416533,142.075
252,0.4182,142.582
253,0.419867,142.582
254,0.421533,142.723
255,0.423217,142.85
256,0.424867,142.813
257,0.426533,142.813
258,0.4282,142.939
259,0.429867,143.23
260,0.43155,143.409
261,0.4332,143.409
262,0.434867,143.439
263,0.436533,143.148
264,0.4382,143.215
265,0.439867,143.215
266,0.441533,143.513
267,0.4432,144.027
268,0.44485,144.027
269,0.446517,144.489
270,0.448183,144.884
271,0.44985,145.093
272,0.451583,145.093
273,0.453183,145.197
274,0.45485,145.286
275,0.456517,145.234
276,0.458183,145.234
277,0.45985,145.659
278,0.461517,146.233
279,0.463183,146.724
280,0.46485,146.724
281,0.466517,147.432
282,0.468183,147.76
283,0.46985,148.058
284,0.471517,148.058
285,0.473183,148.594
286,0.47485,148.959
287,0.476517,148.959
288,0.478183,149.287
289,0.479867,149.399
290,0.481517,149.481
291,0.483183,149.481
292,0.48495,149.66
293,0.486517,149.615
294,0.488183,149.533
295,0.48985,149.533
296,0.491517,149.608
297,0.493183,149.749
298,0.49485,149.965
299,0.496517,149.965
300,0.498183,150.286
301,0.49985,150.345
302,0.501517,150.345
303,0.503183,150.271
304,0.504833,149.98
305,0.5065,149.801
306,0.508167,149.801
307,0.509833,149.794
308,0.5115,149.451
309,0.513167,149.392
310,0.51485,149.392
311,0.5165,149.392
312,0.518167,149.034
313,0.519833,148.796
314,0.5215,148.796
315,0.523167,148.304
316,0.524833,147.805
317,0.5265,147.469
318,0.5281670000000001,147.469
319,0.529833,147.186
320,0.5315,147.201
321,0.5331669999999999,147.201
322,0.534833,147.246
323,0.536483,147.127
324,0.53815,147.372
325,0.539817,147.372
326,0.541483,147.305
327,0.54315,146.985
328,0.544817,146.68
329,0.5464830000000001,146.68
330,0.54815,146.151
331,0.5498499999999999,146.061
332,0.5514829999999999,145.927
333,0.55315,145.927
334,0.554817,145.86
335,0.5564829999999999,145.733
336,0.55815,145.733
337,0.559817,145.562
338,0.561483,145.487
339,0.56315,145.525
340,0.5648,145.525
341,0.5664670000000001,145.257
342,0.568133,144.988
343,0.569833,144.847
344,0.5714669999999999,144.847
345,0.573133,144.72
346,0.5748,144.497
347,0.576467,144.526
348,0.578133,144.526
349,0.5798,144.415
350,0.581467,144.042
351,0.583133,144.161
352,0.5848,144.161
353,0.58655,144.266
354,0.588133,144.243
355,0.589817,144.243
356,0.591467,144.415
357,0.593133,144.191
358,0.5948,143.744
359,0.596467,143.744
360,0.598133,143.483
361,0.5998,143.468
362,0.601467,143.804
363,0.603233,143.804
364,0.6048,144.042
365,0.606483,143.774
366,0.608133,143.334
367,0.6098,143.334
368,0.611467,142.731
369,0.613133,142.261
370,0.6148,142.261
371,0.616467,142.328
372,0.618133,142.545
373,0.6198,143.014
374,0.621467,143.014
375,0.623133,143.126
376,0.624783,143.304
377,0.62645,143.118
378,0.62815,143.118
379,0.629783,142.694
380,0.63145,142.634
381,0.633117,142.507
382,0.634783,142.507
383,0.63645,142.47
384,0.638117,142.656
385,0.639783,142.656
386,0.64145,142.671
387,0.643117,142.738
388,0.644783,142.798
389,0.64645,142.798
390,0.6481170000000001,142.656
391,0.649783,142.783
392,0.65145,142.902
393,0.6531169999999999,142.902
394,0.654783,142.954
395,0.65645,142.813
396,0.658117,142.694
397,0.659783,142.694
398,0.66145,142.619
399,0.663117,142.448
400,0.664783,142.522
401,0.66645,142.522
402,0.668117,142.135
403,0.669783,141.867
404,0.67145,141.867
405,0.673133,142.068
406,0.674783,142.157
407,0.67645,142.626
408,0.678117,142.626
409,0.679783,142.716
410,0.68145,142.366
411,0.6831,142.008
412,0.684767,142.008
413,0.686433,141.799
414,0.688167,141.77
415,0.689767,141.762
416,0.691433,141.762
417,0.6931,141.799
418,0.694767,141.755
419,0.696433,141.755
420,0.698117,141.546
421,0.699767,141.598
422,0.701433,141.613
423,0.7030999999999999,141.613
424,0.704817,141.799
425,0.706433,142.045
426,0.7081,142.075
427,0.709767,142.075
428,0.711433,142.239
429,0.7131,142.209
430,0.714767,141.926
431,0.716433,141.926
432,0.7181,141.688
433,0.719767,141.3
434,0.7215,140.928
435,0.7231,140.928
436,0.7247670000000001,140.645
437,0.726433,140.719
438,0.7281,140.719
439,0.7297670000000001,141.01
440,0.731433,141.032
441,0.7331,141.345
442,0.7347669999999999,141.345
443,0.736433,141.323
444,0.738217,141.166
445,0.739767,141.434
446,0.741433,141.434
447,0.743083,141.628
448,0.74475,141.986
449,0.746417,142.12
450,0.7480830000000001,142.12
451,0.74975,141.554
452,0.751417,141.516
453,0.7530829999999999,141.516
454,0.75475,141.352
455,0.756417,141.315
456,0.758083,141.911
457,0.75975,141.911
458,0.761417,141.665
459,0.763083,141.606
460,0.76475,141.479
461,0.76645,141.479
462,0.768083,141.375
463,0.76975,141.509
464,0.771433,141.673
465,0.773083,141.673
466,0.77475,141.822
467,0.776417,141.583
468,0.778083,141.606
469,0.7797500000000001,141.606
470,0.781417,141.263
471,0.783083,141.203
472,0.7847499999999999,141.203
473,0.786417,141.315
474,0.788083,141.129
475,0.78975,141.151
476,0.791417,141.151
477,0.793083,141.382
478,0.79475,141.71
479,0.796417,141.941
480,0.798083,141.941
481,0.79975,142.038
482,0.801417,141.993
483,0.803067,141.397
484,0.804733,141.397
485,0.8064,141.233
486,0.808067,141.256
487,0.809733,141.256
488,0.8114,141.226
489,0.813067,141.367
490,0.814733,141.256
491,0.8164,141.256
492,0.818067,141.025
493,0.819733,140.712
494,0.8214,140.697
495,0.82315,140.697
496,0.824733,140.816
497,0.826383,141.263
498,0.82805,141.434
499,0.829717,141.434
500,0.831383,141.442
501,0.83305,141.524
502,0.834717,141.524
503,0.836383,141.397
504,0.83805,141.531
505,0.8397829999999999,141.799
506,0.841383,141.799
507,0.843083,142.075
508,0.844783,142.001
509,0.846383,141.926
510,0.84805,141.926
511,0.8497169999999999,141.889
512,0.851383,141.703
513,0.85305,141.606
514,0.8547169999999999,141.606
515,0.856483,141.494
516,0.85805,141.054
517,0.859717,140.719
518,0.861383,140.719
519,0.8630330000000001,140.756
520,0.8647,140.831
521,0.866367,140.831
522,0.8680330000000001,141.099
523,0.8697,141.412
524,0.871367,141.658
525,0.8730329999999999,141.658
526,0.8747,141.673
527,0.876367,141.993
528,0.878033,142.008
529,0.8797,142.008
530,0.881367,141.837
531,0.883033,142.03
532,0.8847,141.732
533,0.886367,141.732
534,0.888033,141.494
535,0.8897,141.583
536,0.891367,141.583
537,0.893033,141.241
538,0.8947000000000001,141.144
539,0.896367,141.107
540,0.898033,141.107
541,0.8997000000000001,140.935
542,0.901367,141.002
543,0.903033,141.032
544,0.9046999999999999,141.032
545,0.906367,141.144
546,0.908033,140.98
547,0.9097,141.002
548,0.911367,141.002
549,0.913033,141.047
550,0.914717,141.293
551,0.916367,141.487
552,0.918033,141.487
553,0.9197,141.39
554,0.921367,141.472
555,0.92305,141.472
556,0.924683,141.263
557,0.92635,141.084
558,0.928017,141.196
559,0.929683,141.196
560,0.93135,141.121
561,0.933017,141.025
562,0.934683,141.151
563,0.93635,141.151
564,0.938017,141.3
565,0.939683,141.375
566,0.941367,141.717
567,0.943017,141.717
568,0.9446830000000001,141.576
569,0.94635,141.479
570,0.948017,141.479
571,0.9496830000000001,141.472
572,0.95135,141.151
573,0.953017,141.233
574,0.9546829999999999,141.233
575,0.95635,141.144
576,0.958017,141.062
577,0.959683,141.293
578,0.96135,141.293
579,0.963017,141.3
580,0.964683,141.39
581,0.96635,141.27
582,0.968017,141.27
583,0.969683,141.017
584,0.97135,141.226
585,0.973017,141.472
586,0.9748,141.472
587,0.9763500000000001,141.576
588,0.978017,141.71
589,0.979683,141.71
590,0.9813499999999999,141.531
591,0.983,141.099
592,0.984667,141.121
593,0.986333,141.121
594,0.988,140.95
595,0.989683,141.062
596,0.99135,141.129
597,0.99305,141.129
598,0.994667,141.226
599,0.996333,141.315
600,0.998,141.33
601,0.999667,141.33
602,1.001333,141.151
603,1.003,141.278
604,1.004667,141.278
605,1.006333,141.285
606,1.008,141.352
607,1.009683,141.837
608,1.011333,141.837
609,1.013,141.621
610,1.014667,141.792
611,1.016367,141.867
612,1.018,141.867
613,1.019667,141.621
614,1.021333,141.568
615,1.023,141.218
