"ID","sea_time","fid_signal"
1,0,1173.094
2,0.001667,1172.051
3,0.003367,1168.624
4,0.005,1168.624
5,0.006667,1168.549
6,0.008333,1170.114
7,0.009983000000000001,1170.263
8,0.01165,1170.263
9,0.013317,1173.839
10,0.014983,1175.851
11,0.01665,1175.851
12,0.018317,1175.031
13,0.019983,1175.478
14,0.02165,1173.839
15,0.023317,1173.839
16,0.024983,1169.518
17,0.02665,1165.569
18,0.028317,1164.004
19,0.029983,1164.004
20,0.03165,1164.749
21,0.033317,1164.898
22,0.034983,1165.122
23,0.03665,1165.122
24,0.038317,1168.4
25,0.039983,1165.047
26,0.04165,1165.047
27,0.043317,1166.984
28,0.044983,1168.996
29,0.04675,1165.718
30,0.048317,1165.718
31,0.049983,1168.549
32,0.05165,1166.761
33,0.053317,1166.314
34,0.054983,1166.314
35,0.05665,1166.686
36,0.058317,1167.133
37,0.059983,1167.059
38,0.06165,1167.059
39,0.063317,1167.58
40,0.064983,1170.635
41,0.06665,1170.635
42,0.0683,1170.635
43,0.069967,1171.976
44,0.071633,1171.008
45,0.07331699999999999,1171.008
46,0.075017,1171.008
47,0.07663300000000001,1169.294
48,0.07829999999999999,1172.125
49,0.079967,1172.125
50,0.081633,1171.902
51,0.0833,1168.549
52,0.084967,1168.251
53,0.086633,1168.251
54,0.0883,1165.345
55,0.08996700000000001,1166.612
56,0.09163300000000001,1166.686
57,0.09329999999999999,1166.686
58,0.095,1165.792
59,0.096633,1164.153
60,0.0983,1164.153
61,0.099967,1162.514
62,0.101633,1164.675
63,0.1033,1169.145
64,0.104967,1169.145
65,0.106633,1173.019
66,0.1083,1173.317
67,0.109967,1174.063
68,0.111633,1174.063
69,0.1133,1170.412
70,0.114967,1167.506
71,0.116633,1168.102
72,0.1183,1168.102
73,0.119967,1168.326
74,0.121633,1167.58
75,0.1233,1167.357
76,0.124967,1167.357
77,0.126633,1166.835
78,0.128283,1163.557
79,0.12995,1163.557
80,0.1317,1166.761
81,0.133283,1168.773
82,0.13495,1167.804
83,0.136617,1167.804
84,0.138283,1170.784
85,0.13995,1167.58
86,0.141633,1164.526
87,0.143283,1164.526
88,0.144933,1167.357
89,0.1466,1164.749
90,0.148267,1164.451
91,0.149933,1164.451
92,0.1516,1164.824
93,0.153267,1162.961
94,0.154933,1162.961
95,0.1566,1164.973
96,0.158267,1165.271
97,0.159933,1165.569
98,0.1616,1165.569
99,0.163267,1165.643
100,0.16505,1164.898
101,0.166617,1167.58
102,0.168267,1167.58
103,0.169933,1168.698
104,0.1716,1168.251
105,0.173267,1168.027
106,0.174933,1168.027
107,0.1766,1166.314
108,0.178267,1165.196
109,0.17995,1165.569
110,0.181633,1165.569
111,0.183267,1165.345
112,0.184933,1165.271
113,0.1866,1165.271
114,0.188267,1167.879
115,0.189917,1171.008
116,0.191583,1170.263
117,0.19325,1170.263
118,0.194917,1170.561
119,0.196583,1170.412
120,0.19825,1169.369
121,0.199917,1169.369
122,0.201583,1168.624
123,0.20325,1165.792
124,0.204917,1163.334
125,0.206583,1163.334
126,0.20825,1160.8
127,0.209917,1164.302
128,0.211583,1164.302
129,0.21325,1169.071
130,0.21495,1172.2
131,0.216583,1174.807
132,0.21825,1174.807
133,0.219917,1174.286
134,0.221583,1171.976
135,0.22325,1169.071
136,0.224917,1169.071
137,0.226583,1168.773
138,0.22825,1166.537
139,0.229917,1166.686
140,0.231583,1166.686
141,0.23325,1168.773
142,0.234917,1167.729
143,0.236583,1167.729
144,0.23825,1168.4
145,0.239917,1168.549
146,0.241583,1168.922
147,0.24325,1168.922
148,0.244917,1169.369
149,0.246583,1170.71
150,0.248233,1172.349
151,0.249967,1172.349
152,0.251567,1170.039
153,0.253233,1168.624
154,0.2549,1170.039
155,0.256567,1170.039
156,0.258233,1167.357
157,0.2599,1170.114
158,0.2616,1169.592
159,0.263233,1169.592
160,0.2649,1166.314
161,0.266567,1165.569
162,0.268233,1165.569
163,0.2699,1162.216
164,0.271567,1161.695
165,0.273233,1164.898
166,0.2749,1164.898
167,0.276567,1166.537
168,0.278233,1168.251
169,0.2799,1170.635
170,0.281567,1170.635
171,0.2833,1168.326
172,0.2849,1171.306
173,0.286567,1173.541
174,0.288233,1173.541
175,0.2899,1171.529
176,0.291567,1168.847
177,0.29325,1168.847
178,0.2949,1166.314
179,0.296567,1165.345
180,0.298233,1167.655
181,0.2999,1167.655
182,0.301567,1171.902
183,0.303233,1170.635
184,0.3049,1168.177
185,0.30655,1168.177
186,0.308233,1168.251
187,0.309883,1168.027
188,0.31155,1168.4
189,0.313217,1168.4
190,0.314883,1169.816
191,0.31655,1168.624
192,0.318217,1166.016
193,0.319883,1166.016
194,0.32155,1169.071
195,0.323217,1169.071
196,0.324883,1169.071
197,0.32655,1168.251
198,0.328217,1169.592
199,0.329883,1168.922
200,0.33155,1168.922
201,0.333217,1168.847
202,0.334883,1171.306
203,0.33655,1172.125
204,0.338217,1172.125
205,0.339883,1169.22
206,0.34155,1167.357
207,0.343217,1166.314
208,0.344933,1166.314
209,0.34655,1166.686
210,0.348217,1167.432
211,0.349883,1167.432
212,0.35155,1167.804
213,0.353217,1167.953
214,0.354883,1167.953
215,0.35655,1167.953
216,0.358217,1167.879
217,0.359883,1167.432
218,0.36155,1167.58
219,0.363217,1167.58
220,0.364883,1167.879
221,0.366533,1167.282
222,0.368267,1170.71
223,0.369867,1170.71
224,0.371533,1169.145
225,0.3732,1167.58
226,0.374867,1168.326
227,0.376533,1168.326
228,0.3782,1165.941
229,0.379867,1169.22
230,0.381533,1169.22
231,0.3832,1170.71
232,0.384967,1171.082
233,0.386533,1171.902
234,0.3882,1171.902
235,0.389867,1168.326
236,0.391533,1169.443
237,0.3932,1170.859
238,0.394883,1170.859
239,0.396533,1171.455
240,0.3982,1172.945
241,0.399867,1173.541
242,0.401633,1173.541
243,0.4032,1173.541
244,0.404867,1173.392
245,0.406533,1173.392
246,0.4082,1174.212
247,0.409867,1173.913
248,0.411533,1175.553
249,0.4132,1175.553
250,0.414867,1178.607
251,0.416533,1182.482
252,0.4182,1186.579
253,0.419867,1186.579
254,0.421533,1190.379
255,0.4232,1195.744
256,0.424867,1200.438
257,0.426517,1200.438
258,0.428183,1206.92
259,0.42985,1215.637
260,0.431517,1215.637
261,0.433183,1225.099
262,0.4349,1236.051
263,0.436583,1242.831
264,0.438167,1242.831
265,0.439833,1254.305
266,0.4415,1263.395
267,0.443167,1274.645
268,0.444833,1274.645
269,0.4465,1287.237
270,0.448167,1300.648
271,0.449833,1318.082
272,0.4515,1318.082
273,0.453167,1332.834
274,0.454833,1351.982
275,0.4565,1368.672
276,0.458167,1368.672
277,0.459833,1386.255
278,0.4615,1406.372
279,0.463167,1406.372
280,0.464833,1428.872
281,0.4665,1452.416
282,0.468167,1479.983
283,0.469833,1479.983
284,0.4715,1508.892
285,0.473167,1539.066
286,0.474833,1573.116
287,0.4765,1573.116
288,0.478167,1612.455
289,0.479833,1663.566
290,0.4815,1730.397
291,0.483167,1730.397
292,0.484833,1818.24
293,0.486483,1939.908
294,0.48815,1939.908
295,0.489817,2105.385
296,0.491483,2327.487
297,0.49315,2621.785
298,0.494817,2621.785
299,0.496483,2993.42
300,0.49815,3455.654
301,0.499833,4015.49
302,0.501483,4015.49
303,0.503217,4671.142
304,0.504817,5426.333
305,0.506517,6270.409
306,0.50815,6270.409
307,0.509817,7195.324
308,0.511483,8189.902
309,0.51315,9242.072
310,0.514817,9242.072
311,0.516483,10337.979
312,0.51815,11464.507
313,0.519917,11464.507
314,0.521483,12614.802
315,0.52315,13770.313
316,0.524817,14925.301
317,0.526483,14925.301
318,0.52815,16073.957
319,0.529817,17204.807
320,0.531483,18317.402
321,0.53315,18317.402
322,0.534817,19408.762
323,0.536583,20468.533
324,0.53815,21499.768
325,0.539817,21499.768
326,0.541483,22499.412
327,0.54315,23466.721
328,0.544817,23466.721
329,0.5464830000000001,24397.895
330,0.54815,25290.922
331,0.5498,26144.98
332,0.551467,26144.98
333,0.553133,26954.412
334,0.5548,27731.881
335,0.556467,28472.543
336,0.558133,28472.543
337,0.5598,29174.984
338,0.561467,29845.76
339,0.563133,30477.195
340,0.5648,30477.195
341,0.5664670000000001,31075.105
342,0.568133,31642.318
343,0.569817,32177.643
344,0.5714669999999999,32177.643
345,0.573133,32683.611
346,0.5748,33163.355
347,0.576467,33163.355
348,0.578133,33612.625
349,0.5798,34037.754
350,0.581467,34438.148
351,0.583133,34438.148
352,0.5848,34817.309
353,0.586467,35177.992
354,0.58815,35516.395
355,0.5898,35516.395
356,0.591467,35834.313
357,0.593133,36132.188
358,0.5948,36413.52
359,0.596467,36413.52
360,0.598133,36676.898
361,0.5998,36925.004
362,0.601467,36925.004
363,0.603133,37155.449
364,0.604783,37371.813
365,0.60645,37580.805
366,0.608117,37580.805
367,0.609783,37783.086
368,0.61145,37975.238
369,0.613117,38158.52
370,0.614783,38158.52
371,0.6164500000000001,38327.203
372,0.618117,38483.516
373,0.619783,38635.434
374,0.6215000000000001,38635.434
375,0.623117,38776.176
376,0.624783,38909.465
377,0.62645,38909.465
378,0.628117,39036.871
379,0.629783,39145.203
380,0.63145,39240.867
381,0.633117,39240.867
382,0.634783,39320.363
383,0.63645,39369.984
384,0.6381829999999999,39388.836
385,0.639783,39388.836
386,0.64145,39363.281
387,0.643117,39284.379
388,0.6448,39137.453
389,0.64645,39137.453
390,0.6481170000000001,38898.586
391,0.649783,38544.609
392,0.65145,38048.027
393,0.6531169999999999,38048.027
394,0.65485,37386.043
395,0.65645,36539.957
396,0.658117,36539.957
397,0.659783,35494.344
398,0.66145,34257.324
399,0.663117,32851.844
400,0.664783,32851.844
401,0.6664330000000001,31322.762
402,0.6681,29727.443
403,0.669767,28112.605
404,0.6714329999999999,28112.605
405,0.6731,26524.887
406,0.674767,24998.262
407,0.676433,23554.639
408,0.6781,23554.639
409,0.679783,22200.197
410,0.681433,20945.816
411,0.6831,20945.816
412,0.684767,19788.816
413,0.686433,18720.775
414,0.6881,17742.365
415,0.689767,17742.365
416,0.691433,16843.453
417,0.6931,16010.701
418,0.694767,15245.304
419,0.696433,15245.304
420,0.6981000000000001,14543.533
421,0.699767,13893.769
422,0.701433,13296.008
423,0.7030999999999999,13296.008
424,0.704767,12744.441
425,0.706433,12234.599
426,0.7081,11761.338
427,0.709767,11761.338
428,0.71145,11326
429,0.7131,10919.272
430,0.714767,10919.272
431,0.716433,10538.176
432,0.7181,10180.474
433,0.719767,9844.228999999999
434,0.721433,9844.228999999999
435,0.7231,9533.763000000001
436,0.7247670000000001,9238.869000000001
437,0.726433,8963.197
438,0.728067,8963.197
439,0.729733,8702.278
440,0.7314000000000001,8454.620999999999
441,0.733067,8222.684999999999
442,0.734733,8222.684999999999
443,0.7364000000000001,8003.637
444,0.738067,7798.821
445,0.7398,7601.678
446,0.7413999999999999,7601.678
447,0.743067,7417.5
448,0.74475,7243.976
449,0.7464,7243.976
450,0.748067,7077.008
451,0.749733,6916.97
452,0.7514,6759.167
453,0.753067,6759.167
454,0.754733,6607.995
455,0.756467,6463.826
456,0.758067,6329.715
457,0.759733,6329.715
458,0.761433,6202.385
459,0.7630670000000001,6079.152
460,0.764733,5960.837
461,0.7664,5960.837
462,0.7680670000000001,5844.384
463,0.769733,5731.881
464,0.7714,5731.881
465,0.773167,5624.071
466,0.774733,5520.582
467,0.7764,5420.446
468,0.778067,5420.446
469,0.779733,5327.24
470,0.7814,5236.119
471,0.783067,5148.5
472,0.784733,5148.5
473,0.7864,5060.435
474,0.78805,4975.721
475,0.78975,4893.169
476,0.7913829999999999,4893.169
477,0.79305,4810.84
478,0.794717,4733.652
479,0.796383,4733.652
480,0.79805,4656.315
481,0.799717,4583.821
482,0.801383,4513.562
483,0.80305,4513.562
484,0.804717,4444.718
485,0.806383,4378.632
486,0.80805,4312.172
487,0.809717,4312.172
488,0.811383,4246.905
489,0.8130500000000001,4185.289
490,0.814717,4123.971
491,0.816383,4123.971
492,0.8180500000000001,4067.645
493,0.819717,4014.224
494,0.821383,4014.224
495,0.8230499999999999,3964.603
496,0.824717,3912.672
497,0.826383,3860.965
498,0.82805,3860.965
499,0.829717,3812.611
500,0.831383,3763.735
501,0.83305,3719.777
502,0.834717,3719.777
503,0.836383,3675.595
504,0.83805,3630.444
505,0.83975,3582.761
506,0.841383,3582.761
507,0.84305,3536.716
508,0.8447170000000001,3489.181
509,0.846367,3444.105
510,0.848033,3444.105
511,0.8497,3405.139
512,0.851367,3363.788
513,0.853033,3363.788
514,0.8547,3328.994
515,0.856367,3291.89
516,0.858083,3251.88
517,0.8597,3251.88
518,0.861367,3220.439
519,0.8630330000000001,3189.817
520,0.8647,3160.015
521,0.866367,3160.015
522,0.8680330000000001,3128.573
523,0.8697,3095.046
524,0.871367,3061.518
525,0.8730329999999999,3061.518
526,0.8747,3027.99
527,0.876367,2998.71
528,0.878033,2998.71
529,0.8797,2972.111
530,0.881367,2941.713
531,0.883033,2914.22
532,0.8847,2914.22
533,0.886367,2887.696
534,0.888033,2856.404
535,0.8897,2829.88
536,0.89145,2829.88
537,0.893033,2805.144
538,0.8947000000000001,2781.823
539,0.896367,2760.068
540,0.898033,2760.068
541,0.8997000000000001,2736.598
542,0.901367,2712.16
543,0.903033,2688.766
544,0.9046999999999999,2688.766
545,0.906367,2667.084
546,0.908017,2646.223
547,0.909683,2646.223
548,0.91135,2627.894
549,0.913017,2605.766
550,0.914683,2582.148
551,0.91635,2582.148
552,0.918017,2560.914
553,0.919683,2537.891
554,0.92135,2520.531
555,0.923017,2520.531
556,0.924683,2502.278
557,0.92635,2482.385
558,0.928017,2463.758
559,0.929683,2463.758
560,0.93135,2442.375
561,0.93305,2427.176
562,0.934683,2427.176
563,0.9363669999999999,2412.125
564,0.938017,2396.33
565,0.939683,2381.354
566,0.94135,2381.354
567,0.943017,2367.124
568,0.9446830000000001,2350.062
569,0.94635,2333.447
570,0.948017,2333.447
571,0.9496830000000001,2318.174
572,0.95135,2300.069
573,0.953017,2283.826
574,0.9546829999999999,2283.826
575,0.95635,2268.627
576,0.958017,2253.13
577,0.959683,2236.962
578,0.96135,2236.962
579,0.963017,2226.68
580,0.964683,2215.207
581,0.96635,2215.207
582,0.968,2202.019
583,0.9696669999999999,2190.471
584,0.971333,2177.954
585,0.973017,2177.954
586,0.974667,2164.841
587,0.976417,2153.218
588,0.978,2140.179
589,0.979667,2140.179
590,0.981333,2127.662
591,0.983,2116.337
592,0.984667,2105.683
593,0.986333,2105.683
594,0.988,2094.88
595,0.989667,2083.555
596,0.991333,2083.555
597,0.993,2074.763
598,0.994667,2062.991
599,0.996333,2051.443
600,0.998,2051.443
601,0.999667,2038.553
602,1.001333,2024.844
603,1.003,2016.053
604,1.004667,2016.053
605,1.006333,2010.092
606,1.008,2001.077
607,1.009767,1993.999
608,1.011367,1993.999
609,1.013,1984.015
610,1.014667,1972.988
611,1.016333,1966.134
612,1.018,1966.134
613,1.01965,1955.554
614,1.021317,1948.55
615,1.022983,1948.55
616,1.02465,1940.429
617,1.026317,1930.892
618,1.027967,1923.74
619,1.029633,1923.74
620,1.0313,1916.662
621,1.032967,1905.784
622,1.034633,1898.781
623,1.0363,1898.781
624,1.037967,1891.404
625,1.039633,1879.334
626,1.0413,1873.151
627,1.042967,1873.151
628,1.044633,1862.943
629,1.0463,1856.685
630,1.047967,1856.685
631,1.049633,1851.246
632,1.0513,1846.626
633,1.052967,1839.101
634,1.054633,1839.101
635,1.0563,1828.447
636,1.057967,1821.071
637,1.059633,1810.342
638,1.0613,1810.342
639,1.062967,1803.786
640,1.064633,1797.974
641,1.0663,1792.163
642,1.067967,1792.163
643,1.069633,1787.618
644,1.0713,1784.563
645,1.072967,1784.563
646,1.074633,1778.677
647,1.076333,1771.599
648,1.077983,1764.372
649,1.079633,1764.372
650,1.0813,1756.251
651,1.082967,1750.067
652,1.084633,1741.946
653,1.0863,1741.946
654,1.08795,1734.421
655,1.089617,1727.492
656,1.091283,1722.127
657,1.09295,1722.127
658,1.09465,1720.116
659,1.096283,1715.273
660,1.09795,1709.461
661,1.099617,1709.461
662,1.101283,1702.607
663,1.10295,1692.772
664,1.104617,1692.772
665,1.106283,1690.239
666,1.10795,1686.364
667,1.109617,1684.725
668,1.111283,1684.725
669,1.11295,1683.235
670,1.114617,1677.945
671,1.116283,1673.549
672,1.11795,1673.549
673,1.119617,1666.993
674,1.121283,1661.33
675,1.12295,1656.041
676,1.124617,1656.041
677,1.126283,1650.974
678,1.128033,1645.237
679,1.129617,1645.237
680,1.131283,1639.649
681,1.13295,1633.316
682,1.134617,1630.038
683,1.136283,1630.038
684,1.13795,1625.94
685,1.139617,1624.823
686,1.141283,1623.109
687,1.14295,1623.109
688,1.144617,1617.074
689,1.146283,1611.784
690,1.14795,1604.408
691,1.1496,1604.408
692,1.151267,1597.553
693,1.152933,1592.86
694,1.154617,1588.687
695,1.156333,1588.687
696,1.158017,1583.397
697,1.1596,1581.237
698,1.161267,1581.237
699,1.162933,1578.629
700,1.1646,1577.213
701,1.166267,1574.904
702,1.167933,1574.904
703,1.1696,1570.433
704,1.171267,1566.336
705,1.172933,1564.622
706,1.1746,1564.622
707,1.176267,1564.175
708,1.177933,1561.642
709,1.1796,1560.077
710,1.181267,1560.077
711,1.182933,1553.073
712,1.1846,1547.635
713,1.186267,1547.635
714,1.187933,1544.058
715,1.1896,1537.502
716,1.191267,1533.628
717,1.192933,1533.628
718,1.1946,1529.381
719,1.196267,1523.346
720,1.197933,1523.122
721,1.1996,1523.122
722,1.201267,1519.993
723,1.202933,1518.95
724,1.2046,1516.789
725,1.20625,1516.789
726,1.207917,1511.574
727,1.209583,1512.319
728,1.21125,1512.319
729,1.212933,1511.574
730,1.214583,1513.436
731,1.21625,1514.703
732,1.217917,1514.703
733,1.219583,1511.052
734,1.22125,1507.178
735,1.222933,1501.218
736,1.224583,1501.218
737,1.22625,1495.182
738,1.227917,1491.234
739,1.229667,1487.732
740,1.23125,1487.732
741,1.232917,1483.411
742,1.234583,1481.175
743,1.23625,1478.568
744,1.237917,1478.568
745,1.239583,1473.874
746,1.24125,1470.447
747,1.242917,1470.447
748,1.244583,1466.274
749,1.24635,1462.102
750,1.247917,1459.867
751,1.249583,1459.867
752,1.25125,1457.855
753,1.252917,1454.353
754,1.254583,1450.777
755,1.25625,1450.777
756,1.257917,1448.169
757,1.259583,1447.722
758,1.26125,1446.232
759,1.262917,1446.232
760,1.264583,1444.668
761,1.266233,1441.911
762,1.2679,1441.911
763,1.269567,1438.037
764,1.271233,1438.782
765,1.2729,1437.888
766,1.274567,1437.888
767,1.276233,1434.907
768,1.2779,1434.311
769,1.279567,1432.002
770,1.281233,1432.002
771,1.2829,1429.841
772,1.284567,1429.021
773,1.286233,1426.339
774,1.2879,1426.339
775,1.289567,1422.688
776,1.291233,1421.496
777,1.2929,1419.485
778,1.294567,1419.485
779,1.296233,1418.889
780,1.297917,1414.865
781,1.299567,1414.865
782,1.301233,1411.438
783,1.3029,1411.885
784,1.304567,1412.109
785,1.306233,1412.109
786,1.3079,1412.779
787,1.309567,1413.226
788,1.311217,1408.16
789,1.312917,1408.16
790,1.31455,1404.434
791,1.316217,1401.38
792,1.317883,1399.517
793,1.31955,1399.517
794,1.321217,1399.666
795,1.322883,1396.686
796,1.32455,1396.686
797,1.326217,1392.737
798,1.327867,1390.353
799,1.329533,1391.396
800,1.33125,1391.396
801,1.332867,1390.651
802,1.334533,1391.768
803,1.3362,1389.831
804,1.337867,1389.831
805,1.339533,1382.977
806,1.3412,1381.859
807,1.342867,1379.102
808,1.344533,1379.102
809,1.3462,1374.185
810,1.347933,1370.46
811,1.349533,1369.417
812,1.3512,1369.417
813,1.352867,1369.268
814,1.354533,1370.907
815,1.3562,1370.907
816,1.357867,1372.024
817,1.359533,1368.672
818,1.3612,1366.064
819,1.362867,1366.064
820,1.3646,1361.668
821,1.3662,1359.135
822,1.367867,1356.676
823,1.369533,1356.676
824,1.3712,1354.888
825,1.372867,1357.421
826,1.374533,1357.421
827,1.376217,1357.421
828,1.377867,1358.39
829,1.379533,1358.762
830,1.381317,1358.464
831,1.382867,1358.464
832,1.384517,1360.104
833,1.386183,1359.209
834,1.38785,1359.209
835,1.389517,1354.739
836,1.391183,1352.727
837,1.39285,1351.237
838,1.394517,1351.237
839,1.396183,1348.183
840,1.39785,1348.779
841,1.399517,1342.595
842,1.401183,1342.595
843,1.40285,1338.944
844,1.404517,1337.677
845,1.406217,1335.368
846,1.40785,1335.368
847,1.409517,1336.932
848,1.411183,1337.528
849,1.41285,1337.528
850,1.414517,1336.336
851,1.416183,1335.591
852,1.41785,1332.611
853,1.419517,1332.611
854,1.421183,1329.631
855,1.42285,1330.003
856,1.424517,1327.843
857,1.426183,1327.843
858,1.42785,1328.364
859,1.429517,1325.384
860,1.431183,1320.913
861,1.43285,1320.913
862,1.434517,1321.137
863,1.436183,1322.105
864,1.43785,1322.105
865,1.439517,1320.913
866,1.441183,1318.678
867,1.44285,1319.349
868,1.444533,1319.349
869,1.446167,1315.773
870,1.447833,1319.349
871,1.4495,1322.776
872,1.451167,1322.776
873,1.452833,1320.466
874,1.4545,1322.553
875,1.456167,1319.647
876,1.457833,1319.647
877,1.4595,1317.933
878,1.461167,1316.443
879,1.462833,1316.443
880,1.4645,1314.059
881,1.466283,1309.663
882,1.467833,1305.193
883,1.4695,1305.193
884,1.471167,1301.765
885,1.472833,1299.903
886,1.4745,1304.746
887,1.476167,1304.746
888,1.477833,1305.565
889,1.4795,1309.812
890,1.481167,1310.036
891,1.482917,1310.036
892,1.4845,1305.267
893,1.486167,1306.012
894,1.48785,1301.244
895,1.4895,1301.244
896,1.491167,1295.209
897,1.492833,1296.774
898,1.4945,1296.774
899,1.496167,1296.103
900,1.497833,1296.103
901,1.499583,1299.158
902,1.501167,1299.158
903,1.502833,1297.593
904,1.5045,1295.656
905,1.50615,1296.625
906,1.507817,1296.625
907,1.509483,1294.315
908,1.51115,1292.378
909,1.512817,1289.844
