"ID","sea_time","fid_signal"
1,0,38.385
2,0.001667,38.385
3,0.003333,38.408
4,0.005,38.373
5,0.006667,38.373
6,0.008333,38.312
7,0.01,38.137
8,0.011667,37.927
9,0.013333,37.927
10,0.015,37.81
11,0.016667,37.78
12,0.018333,37.897
13,0.02,37.897
14,0.021667,38.03
15,0.023333,38.106
16,0.025,38.106
17,0.026667,38.13
18,0.028367,38.111
19,0.029983,38.107
20,0.03165,38.107
21,0.033317,38.136
22,0.035033,38.11
23,0.03665,38.095
24,0.038317,38.095
25,0.039983,38.124
26,0.04165,38.122
27,0.043317,38.131
28,0.044983,38.131
29,0.04665,38.153
30,0.048317,38.166
31,0.049983,38.131
32,0.05165,38.131
33,0.053367,38.128
34,0.054983,38.134
35,0.05665,38.134
36,0.058317,38.121
37,0.059983,38.119
38,0.06165,38.127
39,0.063317,38.127
40,0.064983,38.11
41,0.06665,38.11
42,0.068317,38.148
43,0.069983,38.148
44,0.07165000000000001,38.159
45,0.07331699999999999,38.17
46,0.07498299999999999,38.175
47,0.07665,38.175
48,0.078317,38.145
49,0.079983,38.129
50,0.08165,38.129
51,0.083317,38.119
52,0.084983,38.107
53,0.086767,38.124
54,0.08831700000000001,38.124
55,0.08996700000000001,38.113
56,0.09163300000000001,38.124
57,0.09329999999999999,38.094
58,0.094967,38.094
59,0.09661699999999999,38.075
60,0.098283,38.11
61,0.09995,38.126
62,0.101617,38.126
63,0.103283,38.14
64,0.10495,38.161
65,0.106617,38.128
66,0.108317,38.128
67,0.110017,38.097
68,0.111617,38.125
69,0.113283,38.125
70,0.11495,38.13
71,0.116617,38.128
72,0.118283,38.143
73,0.11995,38.143
74,0.121617,38.107
75,0.123283,38.11
76,0.12495,38.138
77,0.126617,38.138
78,0.128283,38.135
79,0.12995,38.148
80,0.131617,38.101
81,0.133283,38.101
82,0.13495,38.075
83,0.136617,38.057
84,0.138283,38.057
85,0.13995,38.043
86,0.141617,38.051
87,0.143283,38.073
88,0.14495,38.073
89,0.146617,38.081
90,0.148267,38.114
91,0.149933,38.132
92,0.1516,38.132
93,0.153267,38.142
94,0.154933,38.131
95,0.156617,38.102
96,0.158267,38.102
97,0.159933,38.134
98,0.1616,38.128
99,0.163267,38.134
100,0.164933,38.134
101,0.1666,38.14
102,0.168267,38.128
103,0.169933,38.128
104,0.17165,38.099
105,0.173267,38.101
106,0.174967,38.108
107,0.1766,38.108
108,0.178267,38.103
109,0.179933,38.116
110,0.1816,38.133
111,0.183267,38.133
112,0.184967,38.144
113,0.1866,38.154
114,0.188333,38.17
115,0.189933,38.17
116,0.1916,38.153
117,0.193267,38.157
118,0.194933,38.157
119,0.1966,38.127
120,0.198267,38.131
121,0.199933,38.163
122,0.2016,38.163
123,0.203267,38.169
124,0.205033,38.174
125,0.2066,38.151
126,0.208267,38.151
127,0.209917,38.143
128,0.211583,38.125
129,0.21325,38.117
130,0.214917,38.117
131,0.216583,38.122
132,0.21825,38.101
133,0.219917,38.101
134,0.221583,38.109
135,0.22325,38.129
136,0.224917,38.131
137,0.226583,38.131
138,0.22825,38.16
139,0.229917,38.171
140,0.231583,38.159
141,0.23325,38.159
142,0.234917,38.172
143,0.236583,38.157
144,0.23825,38.157
145,0.239917,38.157
146,0.241583,38.178
147,0.24325,38.181
148,0.244917,38.193
149,0.246583,38.193
150,0.24825,38.197
151,0.249967,38.192
152,0.251583,38.192
153,0.25325,38.181
154,0.254917,38.166
155,0.256583,38.127
156,0.25825,38.127
157,0.259917,38.132
158,0.261583,38.149
159,0.26325,38.173
160,0.264917,38.173
161,0.266567,38.229
162,0.268267,38.224
163,0.26995,38.223
164,0.271567,38.223
165,0.273233,38.187
166,0.2749,38.16
167,0.276567,38.16
168,0.278233,38.162
169,0.2799,38.144
170,0.281567,38.146
171,0.283233,38.146
172,0.2849,38.128
173,0.286567,38.105
174,0.288233,38.091
175,0.289917,38.091
176,0.291567,38.116
177,0.293233,38.118
178,0.2949,38.134
179,0.296567,38.134
180,0.298233,38.163
181,0.2999,38.161
182,0.301567,38.186
183,0.303233,38.186
184,0.3049,38.187
185,0.306567,38.161
186,0.308233,38.161
187,0.3099,38.161
188,0.311567,38.149
189,0.313233,38.137
190,0.3149,38.137
191,0.316567,38.137
192,0.318233,38.138
193,0.3199,38.143
194,0.321567,38.143
195,0.323267,38.168
196,0.3249,38.178
197,0.326567,38.187
198,0.328217,38.187
199,0.329883,38.198
200,0.33155,38.195
201,0.333217,38.195
202,0.334883,38.21
203,0.33655,38.198
204,0.338217,38.18
205,0.339983,38.18
206,0.34155,38.169
207,0.343217,38.149
208,0.344883,38.145
209,0.34655,38.145
210,0.348217,38.179
211,0.349883,38.213
212,0.35155,38.232
213,0.353217,38.232
214,0.354883,38.246
215,0.35655,38.244
216,0.358217,38.254
217,0.3599,38.254
218,0.36155,38.263
219,0.363217,38.25
220,0.364883,38.25
221,0.36655,38.22
222,0.368217,38.198
223,0.369883,38.21
224,0.37155,38.21
225,0.373217,38.233
226,0.374883,38.281
227,0.37655,38.297
228,0.378217,38.297
229,0.379883,38.302
230,0.38155,38.319
231,0.383217,38.328
232,0.384883,38.328
233,0.38655,38.368
234,0.388183,38.439
235,0.38985,38.439
236,0.391517,38.512
237,0.393183,38.562
238,0.39485,38.641
239,0.396567,38.641
240,0.398183,38.712
241,0.39985,38.828
242,0.401517,38.998
243,0.403183,38.998
244,0.40485,39.18
245,0.406517,39.439
246,0.408183,39.729
247,0.40985,39.729
248,0.411517,40.118
249,0.413183,40.617
250,0.41485,40.617
251,0.416517,41.211
252,0.418183,41.988
253,0.41985,42.874
254,0.421517,42.874
255,0.423183,43.954
256,0.424933,45.257
257,0.426517,46.766
258,0.428183,46.766
259,0.42985,48.588
260,0.431517,50.674
261,0.433183,53.028
262,0.43485,53.028
263,0.436517,55.707
264,0.438183,58.683
265,0.43985,61.978
266,0.441633,61.978
267,0.443183,65.652
268,0.44485,69.691
269,0.446517,69.691
270,0.448167,74.104
271,0.449833,78.876
272,0.4515,84.001
273,0.453167,84.001
274,0.454833,89.404
275,0.4565,95.11
276,0.4583,101.158
277,0.459833,101.158
278,0.4615,107.468
279,0.463167,114.087
280,0.464833,120.932
281,0.4665,120.932
282,0.468167,127.982
283,0.469867,135.243
284,0.4715,135.243
285,0.473167,142.67
286,0.474833,150.305
287,0.4765,158.091
288,0.478167,158.091
289,0.479833,166.006
290,0.4815,174.022
291,0.483167,182.124
292,0.484833,182.124
293,0.4865,190.334
294,0.488167,198.678
295,0.489833,207.147
296,0.4915,207.147
297,0.493167,215.781
298,0.494833,224.595
299,0.4965,233.613
300,0.498167,233.613
301,0.499833,242.96
302,0.5014999999999999,252.681
303,0.503167,252.681
304,0.504833,262.963
305,0.5065,273.958
306,0.50815,285.946
307,0.509817,285.946
308,0.511483,299.267
309,0.51315,314.33
310,0.514817,331.76
311,0.516483,331.76
312,0.51815,352.24
313,0.519817,376.641
314,0.521517,405.973
315,0.52315,405.973
316,0.524817,441.281
317,0.526483,483.84
318,0.52815,483.84
319,0.529817,534.9059999999999
320,0.531483,595.701
321,0.53315,667.3630000000001
322,0.534817,667.3630000000001
323,0.536483,750.773
324,0.53815,846.486
325,0.539817,954.696
326,0.541483,954.696
327,0.543183,1075.217
328,0.544817,1207.218
329,0.5464830000000001,1349.52
330,0.54815,1349.52
331,0.549817,1500.328
332,0.5514829999999999,1657.42
333,0.55315,1818.333
334,0.554817,1818.333
335,0.5564829999999999,1980.273
336,0.55815,2140.444
337,0.55985,2140.444
338,0.561483,2295.934
339,0.56315,2443.934
340,0.564817,2581.832
341,0.566483,2581.832
342,0.568133,2707.325
343,0.5698,2818.496
344,0.5714669999999999,2913.869
345,0.573133,2913.869
346,0.5748,2992.504
347,0.576467,3053.85
348,0.578133,3097.826
349,0.5798,3097.826
350,0.581467,3124.655
351,0.583133,3134.853
352,0.5848,3134.853
353,0.586467,3129.246
354,0.588133,3108.894
355,0.5898,3075.15
356,0.591467,3075.15
357,0.593133,3029.367
358,0.5948,2973.028
359,0.596467,2907.649
360,0.598133,2907.649
361,0.5998,2834.683
362,0.601467,2755.635
363,0.603133,2671.842
364,0.6048,2671.842
365,0.606467,2584.519
366,0.608183,2494.748
367,0.6098,2403.522
368,0.611467,2403.522
369,0.61315,2311.694
370,0.6148,2220.021
371,0.616467,2220.021
372,0.618133,2129.218
373,0.6198,2039.783
374,0.621467,1952.218
375,0.623133,1952.218
376,0.6248,1866.968
377,0.626467,1784.282
378,0.628117,1704.442
379,0.629783,1704.442
380,0.63145,1627.625
381,0.633117,1553.951
382,0.634783,1483.471
383,0.63645,1483.471
384,0.638117,1416.21
385,0.639783,1352.209
386,0.64145,1352.209
387,0.643117,1291.376
388,0.644783,1233.671
389,0.64645,1179.039
390,0.6481170000000001,1179.039
391,0.649783,1127.277
392,0.65145,1078.309
393,0.6531169999999999,1032.048
394,0.654783,1032.048
395,0.65645,988.3440000000001
396,0.658117,947.107
397,0.659783,908.25
398,0.661467,908.25
399,0.663117,871.6079999999999
400,0.664783,837.0650000000001
401,0.66645,837.0650000000001
402,0.668117,804.4880000000001
403,0.669783,773.732
404,0.67145,744.696
405,0.673117,744.696
406,0.674783,717.263
407,0.67645,691.351
408,0.678167,666.866
409,0.679767,666.866
410,0.681433,643.698
411,0.6831,621.793
412,0.6848,601.049
413,0.686467,601.049
414,0.688083,581.383
415,0.68975,562.76
416,0.6914169999999999,545.078
417,0.693083,545.078
418,0.694867,528.3150000000001
419,0.696417,512.372
420,0.698083,512.372
421,0.69975,497.229
422,0.701417,482.837
423,0.703083,469.128
424,0.70475,469.128
425,0.706417,456.044
426,0.708083,443.577
427,0.70975,431.647
428,0.711417,431.647
429,0.713083,420.233
430,0.71475,409.361
431,0.716417,398.934
432,0.718083,398.934
433,0.71975,388.995
434,0.721417,379.469
435,0.723083,379.469
436,0.72475,370.323
437,0.726417,361.51
438,0.728083,353.023
439,0.72975,353.023
440,0.731417,344.931
441,0.733083,337.127
442,0.73475,329.644
443,0.736417,329.644
444,0.738083,322.439
445,0.73975,315.457
446,0.741417,308.733
447,0.743083,308.733
448,0.74475,302.26
449,0.7464,296.024
450,0.748067,290.018
451,0.749733,290.018
452,0.7514,284.208
453,0.7530829999999999,278.596
454,0.7548,278.596
455,0.75645,273.135
456,0.758067,267.824
457,0.759733,262.744
458,0.7614,262.744
459,0.7630670000000001,257.835
460,0.764733,253.07
461,0.7664,248.454
462,0.7680670000000001,248.454
463,0.769733,243.968
464,0.7714,239.634
465,0.7730669999999999,235.459
466,0.774733,235.459
467,0.7764,231.417
468,0.778067,227.471
469,0.779733,227.471
470,0.7814,223.591
471,0.783067,219.857
472,0.784733,216.226
473,0.7864,216.226
474,0.788083,212.709
475,0.789733,209.304
476,0.7914,205.973
477,0.793067,205.973
478,0.794733,202.742
479,0.7964,199.551
480,0.798067,196.491
481,0.799733,196.491
482,0.8014,193.539
483,0.803067,190.663
484,0.804733,190.663
485,0.8064,187.894
486,0.80805,185.15
487,0.809717,182.445
488,0.811383,182.445
489,0.813183,179.809
490,0.814717,177.256
491,0.816383,174.779
492,0.8180500000000001,174.779
493,0.819717,172.363
494,0.821383,170.039
495,0.8230499999999999,167.776
496,0.824717,167.776
497,0.826383,165.556
498,0.82805,163.4
499,0.8297330000000001,161.258
500,0.831433,161.258
501,0.83305,159.156
502,0.834717,157.14
503,0.836383,157.14
504,0.83805,155.162
505,0.839717,153.239
506,0.841383,151.355
507,0.84305,151.355
508,0.8447170000000001,149.53
509,0.846383,147.714
510,0.84805,145.973
511,0.8497169999999999,145.973
512,0.851383,144.276
513,0.85305,142.607
514,0.8547169999999999,141.018
515,0.856383,141.018
516,0.85805,139.439
517,0.859717,137.877
518,0.861383,137.877
519,0.86305,136.349
520,0.864717,134.879
521,0.866383,133.41
522,0.8680330000000001,133.41
523,0.8697,131.997
524,0.871367,130.568
525,0.8730329999999999,129.165
526,0.8747,129.165
527,0.876367,127.807
528,0.878033,126.471
529,0.8797,125.19
530,0.881367,125.19
531,0.883033,123.906
532,0.8847,122.657
533,0.886367,121.468
534,0.888033,121.468
535,0.8897,120.309
536,0.891367,119.177
537,0.893033,119.177
538,0.8947000000000001,118.069
539,0.896367,116.964
540,0.898083,115.86
541,0.899717,115.86
542,0.901367,114.759
543,0.903033,113.695
544,0.9046999999999999,112.65
545,0.906367,112.65
546,0.908033,111.651
547,0.9097,110.688
548,0.911367,109.723
549,0.913033,109.723
550,0.9147,108.767
551,0.916367,107.793
552,0.918033,107.793
553,0.9197,106.841
554,0.921367,105.927
555,0.923033,105.046
556,0.9247,105.046
557,0.92635,104.228
558,0.928017,103.405
559,0.929683,102.585
560,0.931467,102.585
561,0.933017,101.749
562,0.934683,100.935
563,0.93635,100.142
564,0.938017,100.142
565,0.939683,99.35299999999999
566,0.94135,98.636
567,0.943017,97.85899999999999
568,0.9446830000000001,97.85899999999999
569,0.94635,97.125
570,0.948017,96.407
571,0.9496830000000001,96.407
572,0.95135,95.66200000000001
573,0.953017,94.947
574,0.9546829999999999,94.23999999999999
575,0.95635,94.23999999999999
576,0.958017,93.57299999999999
577,0.959683,92.884
578,0.96135,92.227
579,0.963017,92.227
580,0.964683,91.55800000000001
581,0.96635,90.875
582,0.968017,90.27200000000001
583,0.969683,90.27200000000001
584,0.971333,89.666
585,0.973,89.077
586,0.9747,89.077
587,0.9763500000000001,88.502
588,0.978,87.92100000000001
589,0.979667,87.405
590,0.981333,87.405
591,0.983,86.855
592,0.984667,86.295
593,0.986333,85.741
594,0.9879829999999999,85.741
595,0.98965,85.15300000000001
596,0.991317,84.607
597,0.9929829999999999,84.06999999999999
598,0.99465,84.06999999999999
599,0.996317,83.54900000000001
600,0.997983,83.029
601,0.99965,83.029
602,1.001317,82.54900000000001
603,1.002983,82.08199999999999
604,1.00465,81.59699999999999
605,1.006317,81.59699999999999
606,1.007983,81.149
607,1.00965,80.675
608,1.011317,80.205
609,1.012983,80.205
610,1.01465,79.78100000000001
611,1.016383,79.31699999999999
612,1.017983,78.84099999999999
613,1.01965,78.84099999999999
614,1.021317,78.407
615,1.022983,77.937
616,1.02465,77.471
617,1.026317,77.471
618,1.027983,77.042
619,1.02965,76.584
620,1.031317,76.584
621,1.032983,76.16500000000001
622,1.03465,75.76900000000001
623,1.036317,75.36
624,1.037983,75.36
625,1.03965,74.998
626,1.041317,74.627
627,1.042983,74.282
628,1.04465,74.282
629,1.0463,73.93899999999999
630,1.048,73.566
631,1.049683,73.184
632,1.0513,73.184
633,1.052967,72.797
634,1.054633,72.435
635,1.0563,72.435
636,1.057967,72.075
637,1.059633,71.732
638,1.0613,71.384
639,1.062967,71.384
640,1.064633,71.045
641,1.0663,70.732
642,1.067967,70.41800000000001
643,1.069633,70.41800000000001
644,1.0713,70.09099999999999
645,1.072967,69.789
646,1.074633,69.465
647,1.0763,69.465
648,1.077967,69.13
649,1.079633,68.849
650,1.0813,68.52500000000001
651,1.082967,68.52500000000001
652,1.084633,68.226
653,1.0863,67.944
654,1.087967,67.944
655,1.089633,67.62
656,1.0913,67.34999999999999
657,1.092967,67.056
658,1.094633,67.056
659,1.0963,66.801
660,1.097967,66.563
661,1.099633,66.28100000000001
662,1.1013,66.28100000000001
663,1.102967,66.01600000000001
664,1.104633,65.72799999999999
665,1.1063,65.43000000000001
666,1.10795,65.43000000000001
667,1.109617,65.19
668,1.111283,64.965
669,1.11295,64.965
670,1.114617,64.702
671,1.116283,64.462
672,1.11795,64.175
673,1.119633,64.175
674,1.121283,63.882
675,1.12295,63.623
676,1.124617,63.387
677,1.126283,63.387
678,1.12795,63.177
679,1.129617,62.96
680,1.131283,62.753
681,1.13295,62.753
682,1.13465,62.513
683,1.136283,62.288
684,1.13795,62.08
685,1.139617,62.08
686,1.141283,61.841
687,1.14295,61.61
688,1.144617,61.61
689,1.146283,61.396
690,1.14795,61.167
691,1.149617,60.969
692,1.151383,60.969
693,1.15295,60.759
694,1.154617,60.542
695,1.156283,60.34
696,1.15795,60.34
697,1.159617,60.135
698,1.161283,59.949
699,1.16295,59.761
700,1.164617,59.761
701,1.166267,59.573
702,1.16805,59.378
703,1.1696,59.378
704,1.171267,59.175
705,1.172933,58.961
706,1.1746,58.77
707,1.176267,58.77
708,1.177933,58.585
709,1.1796,58.423
710,1.181267,58.243
711,1.182933,58.243
712,1.1847,58.074
713,1.186267,57.919
714,1.187933,57.763
715,1.1896,57.763
716,1.191283,57.586
717,1.192933,57.406
718,1.1946,57.214
719,1.196267,57.214
720,1.197967,57.027
721,1.199633,56.885
722,1.201267,56.885
723,1.202933,56.713
724,1.2046,56.577
725,1.206267,56.414
726,1.207933,56.414
727,1.2096,56.264
728,1.211267,56.129
729,1.212933,55.967
730,1.2146,55.967
731,1.216267,55.823
732,1.217933,55.629
733,1.2196,55.456
734,1.221267,55.456
735,1.222933,55.327
736,1.2246,55.179
737,1.22625,55.179
738,1.227917,55.046
739,1.229583,54.905
740,1.23125,54.734
741,1.232917,54.734
742,1.234583,54.579
743,1.23625,54.483
744,1.237917,54.371
745,1.239583,54.371
746,1.24125,54.228
747,1.242917,54.099
748,1.244583,53.944
749,1.24625,53.944
750,1.247917,53.805
751,1.249583,53.649
752,1.25125,53.649
753,1.252967,53.503
754,1.254583,53.358
755,1.25625,53.21
756,1.257917,53.21
757,1.259583,53.106
758,1.261233,53.021
759,1.2629,52.905
760,1.264567,52.905
761,1.266233,52.806
762,1.2679,52.698
763,1.269633,52.585
764,1.271233,52.585
765,1.272933,52.48
766,1.274583,52.384
767,1.276233,52.307
768,1.2779,52.307
769,1.279567,52.199
770,1.281233,52.101
771,1.2829,52.101
772,1.284567,51.966
773,1.286333,51.818
774,1.287883,51.696
775,1.28955,51.696
776,1.291217,51.583
777,1.292883,51.478
778,1.29455,51.375
779,1.296217,51.375
780,1.297883,51.273
781,1.29955,51.158
782,1.301217,51.073
783,1.302983,51.073
784,1.30455,50.972
785,1.306217,50.832
786,1.307883,50.832
787,1.30955,50.732
788,1.311217,50.624
789,1.312883,50.531
790,1.31455,50.531
791,1.316217,50.491
792,1.317883,50.402
793,1.31955,50.313
794,1.321217,50.313
795,1.322883,50.23
796,1.32455,50.126
797,1.326217,50.035
798,1.327883,50.035
799,1.32955,49.92
800,1.331217,49.818
801,1.332883,49.727
802,1.33455,49.727
803,1.336217,49.657
804,1.337883,49.587
805,1.33955,49.587
806,1.341217,49.523
807,1.342883,49.423
808,1.34455,49.327
809,1.3462,49.327
810,1.3479,49.265
811,1.34955,49.168
812,1.35125,49.087
813,1.352867,49.087
814,1.354533,48.987
815,1.3562,48.888
816,1.357867,48.793
817,1.359533,48.793
818,1.3612,48.736
819,1.362867,48.658
820,1.364533,48.658
821,1.366217,48.57
822,1.367867,48.524
823,1.369533,48.462
824,1.3712,48.462
825,1.372867,48.415
826,1.374533,48.371
827,1.3762,48.281
828,1.377867,48.281
829,1.379533,48.19
830,1.3812,48.111
831,1.382867,48.018
832,1.384533,48.018
833,1.3862,47.97
834,1.387917,47.91
835,1.389533,47.874
836,1.3912,47.874
837,1.392867,47.818
838,1.394533,47.753
839,1.3962,47.753
840,1.397867,47.675
841,1.399533,47.544
842,1.4012,47.462
843,1.402867,47.462
844,1.404617,47.347
845,1.406183,47.261
846,1.40785,47.23
847,1.409517,47.23
848,1.411183,47.179
849,1.41285,47.142
850,1.414517,47.115
851,1.416183,47.115
852,1.41785,47.085
853,1.419517,47.024
854,1.4213,46.96
855,1.42285,46.96
856,1.424517,46.881
857,1.426217,46.808
858,1.427867,46.808
859,1.429517,46.768
860,1.431183,46.712
861,1.43285,46.652
862,1.434517,46.652
863,1.436183,46.58
864,1.43785,46.492
865,1.439517,46.446
866,1.441183,46.446
867,1.44285,46.377
868,1.444517,46.343
869,1.446183,46.343
870,1.44785,46.29
871,1.449517,46.225
872,1.451183,46.2
873,1.45285,46.2
874,1.454517,46.144
875,1.456183,46.138
876,1.45785,46.103
877,1.459517,46.103
878,1.461183,46.032
879,1.46285,45.95
880,1.464517,45.862
881,1.466167,45.862
882,1.467833,45.819
883,1.4695,45.794
884,1.471167,45.758
885,1.472833,45.758
886,1.4745,45.707
887,1.476167,45.675
888,1.477833,45.675
889,1.4795,45.636
890,1.481167,45.583
891,1.482833,45.516
892,1.4845,45.516
893,1.486167,45.408
894,1.487833,45.317
895,1.489517,45.276
896,1.491183,45.276
897,1.49285,45.265
898,1.4945,45.226
899,1.496167,45.203
900,1.497833,45.203
901,1.4995,45.15
902,1.501167,45.093
903,1.502833,45.093
904,1.5045,45.083
905,1.506183,45.053
906,1.507833,45.041
907,1.5095,45.041
908,1.511167,45.022
909,1.512833,44.974
910,1.5145,44.947
911,1.516167,44.947
912,1.517833,44.892
913,1.5195,44.84
914,1.521167,44.799
915,1.52285,44.799
916,1.5245,44.738
917,1.52615,44.689
918,1.527817,44.633
919,1.529483,44.633
920,1.53115,44.574
921,1.532817,44.521
922,1.534483,44.521
923,1.53615,44.464
924,1.537817,44.416
925,1.5396,44.365
926,1.54115,44.365
927,1.542817,44.298
928,1.544483,44.263
929,1.54615,44.233
930,1.547817,44.233
931,1.549483,44.211
932,1.55115,44.221
933,1.5528,44.198
934,1.554467,44.198
935,1.556133,44.154
936,1.5578,44.109
937,1.559467,44.109
938,1.561133,44.066
939,1.5628,44.037
940,1.564467,44.008
941,1.566133,44.008
942,1.567833,43.995
943,1.569483,43.955
944,1.571133,43.917
945,1.5728,43.917
946,1.574467,43.876
947,1.576133,43.841
948,1.5778,43.839
949,1.579467,43.839
950,1.581133,43.835
951,1.5828,43.816
952,1.58445,43.816
953,1.586133,43.778
954,1.587783,43.697
955,1.58945,43.627
956,1.591117,43.627
957,1.592783,43.622
958,1.59445,43.595
959,1.596117,43.567
960,1.597783,43.567
961,1.59945,43.567
962,1.601117,43.502
963,1.602783,43.483
964,1.60445,43.483
965,1.606117,43.481
966,1.607783,43.439
967,1.60945,43.45
968,1.611117,43.45
969,1.612783,43.412
970,1.61445,43.376
