"ID","sea_time","fid_signal"
1,0,1163.334
2,0.001667,1161.546
3,0.003333,1163.036
4,0.005,1163.036
5,0.006667,1163.259
6,0.008449999999999999,1165.047
7,0.01,1166.165
8,0.011667,1166.165
9,0.013333,1167.879
10,0.015,1168.251
11,0.01665,1168.251
12,0.018333,1164.153
13,0.019983,1164.153
14,0.02165,1162.142
15,0.023317,1162.142
16,0.024983,1161.918
17,0.02665,1161.993
18,0.028317,1162.514
19,0.029983,1162.514
20,0.03165,1163.93
21,0.033317,1163.259
22,0.034983,1164.079
23,0.03665,1164.079
24,0.038317,1164.6
25,0.039983,1163.185
26,0.04165,1163.036
27,0.043317,1163.036
28,0.044983,1162.365
29,0.04665,1161.099
30,0.048317,1161.099
31,0.049983,1160.353
32,0.05165,1162.812
33,0.053317,1161.993
34,0.054967,1161.993
35,0.056633,1163.11
36,0.0583,1165.867
37,0.059967,1164.749
38,0.061683,1164.749
39,0.0633,1165.569
40,0.064967,1165.569
41,0.066633,1163.408
42,0.0683,1163.408
43,0.069967,1165.122
44,0.071633,1166.984
45,0.0733,1166.984
46,0.07496700000000001,1167.655
47,0.07663300000000001,1167.059
48,0.07829999999999999,1167.208
49,0.08,1167.208
50,0.081617,1166.165
51,0.083283,1165.718
52,0.08495,1168.251
53,0.086617,1168.251
54,0.088283,1168.922
55,0.08995,1170.188
56,0.091617,1171.306
57,0.093283,1171.306
58,0.09495000000000001,1169.518
59,0.09661699999999999,1164.898
60,0.098283,1164.898
61,0.09995,1163.408
62,0.101617,1160.949
63,0.103283,1165.345
64,0.10495,1165.345
65,0.106617,1169.145
66,0.108283,1170.71
67,0.109967,1173.019
68,0.111617,1173.019
69,0.113283,1169.443
70,0.11495,1167.059
71,0.116617,1166.537
72,0.118283,1166.537
73,0.11995,1167.133
74,0.121617,1165.494
75,0.123283,1165.345
76,0.12495,1165.345
77,0.126733,1163.781
78,0.128283,1164.6
79,0.12995,1164.6
80,0.131617,1163.259
81,0.133283,1164.079
82,0.13495,1164.079
83,0.136617,1164.079
84,0.1383,1161.993
85,0.139983,1163.334
86,0.1416,1159.757
87,0.143267,1159.757
88,0.144933,1159.087
89,0.1466,1159.087
90,0.148267,1162.738
91,0.149933,1162.738
92,0.1516,1165.122
93,0.153267,1166.165
94,0.154933,1166.165
95,0.1566,1166.016
96,0.158267,1163.483
97,0.159933,1163.483
98,0.1616,1163.483
99,0.163267,1162.589
100,0.164933,1161.173
101,0.1666,1160.875
102,0.168267,1160.875
103,0.169933,1162.216
104,0.171633,1162.589
105,0.173267,1166.239
106,0.174933,1166.239
107,0.1766,1170.412
108,0.178267,1173.466
109,0.179933,1174.063
110,0.1816,1174.063
111,0.183267,1171.753
112,0.184933,1169.965
113,0.1866,1169.965
114,0.188267,1165.643
115,0.189933,1163.632
116,0.1916,1163.781
117,0.193267,1163.781
118,0.194933,1161.695
119,0.1966,1162.365
120,0.198267,1163.706
121,0.199917,1163.706
122,0.201583,1165.196
123,0.20325,1168.251
124,0.204933,1170.263
125,0.206633,1170.263
126,0.20825,1171.008
127,0.209917,1168.251
128,0.21165,1166.835
129,0.21325,1166.835
130,0.214917,1165.792
131,0.216583,1166.165
132,0.21825,1166.165
133,0.219917,1170.635
134,0.221583,1171.529
135,0.22325,1170.784
136,0.224917,1170.784
137,0.226583,1172.051
138,0.22825,1168.102
139,0.229917,1164.898
140,0.231583,1164.898
141,0.23325,1164.973
142,0.234917,1162.067
143,0.236583,1162.291
144,0.23825,1162.291
145,0.239917,1162.216
146,0.241583,1159.981
147,0.24325,1159.981
148,0.245017,1158.64
149,0.246583,1159.683
150,0.24825,1159.906
151,0.249917,1159.906
152,0.251583,1161.769
153,0.25325,1164.302
154,0.254917,1162.887
155,0.256583,1162.887
156,0.258233,1165.941
157,0.259933,1166.165
158,0.261567,1165.047
159,0.263233,1165.047
160,0.2649,1168.326
161,0.266567,1166.537
162,0.268233,1166.537
163,0.2699,1169.443
164,0.271567,1171.827
165,0.273233,1173.839
166,0.2749,1173.839
167,0.276567,1173.317
168,0.27825,1169.592
169,0.27995,1167.133
170,0.281567,1167.133
171,0.283233,1163.855
172,0.2849,1166.463
173,0.286567,1170.71
174,0.288233,1170.71
175,0.2899,1172.051
176,0.291567,1170.188
177,0.293233,1167.804
178,0.2949,1167.804
179,0.296567,1166.165
180,0.298233,1168.177
181,0.2999,1168.177
182,0.301567,1168.177
183,0.303233,1168.177
184,0.3049,1164.898
185,0.306567,1164.898
186,0.308233,1161.322
187,0.3099,1160.502
188,0.311567,1159.385
189,0.313233,1159.385
190,0.3149,1161.247
191,0.316567,1161.695
192,0.318233,1161.471
193,0.319883,1161.471
194,0.32155,1159.31
195,0.323217,1158.714
196,0.324883,1158.714
197,0.32655,1159.012
198,0.328217,1161.024
199,0.329983,1165.569
200,0.33155,1165.569
201,0.333217,1165.122
202,0.334883,1164.973
203,0.33655,1165.345
204,0.338217,1165.345
205,0.339883,1166.537
206,0.34155,1168.698
207,0.34325,1171.976
208,0.344883,1171.976
209,0.346533,1171.082
210,0.348217,1167.432
211,0.349867,1167.432
212,0.351533,1165.867
213,0.3532,1161.62
214,0.354867,1162.216
215,0.356533,1162.216
216,0.3582,1161.993
217,0.359867,1164.898
218,0.361533,1169.294
219,0.363317,1169.294
220,0.364867,1171.008
221,0.366533,1172.87
222,0.3682,1170.337
223,0.369867,1170.337
224,0.371533,1167.133
225,0.3732,1168.251
226,0.374867,1167.133
227,0.376533,1167.133
228,0.378183,1166.91
229,0.37985,1167.282
230,0.381517,1167.282
231,0.383183,1165.718
232,0.38485,1165.271
233,0.386517,1165.047
234,0.388183,1165.047
235,0.38985,1163.334
236,0.391517,1157.969
237,0.393183,1156.479
238,0.39485,1156.479
239,0.396517,1158.118
240,0.398183,1161.322
241,0.39985,1165.643
242,0.401517,1165.643
243,0.403183,1167.282
244,0.40485,1164.526
245,0.406517,1164.526
246,0.408183,1163.11
247,0.40985,1164.675
248,0.411517,1167.506
249,0.413183,1167.506
250,0.41485,1169.145
251,0.416517,1168.698
252,0.4182,1168.102
253,0.419917,1168.102
254,0.421517,1168.027
255,0.423183,1169.22
256,0.42485,1172.274
257,0.426517,1172.274
258,0.428183,1171.231
259,0.42985,1167.506
260,0.431517,1168.326
261,0.433183,1168.326
262,0.43485,1166.761
263,0.436517,1165.867
264,0.438183,1165.867
265,0.439833,1167.133
266,0.4415,1164.973
267,0.443167,1164.824
268,0.444833,1164.824
269,0.4465,1168.922
270,0.448233,1172.051
271,0.449833,1174.36
272,0.4515,1174.36
273,0.453167,1176.67
274,0.45485,1172.572
275,0.4565,1173.019
276,0.458167,1173.019
277,0.459833,1173.839
278,0.4615,1175.255
279,0.463167,1175.255
280,0.464833,1179.203
281,0.4665,1179.948
282,0.468167,1180.619
283,0.469833,1180.619
284,0.4715,1180.992
285,0.473167,1180.396
286,0.474833,1178.011
287,0.4765,1178.011
288,0.478167,1176.819
289,0.479833,1174.137
290,0.481617,1174.286
291,0.483167,1174.286
292,0.484833,1174.435
293,0.4865,1174.063
294,0.488167,1176.447
295,0.489833,1176.447
296,0.4915,1178.682
297,0.493167,1180.917
298,0.494833,1180.917
299,0.4965,1182.929
300,0.498283,1183.897
301,0.49985,1181.141
302,0.501483,1181.141
303,0.50315,1181.737
304,0.504817,1180.768
305,0.506483,1178.086
306,0.50815,1178.086
307,0.509817,1180.023
308,0.511483,1176.968
309,0.51315,1174.212
310,0.514817,1174.212
311,0.516483,1177.266
312,0.51815,1177.49
313,0.519817,1177.49
314,0.521483,1178.831
315,0.52315,1181.215
316,0.524817,1176.745
317,0.526483,1176.745
318,0.52815,1173.913
319,0.529817,1175.031
320,0.531483,1172.945
321,0.53315,1172.945
322,0.534817,1172.423
323,0.536483,1172.572
324,0.53815,1173.69
325,0.539817,1173.69
326,0.541483,1175.031
327,0.54315,1178.458
328,0.544817,1178.458
329,0.5464830000000001,1179.874
330,0.54815,1175.18
331,0.549817,1177.192
332,0.5514829999999999,1177.192
333,0.55315,1175.702
334,0.554817,1175.18
335,0.5564829999999999,1176.968
336,0.558133,1176.968
337,0.5598,1175.18
338,0.561467,1172.945
339,0.563133,1171.082
340,0.5648,1171.082
341,0.566533,1170.337
342,0.568133,1170.561
343,0.5698,1173.541
344,0.5714669999999999,1173.541
345,0.573167,1175.106
346,0.5748,1173.765
347,0.576467,1173.765
348,0.578133,1170.859
349,0.5798,1168.549
350,0.581467,1166.686
351,0.583183,1166.686
352,0.5848,1167.804
353,0.586467,1168.027
354,0.588133,1166.314
355,0.5898,1166.314
356,0.591467,1168.698
357,0.593133,1169.965
358,0.5948,1172.572
359,0.596467,1172.572
360,0.598133,1173.392
361,0.599917,1169.965
362,0.601467,1169.965
363,0.603133,1170.263
364,0.6048,1168.251
365,0.606467,1167.282
366,0.608133,1167.282
367,0.6098,1168.102
368,0.611467,1164.749
369,0.613133,1163.557
370,0.6148,1163.557
371,0.616583,1165.792
372,0.618133,1164.451
373,0.619783,1166.761
374,0.6214499999999999,1166.761
375,0.623117,1166.165
376,0.624783,1164.973
377,0.62645,1164.898
378,0.628117,1164.898
379,0.629783,1162.589
380,0.63145,1166.239
381,0.633117,1166.239
382,0.634783,1164.451
383,0.63645,1164.898
384,0.6381,1163.781
385,0.6398,1163.781
386,0.641433,1160.8
387,0.6431,1165.047
388,0.644767,1167.729
389,0.646433,1167.729
390,0.6481,1167.804
391,0.649767,1168.177
392,0.651433,1164.973
393,0.6531,1164.973
394,0.654767,1162.44
395,0.656433,1166.686
396,0.658133,1166.686
397,0.659767,1169.89
398,0.661433,1173.168
399,0.6631,1174.807
400,0.664767,1174.807
401,0.6664330000000001,1173.541
402,0.6681,1173.913
403,0.669767,1173.168
404,0.6714329999999999,1173.168
405,0.6731,1172.125
406,0.674767,1169.89
407,0.676433,1166.314
408,0.6781,1166.314
409,0.67975,1163.259
410,0.6814170000000001,1159.459
411,0.683083,1159.459
412,0.684783,1161.322
413,0.6864170000000001,1160.577
414,0.688083,1164.228
415,0.68975,1164.228
416,0.6914169999999999,1170.188
417,0.693083,1172.647
418,0.69475,1173.466
419,0.696417,1173.466
420,0.698083,1172.051
421,0.69975,1168.475
422,0.701467,1165.196
423,0.703083,1165.196
424,0.70475,1166.463
425,0.706417,1166.165
426,0.708083,1167.282
427,0.70975,1167.282
428,0.71145,1166.835
429,0.713083,1165.718
430,0.71475,1165.718
431,0.716417,1168.102
432,0.71815,1168.102
433,0.71975,1168.102
434,0.721417,1168.102
435,0.723083,1167.804
436,0.72475,1164.749
437,0.726417,1166.09
438,0.728083,1166.09
439,0.72975,1167.208
440,0.731417,1170.039
441,0.733083,1170.263
442,0.734833,1170.263
443,0.736417,1167.953
444,0.738083,1170.188
445,0.739733,1170.188
446,0.7413999999999999,1168.4
447,0.743067,1167.879
448,0.744733,1167.879
449,0.7464,1167.879
450,0.748067,1164.526
451,0.74975,1163.11
452,0.7514,1163.11
453,0.753067,1163.11
454,0.754733,1166.463
455,0.7564,1168.698
456,0.758067,1172.572
457,0.759733,1172.572
458,0.7614,1174.51
459,0.7630670000000001,1173.839
460,0.764733,1174.435
461,0.7664,1174.435
462,0.7680670000000001,1173.839
463,0.769733,1171.529
464,0.7714,1171.529
465,0.7730669999999999,1170.114
466,0.774733,1165.569
467,0.7764,1160.279
468,0.778067,1160.279
469,0.779733,1159.012
470,0.7814,1158.118
471,0.783067,1159.832
472,0.7847499999999999,1159.832
473,0.7864,1164.153
474,0.788067,1164.675
475,0.789733,1166.016
476,0.7914,1166.016
477,0.793067,1166.984
478,0.794733,1167.282
479,0.7964,1167.282
480,0.79805,1169.518
481,0.799717,1172.87
482,0.801383,1175.106
483,0.803083,1175.106
484,0.804717,1173.541
485,0.806383,1174.882
486,0.80805,1172.125
487,0.809717,1172.125
488,0.811383,1171.082
489,0.8130500000000001,1171.38
490,0.814717,1168.549
491,0.816383,1168.549
492,0.8180500000000001,1166.388
493,0.81975,1165.42
494,0.821383,1164.749
495,0.8230499999999999,1164.749
496,0.824717,1166.016
497,0.826383,1166.463
498,0.828083,1166.463
499,0.829717,1165.047
500,0.831383,1164.079
501,0.83305,1161.993
502,0.834717,1161.993
503,0.836433,1165.271
504,0.83805,1169.145
505,0.839717,1171.753
506,0.841383,1171.753
507,0.84305,1173.69
508,0.8447170000000001,1170.933
509,0.846383,1167.953
510,0.84805,1167.953
511,0.8497169999999999,1165.122
512,0.851383,1163.557
513,0.853167,1164.153
514,0.8547169999999999,1164.153
515,0.856383,1163.334
516,0.85805,1163.781
517,0.8597,1163.781
518,0.861367,1164.228
519,0.86305,1161.173
520,0.86475,1162.961
521,0.866367,1162.961
522,0.8680330000000001,1165.569
523,0.8697,1165.271
524,0.871367,1169.816
525,0.8730329999999999,1169.816
526,0.8747,1171.008
527,0.876367,1167.357
528,0.878033,1167.506
529,0.8797,1167.506
530,0.881367,1167.804
531,0.883033,1165.271
532,0.8847,1165.271
533,0.886367,1168.922
534,0.888033,1172.051
535,0.8897,1168.326
536,0.891367,1168.326
537,0.893033,1168.251
538,0.8947000000000001,1165.569
539,0.896367,1162.887
540,0.898033,1162.887
541,0.8997000000000001,1164.004
542,0.901367,1165.941
543,0.903033,1168.549
544,0.9046999999999999,1168.549
545,0.906367,1170.635
546,0.908067,1170.859
547,0.9097,1170.859
548,0.911367,1171.38
549,0.913033,1171.753
550,0.9147,1171.455
551,0.916367,1171.455
552,0.918017,1171.678
553,0.919683,1170.337
554,0.92135,1167.953
555,0.923017,1167.953
556,0.924683,1164.526
557,0.92635,1165.941
558,0.928017,1166.761
559,0.9297,1166.761
560,0.931333,1169.443
561,0.9330000000000001,1173.094
562,0.934667,1173.094
563,0.936333,1172.796
564,0.9379999999999999,1172.125
565,0.939667,1171.753
566,0.941333,1171.753
567,0.9429999999999999,1171.604
568,0.944667,1170.859
569,0.946333,1170.114
570,0.948,1170.114
571,0.949667,1170.337
572,0.951333,1169.89
573,0.953,1169.294
574,0.9546829999999999,1169.294
575,0.956333,1168.698
576,0.958,1167.133
577,0.959667,1169.145
578,0.961333,1169.145
579,0.963,1169.071
580,0.9646670000000001,1169.145
581,0.966333,1169.145
582,0.968,1166.463
583,0.9696669999999999,1164.675
584,0.971433,1163.93
585,0.973,1163.93
586,0.974667,1163.781
587,0.976333,1165.569
588,0.977983,1162.812
589,0.97965,1162.812
590,0.981317,1165.271
591,0.9829830000000001,1164.824
592,0.98465,1165.42
593,0.986317,1165.42
594,0.9879829999999999,1166.388
595,0.98965,1163.408
596,0.991317,1163.408
597,0.9929829999999999,1164.824
598,0.99465,1164.824
599,0.996317,1167.059
600,0.997983,1167.059
601,0.999683,1168.475
602,1.001317,1166.91
603,1.002983,1168.475
604,1.004667,1168.475
605,1.006317,1167.432
606,1.007983,1166.314
607,1.00965,1165.42
608,1.011317,1165.42
609,1.012983,1162.961
610,1.01465,1161.62
611,1.016317,1162.216
612,1.017983,1162.216
613,1.01965,1162.514
614,1.021317,1161.695
615,1.022983,1161.695
