"ID","sea_time","fid_signal"
1,0,1163.781
2,0.001667,1165.122
3,0.003417,1166.09
4,0.005,1166.835
5,0.006667,1166.835
6,0.008317,1171.082
7,0.009983000000000001,1172.274
8,0.01165,1172.2
9,0.013317,1172.2
10,0.015,1174.212
11,0.0167,1174.584
12,0.018317,1174.584
13,0.019983,1172.274
14,0.02165,1173.69
15,0.023317,1172.349
16,0.024983,1172.349
17,0.02665,1168.251
18,0.028317,1167.506
19,0.029983,1165.196
20,0.03165,1165.196
21,0.033317,1162.663
22,0.034983,1163.334
23,0.03665,1165.718
24,0.038317,1165.718
25,0.039983,1169.592
26,0.04165,1169.518
27,0.0433,1169.518
28,0.044967,1169.592
29,0.046633,1166.612
30,0.0483,1163.483
31,0.049967,1163.483
32,0.051633,1166.09
33,0.0533,1166.761
34,0.054967,1168.177
35,0.056633,1168.177
36,0.0583,1168.475
37,0.059967,1165.643
38,0.061633,1163.334
39,0.0633,1163.334
40,0.064967,1162.067
41,0.066633,1163.408
42,0.0683,1164.302
43,0.06995,1164.302
44,0.071617,1166.016
45,0.073333,1166.835
46,0.07495,1166.835
47,0.076617,1165.271
48,0.07828300000000001,1165.345
49,0.080017,1166.91
50,0.081633,1166.91
51,0.083283,1166.388
52,0.08495,1165.792
53,0.086617,1166.91
54,0.08831700000000001,1166.91
55,0.08995,1167.58
56,0.091617,1169.965
57,0.093283,1171.827
58,0.09495000000000001,1171.827
59,0.09661699999999999,1172.647
60,0.098283,1169.965
61,0.09995,1169.965
62,0.101617,1168.773
63,0.103283,1168.624
64,0.105067,1167.432
65,0.106617,1167.432
66,0.108283,1167.58
67,0.10995,1168.698
68,0.111617,1166.388
69,0.113283,1166.388
70,0.11495,1164.526
71,0.116617,1164.228
72,0.118283,1164.079
73,0.11995,1164.079
74,0.121733,1167.059
75,0.123283,1168.549
76,0.12495,1168.549
77,0.126617,1168.4
78,0.128283,1168.847
79,0.129933,1168.4
80,0.1316,1168.4
81,0.133267,1168.996
82,0.134933,1171.529
83,0.1366,1168.773
84,0.138267,1168.773
85,0.139933,1163.706
86,0.1416,1159.981
87,0.143267,1156.703
88,0.144933,1156.703
89,0.1466,1157.448
90,0.148267,1164.228
91,0.149933,1166.612
92,0.1516,1166.612
93,0.1533,1166.314
94,0.15495,1165.271
95,0.1566,1165.271
96,0.158267,1160.577
97,0.159933,1159.981
98,0.1616,1157.895
99,0.163267,1157.895
100,0.164933,1158.789
101,0.1666,1159.608
102,0.168267,1160.726
103,0.169933,1160.726
104,0.1716,1164.526
105,0.173267,1164.898
106,0.174933,1165.941
107,0.1766,1165.941
108,0.178267,1164.824
109,0.179933,1166.388
110,0.1816,1166.388
111,0.183267,1165.941
112,0.184933,1165.718
113,0.1866,1167.953
114,0.18825,1167.953
115,0.189917,1165.941
116,0.191583,1164.824
117,0.19325,1165.792
118,0.194917,1165.792
119,0.196583,1165.569
120,0.19825,1166.165
121,0.199917,1165.718
122,0.201583,1165.718
123,0.20325,1166.463
124,0.204917,1165.941
125,0.206617,1165.941
126,0.20825,1165.941
127,0.209917,1170.337
128,0.211583,1169.294
129,0.21325,1169.294
130,0.214917,1167.804
131,0.216583,1167.208
132,0.21825,1163.855
133,0.219917,1163.855
134,0.221583,1164.451
135,0.223317,1168.027
136,0.224917,1171.306
137,0.226583,1171.306
138,0.228283,1173.913
139,0.229967,1172.87
140,0.231583,1173.019
141,0.23325,1173.019
142,0.234917,1173.466
143,0.236583,1170.859
144,0.23825,1170.859
145,0.24,1169.965
146,0.241583,1166.761
147,0.24325,1161.62
148,0.244917,1161.62
149,0.246583,1164.228
150,0.248233,1167.208
151,0.2499,1168.475
152,0.251567,1168.475
153,0.253233,1173.243
154,0.2549,1172.498
155,0.2567,1170.412
156,0.258233,1170.412
157,0.2599,1170.71
158,0.261567,1168.4
159,0.263233,1165.867
160,0.2649,1165.867
161,0.266567,1165.494
162,0.268233,1164.377
163,0.2699,1164.377
164,0.271567,1163.408
165,0.273233,1163.334
166,0.2749,1163.11
167,0.276567,1163.11
168,0.278233,1162.887
169,0.2799,1162.142
170,0.281567,1160.875
171,0.283233,1160.875
172,0.2849,1161.396
173,0.286567,1164.228
174,0.288233,1166.016
175,0.2899,1166.016
176,0.291567,1169.741
177,0.293233,1167.804
178,0.2949,1167.804
179,0.296567,1165.42
180,0.298233,1166.463
181,0.299917,1165.643
182,0.301567,1165.643
183,0.303267,1167.58
184,0.3049,1167.729
185,0.306567,1166.686
186,0.308217,1166.686
187,0.3099,1168.549
188,0.31155,1170.263
189,0.313217,1173.466
190,0.314883,1173.466
191,0.31655,1176.149
192,0.318217,1173.839
193,0.319883,1171.976
194,0.32155,1171.976
195,0.323217,1167.432
196,0.324883,1163.483
197,0.32655,1163.483
198,0.328217,1166.463
199,0.329883,1170.114
200,0.33155,1174.882
201,0.333217,1174.882
202,0.334867,1178.384
203,0.336533,1180.917
204,0.3382,1183.599
205,0.339867,1183.599
206,0.341583,1185.834
207,0.3432,1191.944
208,0.344867,1198.947
209,0.346533,1198.947
210,0.3482,1206.696
211,0.349867,1217.052
212,0.351533,1217.052
213,0.3532,1228.303
214,0.354867,1242.086
215,0.356533,1261.309
216,0.35825,1261.309
217,0.359867,1281.798
218,0.361533,1304.895
219,0.3632,1330.674
220,0.364867,1330.674
221,0.366533,1357.272
222,0.3682,1388.192
223,0.36985,1423.359
224,0.371517,1423.359
225,0.373183,1458.153
226,0.374917,1491.979
227,0.376517,1491.979
228,0.3782,1528.859
229,0.379917,1566.857
230,0.38155,1605.6
231,0.383183,1605.6
232,0.38485,1647.174
233,0.386517,1689.494
234,0.388183,1730.621
235,0.38985,1730.621
236,0.391517,1772.195
237,0.393183,1815.781
238,0.39485,1863.614
239,0.396517,1863.614
240,0.398183,1909.286
241,0.39985,1955.479
242,0.401517,1999.661
243,0.403183,1999.661
244,0.40485,2046.078
245,0.406517,2097.413
246,0.408183,2097.413
247,0.40985,2151.653
248,0.411517,2209.321
249,0.413183,2264.306
250,0.41485,2264.306
251,0.416517,2319.515
252,0.418183,2378.97
253,0.41985,2439.171
254,0.421517,2439.171
255,0.423183,2501.16
256,0.42485,2568.29
257,0.426517,2634.451
258,0.428183,2634.451
259,0.429833,2707.541
260,0.4315,2782.643
261,0.433167,2782.643
262,0.434833,2858.117
263,0.4365,2937.541
264,0.438167,3020.689
265,0.439833,3020.689
266,0.4415,3107.488
267,0.4432,3200.323
268,0.444833,3304.333
269,0.446533,3304.333
270,0.448167,3417.805
271,0.449833,3551.99
272,0.4515,3705.546
273,0.453167,3705.546
274,0.454833,3881.082
275,0.4565,4086.047
276,0.458167,4326.85
277,0.459917,4326.85
278,0.4615,4613.474
279,0.463167,4953.146
280,0.464833,4953.146
281,0.4665,5351.827
282,0.468167,5811.155
283,0.469833,6336.048
284,0.4715,6336.048
285,0.473167,6922.334
286,0.474833,7565.767
287,0.476533,8256.436
288,0.478167,8256.436
289,0.479833,8979.960999999999
290,0.4815,9719.655000000001
291,0.483167,10458.753
292,0.484833,10458.753
293,0.4865,11170.581
294,0.488167,11835.099
295,0.489817,11835.099
296,0.491483,12433.529
297,0.49325,12944.341
298,0.494817,13359.189
299,0.496483,13359.189
300,0.49815,13671.07
301,0.499817,13870.97
302,0.501483,13960.004
303,0.50315,13960.004
304,0.504817,13945.103
305,0.506483,13827.458
306,0.50815,13622.939
307,0.509817,13622.939
308,0.511483,13340.041
309,0.51315,12988.15
310,0.514817,12586.266
311,0.516483,12586.266
312,0.51815,12142.211
313,0.51985,11671.781
314,0.521483,11671.781
315,0.52315,11186.525
316,0.524817,10693.147
317,0.526483,10199.845
318,0.52815,10199.845
319,0.529817,9713.843999999999
320,0.531483,9241.477000000001
321,0.53315,8787.811
322,0.53485,8787.811
323,0.536483,8355.528
324,0.538167,7944.405
325,0.539817,7556.379
326,0.541483,7556.379
327,0.54315,7187.948
328,0.544817,6842.986
329,0.5464830000000001,6842.986
330,0.54815,6522.611
331,0.5498,6221.533
332,0.551467,5944.073
333,0.553133,5944.073
334,0.5548,5688.369
335,0.556467,5449.206
336,0.558133,5227.327
337,0.5598,5227.327
338,0.561467,5020.276
339,0.563133,4826.337
340,0.5648,4647.747
341,0.5664670000000001,4647.747
342,0.568133,4486.144
343,0.5698,4332.736
344,0.5714669999999999,4332.736
345,0.573133,4191.846
346,0.5748,4061.162
347,0.576467,3933.311
348,0.578167,3933.311
349,0.5798,3815.293
350,0.581467,3704.429
351,0.583133,3601.313
352,0.5848,3601.313
353,0.586467,3507.063
354,0.588133,3420.562
355,0.5898,3338.605
356,0.591467,3338.605
357,0.593133,3258.66
358,0.5948329999999999,3185.645
359,0.596467,3112.778
360,0.598133,3112.778
361,0.5998,3044.903
362,0.601467,2982.244
363,0.603133,2982.244
364,0.6048,2919.063
365,0.606467,2862.215
366,0.608117,2808.794
367,0.609783,2808.794
368,0.611517,2755.97
369,0.613117,2708.733
370,0.614783,2661.869
371,0.6164500000000001,2661.869
372,0.618117,2616.271
373,0.619783,2573.356
374,0.6214499999999999,2528.206
375,0.623117,2528.206
376,0.6248,2488.568
377,0.626433,2448.633
378,0.6281,2448.633
379,0.629767,2410.412
380,0.631433,2374.947
381,0.6331,2340.972
382,0.634767,2340.972
383,0.636433,2306.327
384,0.6381,2274.439
385,0.639767,2244.86
386,0.641433,2244.86
387,0.6431,2218.708
388,0.644767,2194.792
389,0.646433,2171.621
390,0.6481,2171.621
391,0.649767,2147.034
392,0.651433,2117.902
393,0.6531,2091.229
394,0.654767,2091.229
395,0.656433,2063.662
396,0.6581,2040.565
397,0.659767,2040.565
398,0.661433,2019.48
399,0.6631,1999.214
400,0.664767,1980.066
401,0.6664330000000001,1980.066
402,0.668117,1960.248
403,0.6698,1943.633
404,0.671417,1929.775
405,0.673083,1929.775
406,0.67475,1916.066
407,0.676417,1904.219
408,0.678083,1887.307
409,0.67975,1887.307
410,0.6814170000000001,1871.511
411,0.683083,1855.046
412,0.68475,1855.046
413,0.6864170000000001,1837.686
414,0.688083,1820.847
415,0.68975,1803.935
416,0.6914169999999999,1803.935
417,0.693083,1789.182
418,0.69475,1775.324
419,0.696417,1764.223
420,0.698117,1764.223
421,0.69975,1752.898
422,0.701417,1741.052
423,0.703083,1729.429
424,0.70475,1729.429
425,0.706417,1718.625
426,0.708083,1707.003
427,0.70975,1695.752
428,0.711417,1695.752
429,0.7131,1685.992
430,0.71475,1673.773
431,0.716417,1673.773
432,0.718083,1664.758
433,0.71975,1653.954
434,0.721417,1643.822
435,0.723083,1643.822
436,0.724733,1638.457
437,0.7264,1629.367
438,0.728067,1621.768
439,0.72985,1621.768
440,0.7314000000000001,1615.584
441,0.733067,1606.047
442,0.734733,1598.895
443,0.7364000000000001,1598.895
444,0.738067,1592.711
445,0.739733,1584.813
446,0.7413999999999999,1584.813
447,0.743067,1577.586
448,0.744783,1570.508
449,0.7464,1565.665
450,0.748067,1565.665
451,0.749733,1557.171
452,0.7514,1550.019
453,0.753067,1542.792
454,0.754733,1542.792
455,0.7564,1532.882
456,0.758067,1527.593
457,0.759733,1524.538
458,0.7614,1524.538
459,0.7630670000000001,1519.397
460,0.764733,1514.927
461,0.7664,1514.927
462,0.7680670000000001,1508.519
463,0.769733,1503.453
464,0.7714,1496.971
465,0.7730669999999999,1496.971
466,0.774733,1489.744
467,0.7764,1486.391
468,0.778067,1479.834
469,0.779733,1479.834
470,0.7814,1476.258
471,0.783067,1473.799
472,0.784733,1467.913
473,0.786433,1467.913
474,0.78805,1463.965
475,0.789717,1458.451
476,0.7913829999999999,1455.173
477,0.79305,1455.173
478,0.794717,1449.212
479,0.796383,1439.75
480,0.79805,1439.75
481,0.799717,1434.46
482,0.801383,1428.053
483,0.80305,1424.029
484,0.804717,1424.029
485,0.806383,1422.688
486,0.80805,1419.783
487,0.809717,1416.206
488,0.811383,1416.206
489,0.8130500000000001,1413.45
490,0.814767,1410.917
491,0.816383,1405.776
492,0.8180500000000001,1405.776
493,0.819717,1399.89
494,0.821383,1395.494
495,0.8230499999999999,1395.494
496,0.824717,1389.906
497,0.826383,1385.734
498,0.82805,1386.181
499,0.829717,1386.181
500,0.831383,1384.392
501,0.83305,1380.593
502,0.834717,1380.593
503,0.836383,1380.593
504,0.83805,1376.42
505,0.839717,1373.217
506,0.841383,1372.993
507,0.84305,1372.993
508,0.8447170000000001,1367.032
509,0.846383,1362.562
510,0.84815,1360.327
511,0.8497,1360.327
512,0.851367,1355.708
513,0.853033,1353.696
514,0.8547,1353.696
515,0.856367,1353.547
516,0.858033,1351.535
517,0.8597,1350.939
518,0.861367,1350.939
519,0.8630330000000001,1349.226
520,0.8647,1347.288
521,0.866367,1343.042
522,0.8680330000000001,1343.042
523,0.8697,1337.901
524,0.871367,1333.803
525,0.8730329999999999,1330.525
526,0.8747,1330.525
527,0.876383,1328.811
528,0.878033,1326.352
529,0.8797,1326.352
530,0.881367,1325.384
531,0.883033,1321.211
532,0.8847,1318.38
533,0.886367,1318.38
534,0.888033,1321.137
535,0.8897,1320.541
536,0.8914,1321.957
537,0.893033,1321.957
538,0.8947000000000001,1318.231
539,0.896367,1311.302
540,0.898033,1305.416
541,0.8997000000000001,1305.416
542,0.901367,1300.424
543,0.903033,1300.35
544,0.9046999999999999,1299.158
545,0.906367,1299.158
546,0.908017,1301.542
547,0.909683,1298.86
548,0.91135,1298.86
549,0.913017,1299.977
550,0.914683,1300.201
551,0.91635,1297.444
552,0.918,1297.444
553,0.919667,1295.507
554,0.921333,1292.75
555,0.923,1291.409
556,0.924667,1291.409
557,0.926333,1288.131
558,0.928,1287.684
559,0.929667,1283.586
560,0.931333,1283.586
561,0.93305,1278.371
562,0.934667,1279.339
563,0.936333,1279.339
564,0.9379999999999999,1281.574
565,0.939667,1280.531
566,0.941333,1282.021
567,0.9429999999999999,1282.021
568,0.944667,1280.159
569,0.946333,1274.645
570,0.948,1274.273
571,0.949667,1274.273
572,0.951367,1272.783
573,0.953,1270.026
574,0.954667,1269.281
575,0.956333,1269.281
576,0.958,1266.599
577,0.959667,1264.811
578,0.961333,1264.811
579,0.963033,1263.693
580,0.9646670000000001,1261.458
581,0.96645,1260.266
582,0.967983,1260.266
583,0.96965,1260.117
584,0.971317,1259.819
585,0.972983,1261.607
586,0.97465,1261.607
587,0.976317,1261.607
588,0.977983,1261.532
589,0.97965,1259.148
590,0.981317,1259.148
591,0.9829830000000001,1257.286
592,0.98465,1256.689
593,0.986317,1251.921
594,0.9879829999999999,1251.921
595,0.98965,1252.294
596,0.991317,1249.835
597,0.9929829999999999,1249.835
598,0.99465,1248.792
599,0.996317,1250.207
600,0.997983,1250.282
601,0.99965,1250.282
602,1.001317,1251.847
603,1.002983,1251.101
604,1.00465,1248.941
605,1.006317,1248.941
606,1.007983,1247.451
607,1.00965,1246.929
608,1.011317,1244.396
609,1.012983,1244.396
610,1.01465,1243.055
611,1.016317,1239.702
612,1.017983,1239.702
613,1.01965,1234.859
614,1.021317,1233.369
615,1.022983,1232.624
616,1.02465,1232.624
617,1.026317,1232.401
618,1.028,1232.699
619,1.029683,1230.24
620,1.031333,1230.24
621,1.032967,1231.804
622,1.034633,1233.667
623,1.0363,1234.487
624,1.037967,1234.487
625,1.039633,1236.424
626,1.0413,1238.659
627,1.042967,1233.518
628,1.044633,1233.518
629,1.0463,1229.942
630,1.047967,1227.632
631,1.049633,1227.632
632,1.0513,1224.205
633,1.052967,1224.13
634,1.054633,1222.864
635,1.0563,1222.864
636,1.057967,1224.205
637,1.059633,1222.268
638,1.0613,1222.342
639,1.062967,1222.342
640,1.064633,1222.789
641,1.0663,1222.417
642,1.068033,1219.586
643,1.069633,1219.586
644,1.0713,1221.374
645,1.072967,1224.354
646,1.074633,1224.354
647,1.0763,1222.342
648,1.077967,1224.205
649,1.079633,1221.299
650,1.0813,1221.299
651,1.082967,1217.946
652,1.0847,1218.393
653,1.0863,1217.499
654,1.08795,1217.499
655,1.089617,1217.35
656,1.091283,1216.754
657,1.09295,1212.582
658,1.094617,1212.582
659,1.096283,1210.347
660,1.09795,1211.166
661,1.099617,1212.433
662,1.1014,1212.433
663,1.10295,1211.837
664,1.104617,1212.582
665,1.106283,1212.582
666,1.108017,1211.762
667,1.109717,1211.688
668,1.111283,1214.37
669,1.11295,1214.37
670,1.114617,1213.998
671,1.1163,1213.625
672,1.11795,1214.668
673,1.119617,1214.668
674,1.121283,1215.115
675,1.12295,1216.382
676,1.124617,1214.296
677,1.126283,1214.296
678,1.12795,1210.645
679,1.129617,1211.911
680,1.131283,1211.911
681,1.13295,1208.484
682,1.134617,1210.347
683,1.136283,1209.304
684,1.13795,1209.304
685,1.139617,1204.535
686,1.141283,1203.269
687,1.14295,1200.065
688,1.144617,1200.065
689,1.146283,1198.947
690,1.147933,1200.438
691,1.1496,1200.214
692,1.151267,1200.214
693,1.152933,1199.469
694,1.1546,1202.673
695,1.156267,1202.673
696,1.157933,1206.026
697,1.1596,1210.123
698,1.161267,1213.774
699,1.162933,1213.774
700,1.1646,1212.433
701,1.166267,1207.888
702,1.167933,1205.653
703,1.169633,1205.653
704,1.171267,1201.63
705,1.172933,1200.065
706,1.1746,1199.916
707,1.176267,1199.916
708,1.177933,1198.426
709,1.1796,1197.681
710,1.181267,1195.073
711,1.182933,1195.073
712,1.1846,1193.881
713,1.186333,1193.359
714,1.187933,1193.359
715,1.1896,1193.509
716,1.191267,1193.881
717,1.192933,1193.359
718,1.1946,1193.359
719,1.196267,1193.732
720,1.197933,1191.795
721,1.1996,1193.509
722,1.201267,1193.509
723,1.202967,1193.956
724,1.2046,1194.552
725,1.206267,1197.308
726,1.207917,1197.308
727,1.209567,1196.042
728,1.211233,1196.489
729,1.2129,1196.489
730,1.214567,1195.371
731,1.216233,1192.167
732,1.2179,1189.634
733,1.219683,1189.634
734,1.221233,1191.273
735,1.2229,1192.167
736,1.224567,1194.03
737,1.226233,1194.03
738,1.2279,1198.351
739,1.229567,1196.936
740,1.231233,1195.669
741,1.2329,1195.669
742,1.234567,1195.073
743,1.236233,1191.273
744,1.2379,1190.454
745,1.239567,1190.454
746,1.241233,1191.273
747,1.2429,1191.795
748,1.244567,1191.795
749,1.246233,1192.316
750,1.24795,1189.56
751,1.249567,1185.76
752,1.251233,1185.76
753,1.2529,1185.536
754,1.254567,1186.505
755,1.256233,1189.56
756,1.2579,1189.56
757,1.259567,1189.336
758,1.261233,1186.952
759,1.2629,1184.493
760,1.264567,1184.493
761,1.266233,1182.78
762,1.267917,1182.631
763,1.26955,1182.631
764,1.271217,1183.301
765,1.272883,1182.705
766,1.27455,1180.843
767,1.276217,1180.843
768,1.277883,1183.003
769,1.27955,1183.227
770,1.281217,1185.387
771,1.282883,1185.387
772,1.28455,1188.442
773,1.286217,1187.474
774,1.287883,1185.462
775,1.28955,1185.462
776,1.291233,1183.599
777,1.292883,1180.246
778,1.29455,1181.439
779,1.296217,1181.439
780,1.297883,1184.121
781,1.29955,1184.046
782,1.301217,1184.046
783,1.302883,1186.803
784,1.304567,1184.195
785,1.306217,1182.482
786,1.307883,1182.482
787,1.30955,1183.674
788,1.311217,1183.152
789,1.312883,1183.376
790,1.31455,1183.376
791,1.316217,1185.387
792,1.317883,1183.972
793,1.31955,1181.96
794,1.321233,1181.96
795,1.322883,1181.96
796,1.32455,1179.65
797,1.326217,1179.65
798,1.327867,1181.886
799,1.329533,1182.184
800,1.3312,1182.78
801,1.332867,1182.78
802,1.334533,1183.525
803,1.3362,1180.843
804,1.337983,1180.843
805,1.339533,1180.843
806,1.3412,1180.992
807,1.342867,1180.619
808,1.344533,1181.29
809,1.3462,1181.29
810,1.347867,1182.407
811,1.349533,1181.96
812,1.3512,1181.96
813,1.352867,1180.992
814,1.354533,1181.439
815,1.3562,1177.639
816,1.357867,1177.639
817,1.359567,1177.639
818,1.3612,1177.937
819,1.362867,1179.501
820,1.364533,1179.501
821,1.3662,1184.344
822,1.367867,1183.748
823,1.369533,1181.811
824,1.3712,1181.811
825,1.372867,1182.705
826,1.374533,1183.376
827,1.3762,1182.184
828,1.377867,1182.184
829,1.379533,1185.015
830,1.3812,1179.874
831,1.382867,1179.874
832,1.384533,1176.298
833,1.386183,1176.819
834,1.38785,1176.074
835,1.389533,1176.074
836,1.391233,1177.788
837,1.39285,1178.16
838,1.394517,1178.682
839,1.396183,1178.682
840,1.39785,1180.545
841,1.399517,1181.29
842,1.401183,1180.172
843,1.40285,1180.172
844,1.404517,1179.948
845,1.406183,1177.713
846,1.40785,1177.713
847,1.409517,1176.968
848,1.411183,1180.396
849,1.41285,1181.96
850,1.414517,1181.96
851,1.416183,1182.109
852,1.41785,1184.642
853,1.419517,1180.992
854,1.421183,1180.992
855,1.4229,1180.246
856,1.424517,1179.278
857,1.426183,1177.266
858,1.42785,1177.266
859,1.429517,1178.682
860,1.431183,1177.341
861,1.43285,1177.49
862,1.434517,1177.49
863,1.436183,1176.223
864,1.43785,1173.69
865,1.439517,1173.69
866,1.441217,1176.447
867,1.44285,1176.074
868,1.444517,1176.745
869,1.446183,1176.745
870,1.447833,1179.054
871,1.4495,1176.074
872,1.451167,1176.149
873,1.452833,1176.149
874,1.4545,1178.384
875,1.4563,1179.948
876,1.457833,1180.545
877,1.4595,1180.545
878,1.461167,1179.129
879,1.462833,1173.466
880,1.4645,1173.466
881,1.4662,1172.125
882,1.467833,1168.475
883,1.4695,1170.486
884,1.471167,1170.486
885,1.472833,1171.604
886,1.4745,1168.773
887,1.476167,1172.423
888,1.477833,1172.423
889,1.4795,1173.392
890,1.481167,1173.69
891,1.482833,1176.149
892,1.4845,1176.149
893,1.486167,1175.851
894,1.487833,1176.894
895,1.4895,1177.564
896,1.491167,1177.564
897,1.492833,1177.937
898,1.4945,1176.298
899,1.496167,1176.298
900,1.497833,1173.839
901,1.4995,1174.957
902,1.50115,1172.945
903,1.502817,1172.945
904,1.504483,1174.286
905,1.506133,1175.031
906,1.5078,1174.807
907,1.509467,1174.807
908,1.511133,1176.67
909,1.5128,1174.063
910,1.514467,1174.807
911,1.516133,1174.807
912,1.5178,1172.423
913,1.519467,1171.678
914,1.521133,1171.678
915,1.5228,1174.51
916,1.524467,1173.541
917,1.52615,1176.149
918,1.527867,1176.149
