"ID","sea_time","fid_signal"
1,0,1166.016
2,0.001667,1166.835
3,0.003333,1164.377
4,0.005,1164.526
5,0.006667,1164.526
6,0.008366999999999999,1163.632
7,0.01,1164.079
8,0.011667,1164.079
9,0.013333,1168.624
10,0.015,1172.051
11,0.016667,1174.659
12,0.018333,1174.659
13,0.02,1173.913
14,0.02165,1172.125
15,0.023317,1168.922
16,0.024983,1168.922
17,0.02665,1166.984
18,0.028317,1166.686
19,0.029983,1162.663
20,0.03165,1162.663
21,0.03335,1160.875
22,0.034983,1161.173
23,0.03665,1160.428
24,0.038317,1160.428
25,0.039983,1163.334
26,0.04165,1164.526
27,0.043317,1164.526
28,0.044983,1165.42
29,0.04665,1169.592
30,0.048317,1172.349
31,0.049983,1172.349
32,0.05165,1175.776
33,0.053317,1177.043
34,0.054983,1173.765
35,0.05665,1173.765
36,0.058317,1168.922
37,0.059983,1164.228
38,0.06165,1159.385
39,0.063317,1159.385
40,0.064983,1160.8
41,0.066667,1162.663
42,0.068317,1162.663
43,0.069983,1162.887
44,0.07165000000000001,1165.643
45,0.07331699999999999,1164.526
46,0.07498299999999999,1164.526
47,0.07665,1164.079
48,0.078317,1164.079
49,0.079983,1161.695
50,0.081633,1161.695
51,0.083367,1161.695
52,0.084967,1161.247
53,0.086633,1165.494
54,0.0883,1165.494
55,0.08998299999999999,1168.027
56,0.091683,1168.773
57,0.09329999999999999,1171.902
58,0.094967,1171.902
59,0.096633,1170.039
60,0.0983,1171.38
61,0.100083,1171.38
62,0.101633,1173.243
63,0.1033,1172.125
64,0.104967,1172.945
65,0.106633,1172.945
66,0.1083,1170.859
67,0.109967,1169.294
68,0.111667,1170.71
69,0.1133,1170.71
70,0.114967,1168.549
71,0.116633,1171.455
72,0.1183,1171.604
73,0.119967,1171.604
74,0.121633,1169.22
75,0.123317,1168.027
76,0.124967,1168.027
77,0.126633,1163.706
78,0.1283,1162.142
79,0.129967,1161.024
80,0.131633,1161.024
81,0.1333,1164.526
82,0.134967,1167.655
83,0.136633,1166.835
84,0.1383,1166.835
85,0.139967,1164.153
86,0.141633,1158.267
87,0.143283,1155.958
88,0.14495,1155.958
89,0.146617,1156.628
90,0.148283,1160.13
91,0.14995,1160.13
92,0.151617,1163.259
93,0.153283,1166.09
94,0.15495,1165.494
95,0.156617,1165.494
96,0.158283,1164.6
97,0.15995,1164.6
98,0.161617,1165.643
99,0.163283,1165.643
100,0.16495,1169.741
101,0.166617,1172.051
102,0.168283,1174.36
103,0.16995,1174.36
104,0.171617,1173.392
105,0.173283,1173.765
106,0.174983,1172.572
107,0.176617,1172.572
108,0.178283,1169.965
109,0.17995,1168.847
110,0.181633,1168.847
111,0.183283,1166.761
112,0.18495,1164.749
113,0.186617,1166.165
114,0.188283,1166.165
115,0.18995,1163.557
116,0.191617,1163.259
117,0.193283,1164.079
118,0.19495,1164.079
119,0.196617,1161.844
120,0.198283,1163.259
121,0.19995,1165.345
122,0.2017,1165.345
123,0.203267,1165.867
124,0.204933,1169.071
125,0.2066,1169.071
126,0.208267,1171.008
127,0.209933,1167.357
128,0.2116,1167.879
129,0.213267,1167.879
130,0.214933,1168.251
131,0.2166,1167.059
132,0.218267,1167.879
133,0.219933,1167.879
134,0.2216,1169.741
135,0.22325,1167.729
136,0.224917,1168.475
137,0.226583,1168.475
138,0.22825,1171.976
139,0.229917,1170.412
140,0.231583,1171.306
141,0.23325,1171.306
142,0.235017,1171.306
143,0.236583,1168.4
144,0.23825,1168.4
145,0.239917,1170.114
146,0.241583,1171.082
147,0.24325,1169.89
148,0.244917,1169.89
149,0.246583,1167.655
150,0.24825,1165.271
151,0.249917,1162.887
152,0.251583,1162.887
153,0.25325,1162.589
154,0.254917,1165.047
155,0.256583,1164.973
156,0.258283,1164.973
157,0.25995,1164.377
158,0.261567,1165.42
159,0.263233,1165.42
160,0.2649,1164.153
161,0.266567,1164.973
162,0.268233,1166.984
163,0.2699,1166.984
164,0.271567,1168.549
165,0.273233,1169.443
166,0.2749,1168.475
167,0.276567,1168.475
168,0.278233,1167.58
169,0.2799,1164.6
170,0.281567,1165.345
171,0.283233,1165.345
172,0.2849,1167.208
173,0.286567,1166.239
174,0.288233,1169.145
175,0.2899,1169.145
176,0.291567,1171.678
177,0.293233,1169.369
178,0.2949,1169.369
179,0.296567,1172.051
180,0.29825,1173.392
181,0.2999,1173.615
182,0.301567,1173.615
183,0.3033,1175.18
184,0.3049,1173.392
185,0.306567,1171.753
186,0.308233,1171.753
187,0.3099,1171.529
188,0.311567,1168.847
189,0.313233,1167.208
190,0.3149,1167.208
191,0.316567,1165.42
192,0.318233,1163.11
193,0.319983,1166.984
194,0.32155,1166.984
195,0.323233,1171.678
196,0.324933,1170.71
197,0.3266,1170.71
198,0.328217,1171.753
199,0.329883,1170.784
200,0.33155,1170.263
201,0.333217,1170.263
202,0.334883,1175.106
203,0.336633,1175.925
204,0.338217,1181.066
205,0.339883,1181.066
206,0.34155,1186.877
207,0.343217,1192.614
208,0.344883,1192.614
209,0.34655,1199.171
210,0.348217,1206.1
211,0.349883,1213.327
212,0.35155,1213.327
213,0.353317,1222.417
214,0.354883,1237.839
215,0.35655,1256.466
216,0.358217,1256.466
217,0.359883,1279.265
218,0.36155,1304.299
219,0.363217,1331.717
220,0.364883,1331.717
221,0.36655,1359.284
222,0.368217,1388.714
223,0.369883,1423.359
224,0.37155,1423.359
225,0.373217,1459.42
226,0.374883,1498.908
227,0.37655,1498.908
228,0.378217,1538.917
229,0.379883,1581.46
230,0.381533,1620.725
231,0.3832,1620.725
232,0.384867,1661.852
233,0.386533,1705.065
234,0.3882,1746.342
235,0.389867,1746.342
236,0.391533,1789.778
237,0.3932,1836.196
238,0.394867,1881.421
239,0.396533,1881.421
240,0.3982,1930.222
241,0.399917,1981.407
242,0.401533,1981.407
243,0.4032,2035.424
244,0.404867,2089.813
245,0.406533,2144.948
246,0.4082,2144.948
247,0.409867,2203.062
248,0.411533,2259.016
249,0.4132,2316.758
250,0.414867,2316.758
251,0.416533,2377.257
252,0.4182,2437.532
253,0.419867,2498.031
254,0.421533,2498.031
255,0.4232,2568.066
256,0.424867,2633.482
257,0.426533,2703.89
258,0.4282,2703.89
259,0.429867,2780.855
260,0.431533,2853.87
261,0.4332,2853.87
262,0.434867,2937.317
263,0.436533,3024.34
264,0.438233,3112.107
265,0.439867,3112.107
266,0.441517,3210.902
267,0.443183,3315.359
268,0.44485,3431.514
269,0.446517,3431.514
270,0.448183,3567.04
271,0.44985,3725.812
272,0.451517,3913.343
273,0.453183,3913.343
274,0.454883,4145.13
275,0.456517,4429.817
276,0.458183,4429.817
277,0.45985,4780.218
278,0.461517,5219.504
279,0.463183,5761.907
280,0.46485,5761.907
281,0.466517,6425.977
282,0.468183,7221.997
283,0.46985,8159.876
284,0.471633,8159.876
285,0.473183,9236.187
286,0.47485,10446.533
287,0.476567,11780.262
288,0.4782,11780.262
289,0.47985,13211.966
290,0.481517,14711.395
291,0.483183,16239.509
292,0.48485,16239.509
293,0.486517,17753.094
294,0.488183,19202.307
295,0.48985,19202.307
296,0.491517,20546.764
297,0.493183,21740.943
298,0.49485,22751.689
299,0.496517,22751.689
300,0.498183,23553.52
301,0.49985,24127.439
302,0.5014999999999999,24465.174
303,0.503167,24465.174
304,0.504833,24571.939
305,0.5065,24461.373
306,0.508167,24154.186
307,0.509833,24154.186
308,0.5115,23677.275
309,0.513167,23059.1
310,0.514817,23059.1
311,0.516483,22326.484
312,0.51815,21504.164
313,0.519817,20624.846
314,0.521483,20624.846
315,0.52315,19705.742
316,0.524817,18772.93
317,0.526483,17841.16
318,0.52815,17841.16
319,0.529817,16923.621
320,0.531483,16035.885
321,0.53315,15176.534
322,0.534817,15176.534
323,0.536483,14357.269
324,0.53815,13581.067
325,0.539817,13581.067
326,0.541517,12849.048
327,0.54315,12166.276
328,0.544817,11528.209
329,0.5464830000000001,11528.209
330,0.54815,10936.111
331,0.549817,10378.51
332,0.551517,9859.129999999999
333,0.55315,9859.129999999999
334,0.554817,9381.696
335,0.5564829999999999,8934.438
336,0.55815,8525.103999999999
337,0.559817,8525.103999999999
338,0.561467,8147.806
339,0.563133,7793.382
340,0.5648,7466.078
341,0.5664670000000001,7466.078
342,0.568133,7161.2
343,0.5698,6879.196
344,0.5714669999999999,6879.196
345,0.573133,6618.798
346,0.5748,6377.026
347,0.576467,6148.219
348,0.578133,6148.219
349,0.5798,5932.525
350,0.581467,5730.316
351,0.583133,5540.177
352,0.5848,5540.177
353,0.586467,5363.971
354,0.588133,5197.972
355,0.589917,5040.765
356,0.591467,5040.765
357,0.593133,4892.498
358,0.5948,4758.686
359,0.596467,4758.686
360,0.598133,4631.653
361,0.5998,4511.178
362,0.601467,4396.438
363,0.603133,4396.438
364,0.6048,4281.476
365,0.606467,4175.082
366,0.608133,4074.201
367,0.6098,4074.201
368,0.611467,3980.92
369,0.613133,3891.811
370,0.6148,3805.608
371,0.616467,3805.608
372,0.61815,3724.992
373,0.6198,3645.867
374,0.6214499999999999,3573.224
375,0.623117,3573.224
376,0.624783,3503.04
377,0.62645,3435.686
378,0.628117,3435.686
379,0.629783,3371.09
380,0.63145,3308.132
381,0.633117,3247.634
382,0.634783,3247.634
383,0.63645,3188.998
384,0.638117,3134.087
385,0.639783,3081.188
386,0.641483,3081.188
387,0.643117,3031.269
388,0.644783,2982.915
389,0.64645,2936.87
390,0.6481170000000001,2936.87
391,0.649783,2888.888
392,0.65145,2842.471
393,0.6531169999999999,2842.471
394,0.654783,2800.45
395,0.65645,2755.672
396,0.658117,2718.046
397,0.659783,2718.046
398,0.66145,2681.688
399,0.663117,2646.595
400,0.664783,2612.844
401,0.66645,2612.844
402,0.668117,2579.466
403,0.669783,2547.502
404,0.67145,2512.857
405,0.673117,2512.857
406,0.6748499999999999,2481.714
407,0.67645,2451.762
408,0.678117,2420.023
409,0.679783,2420.023
410,0.681433,2393.275
411,0.6831,2367.72
412,0.684767,2367.72
413,0.686483,2341.121
414,0.6881,2319.962
415,0.689767,2294.779
416,0.691433,2294.779
417,0.6931,2268.553
418,0.694767,2244.115
419,0.696433,2220.05
420,0.6981000000000001,2220.05
421,0.699767,2199.113
422,0.70145,2177.283
423,0.7030999999999999,2155.677
424,0.704767,2155.677
425,0.706433,2136.23
426,0.7082000000000001,2116.039
427,0.709767,2116.039
428,0.711433,2101.585
429,0.7131,2088.845
430,0.714767,2070.74
431,0.716433,2070.74
432,0.7181,2056.211
433,0.719767,2039
434,0.721433,2020.076
435,0.7231,2020.076
436,0.7247670000000001,2001.3
437,0.726433,1981.482
438,0.7281,1960.248
439,0.729783,1960.248
440,0.731433,1943.558
441,0.7331,1930.147
442,0.7347669999999999,1930.147
443,0.736433,1918.599
444,0.7381,1909.584
445,0.73975,1897.141
446,0.741417,1897.141
447,0.743083,1885.816
448,0.74475,1873.896
449,0.746417,1861.379
450,0.7480830000000001,1861.379
451,0.74975,1850.724
452,0.751417,1837.537
453,0.7530829999999999,1823.753
454,0.75475,1823.753
455,0.756417,1812.205
456,0.7581,1797.974
457,0.75975,1785.979
458,0.761417,1785.979
459,0.763083,1775.25
460,0.76475,1766.384
461,0.766417,1766.384
462,0.768083,1757.07
463,0.76975,1747.385
464,0.771417,1737.699
465,0.773083,1737.699
466,0.77475,1727.641
467,0.776417,1719.594
468,0.778083,1710.802
469,0.7797500000000001,1710.802
470,0.781417,1700.595
471,0.783083,1690.909
472,0.7847499999999999,1681.373
473,0.786417,1681.373
474,0.788083,1674.965
475,0.78975,1668.707
476,0.791417,1668.707
477,0.79315,1661.33
478,0.79475,1653.656
479,0.796417,1643.151
480,0.798083,1643.151
481,0.79975,1632.795
482,0.8014,1620.65
483,0.803067,1612.157
484,0.804733,1612.157
485,0.806383,1605.302
486,0.80805,1602.62
487,0.809717,1600.459
488,0.811383,1600.459
489,0.813067,1597.479
490,0.814717,1591.37
491,0.816383,1583.323
492,0.8180500000000001,1583.323
493,0.819717,1577.362
494,0.821383,1569.167
495,0.8230499999999999,1569.167
496,0.824717,1562.163
497,0.8265,1555.532
498,0.82805,1546.293
499,0.829717,1546.293
500,0.831383,1540.259
501,0.83305,1538.023
502,0.83475,1534.522
503,0.836383,1534.522
504,0.83805,1532.435
505,0.839717,1528.189
506,0.841383,1522.303
507,0.84305,1522.303
508,0.8447170000000001,1519.546
509,0.846383,1513.362
510,0.84805,1513.362
511,0.8497169999999999,1509.711
512,0.851383,1502.41
513,0.85305,1489.893
514,0.8547169999999999,1489.893
515,0.856383,1483.336
516,0.85805,1478.344
517,0.859717,1476.109
518,0.861367,1476.109
519,0.8630330000000001,1473.203
520,0.8647,1473.203
521,0.866367,1466.945
522,0.8680330000000001,1466.945
523,0.8697,1464.263
524,0.871367,1461.506
525,0.8730329999999999,1453.236
526,0.8747,1453.236
527,0.876383,1448.914
528,0.878033,1444.966
529,0.8797,1444.966
530,0.881367,1441.687
531,0.883033,1440.346
532,0.8847,1436.994
533,0.886367,1436.994
534,0.888033,1430.362
535,0.8897,1427.755
536,0.891367,1425.445
537,0.893033,1425.445
538,0.8947000000000001,1422.018
539,0.896383,1419.112
540,0.898033,1415.685
541,0.8997000000000001,1415.685
542,0.901367,1410.767
543,0.9031,1406.297
544,0.9046999999999999,1406.297
545,0.906367,1401.976
546,0.908033,1399.07
547,0.9097,1394.6
548,0.911367,1394.6
549,0.913033,1394.227
550,0.9147,1395.941
551,0.916367,1392.067
552,0.918033,1392.067
553,0.9197,1391.992
554,0.92135,1385.882
555,0.923017,1378.581
556,0.924683,1378.581
557,0.92635,1377.24
558,0.928083,1372.397
559,0.929683,1372.397
560,0.93135,1370.385
561,0.933017,1368.076
562,0.934683,1364.574
563,0.93635,1364.574
564,0.938017,1364.276
565,0.939683,1365.17
566,0.94135,1364.574
567,0.943017,1364.574
568,0.944783,1361.668
569,0.94635,1360.029
570,0.948017,1355.782
571,0.9496830000000001,1355.782
572,0.95135,1354.814
573,0.953017,1351.461
574,0.9546829999999999,1348.704
575,0.95635,1348.704
576,0.958017,1346.096
577,0.959683,1344.01
578,0.96135,1344.01
579,0.963017,1342.818
580,0.964683,1336.932
581,0.96635,1335.442
582,0.968017,1335.442
583,0.969683,1331.27
584,0.97135,1328.885
585,0.973017,1327.991
586,0.974683,1327.991
587,0.9763500000000001,1325.309
588,0.978017,1323.596
589,0.979683,1323.819
590,0.9813499999999999,1323.819
591,0.98305,1323.968
592,0.984667,1324.415
593,0.986333,1324.415
594,0.988,1321.807
595,0.989667,1317.933
596,0.991333,1315.027
597,0.993,1315.027
598,0.994667,1310.557
599,0.996333,1306.236
600,0.998,1305.416
601,0.999667,1305.416
602,1.001333,1304.82
603,1.003,1303.777
604,1.004667,1306.385
605,1.006333,1306.385
606,1.008,1305.118
607,1.009667,1298.711
608,1.011333,1294.464
609,1.013,1294.464
610,1.014667,1289.472
611,1.016333,1286.343
612,1.018,1286.343
613,1.019667,1288.801
614,1.021333,1288.727
615,1.023,1290.068
616,1.024667,1290.068
617,1.026333,1289.696
618,1.028,1286.194
619,1.0297,1285.076
620,1.031333,1285.076
621,1.033,1279.19
622,1.034667,1277.104
623,1.036333,1277.998
624,1.038,1277.998
625,1.039667,1278.371
626,1.041317,1280.308
627,1.042983,1280.308
628,1.04465,1279.19
629,1.046383,1276.21
630,1.047983,1274.72
631,1.04965,1274.72
632,1.05135,1273.155
633,1.05305,1272.038
634,1.05465,1271.442
635,1.056317,1271.442
636,1.057983,1268.387
637,1.05965,1264.811
638,1.061317,1263.171
639,1.063083,1263.171
640,1.06465,1263.097
641,1.066317,1265.034
642,1.067983,1264.885
643,1.06965,1264.885
644,1.071317,1263.842
645,1.072983,1263.618
646,1.07465,1263.618
647,1.076317,1260.266
648,1.077983,1259.67
649,1.079767,1258.18
650,1.081317,1258.18
651,1.082983,1255.274
652,1.08465,1254.976
653,1.086317,1256.839
654,1.087983,1256.839
655,1.08965,1258.105
656,1.091317,1257.509
657,1.092983,1255.423
658,1.09465,1255.423
659,1.096317,1250.953
660,1.097967,1248.419
661,1.099617,1248.419
662,1.101283,1248.121
663,1.10295,1247.972
664,1.104617,1247.078
665,1.106283,1247.078
666,1.10795,1243.576
667,1.109617,1240.82
668,1.111283,1240.075
669,1.11295,1240.075
670,1.114617,1240
671,1.116283,1243.129
672,1.11795,1243.278
673,1.119617,1243.278
674,1.1213,1241.49
675,1.122983,1240.894
676,1.12465,1240.82
677,1.126283,1240.82
678,1.12795,1239.926
679,1.129617,1238.808
680,1.131283,1238.808
681,1.13295,1237.541
682,1.134617,1235.455
683,1.136283,1233.667
684,1.13795,1233.667
685,1.139617,1234.785
686,1.141283,1235.232
687,1.14295,1233.742
688,1.144617,1233.742
689,1.146283,1235.381
690,1.14795,1234.934
691,1.149617,1233.891
692,1.151283,1233.891
693,1.15295,1234.859
694,1.154617,1229.495
695,1.156283,1229.495
696,1.15795,1228.079
697,1.159617,1226.887
698,1.161267,1225.248
699,1.162933,1225.248
700,1.164683,1227.409
701,1.166267,1225.77
702,1.167933,1228.079
703,1.1696,1228.079
704,1.171267,1224.577
705,1.172933,1221.001
706,1.1746,1219.586
707,1.176267,1219.586
708,1.177933,1216.531
709,1.1796,1217.648
710,1.181333,1220.852
711,1.182933,1220.852
712,1.1846,1221.523
713,1.186267,1220.405
714,1.187933,1220.405
715,1.1896,1220.48
716,1.191267,1219.66
717,1.192933,1217.648
718,1.1946,1217.648
719,1.196267,1218.244
720,1.198033,1220.48
721,1.1996,1219.809
722,1.201267,1219.809
723,1.202967,1218.393
724,1.204617,1216.605
725,1.206267,1212.731
726,1.207933,1212.731
727,1.2096,1211.017
728,1.211267,1212.582
729,1.212933,1212.582
730,1.2146,1211.017
731,1.216267,1211.986
732,1.217933,1210.719
733,1.2196,1210.719
734,1.22125,1211.911
735,1.222917,1215.562
736,1.224583,1212.284
737,1.22625,1212.284
738,1.227917,1211.688
739,1.229583,1208.857
740,1.23125,1205.653
741,1.232917,1205.653
742,1.234583,1206.622
743,1.23625,1209.751
744,1.237917,1209.751
745,1.239583,1211.837
746,1.24125,1212.433
747,1.242917,1213.402
748,1.244583,1213.402
749,1.24625,1209.974
750,1.247917,1207.665
751,1.249583,1207.516
752,1.25125,1207.516
753,1.252917,1205.206
754,1.254583,1204.982
755,1.25625,1201.481
756,1.257917,1201.481
757,1.259583,1199.32
758,1.26125,1202.449
759,1.262917,1204.684
760,1.264583,1204.684
761,1.266267,1210.57
762,1.267983,1211.688
763,1.269583,1211.688
764,1.27125,1210.049
765,1.272917,1208.931
766,1.274583,1203.418
767,1.27625,1203.418
768,1.277917,1199.171
769,1.279583,1196.34
770,1.281233,1193.657
771,1.282933,1193.657
772,1.284567,1195.669
773,1.286233,1197.681
774,1.2879,1197.83
775,1.289567,1197.83
776,1.291233,1196.414
777,1.2929,1197.755
778,1.294567,1197.755
779,1.296233,1199.32
780,1.2979,1199.842
781,1.299583,1199.171
782,1.301233,1199.171
783,1.3029,1196.712
784,1.304567,1194.626
785,1.306233,1194.179
786,1.3079,1194.179
787,1.309567,1194.403
788,1.311233,1192.391
789,1.3129,1192.391
790,1.314567,1192.391
791,1.31635,1190.826
792,1.3179,1192.838
793,1.319567,1195.669
794,1.321233,1195.669
795,1.3229,1195.595
796,1.324567,1195.297
797,1.326233,1195.297
798,1.3279,1193.732
799,1.329567,1189.411
800,1.331233,1185.685
801,1.3329,1185.685
802,1.334567,1186.579
803,1.336233,1188.144
804,1.3379,1191.571
805,1.33955,1191.571
806,1.341217,1196.489
807,1.342883,1196.563
808,1.34455,1196.787
809,1.346233,1196.787
810,1.347917,1196.638
811,1.349633,1192.167
812,1.351217,1192.167
813,1.352883,1188.74
814,1.35455,1184.866
815,1.356217,1180.396
816,1.357883,1180.396
817,1.35955,1181.513
818,1.361217,1182.929
819,1.362883,1186.803
820,1.36455,1186.803
821,1.366217,1188.591
822,1.367883,1191.72
823,1.36955,1191.273
824,1.371217,1191.273
825,1.372883,1190.081
826,1.37455,1190.752
827,1.376217,1190.752
828,1.377883,1188.219
829,1.37955,1188.219
830,1.381217,1190.528
831,1.382883,1190.528
832,1.38455,1190.677
833,1.386217,1189.485
834,1.387867,1190.156
835,1.389533,1190.156
836,1.3912,1189.411
837,1.392867,1192.614
838,1.394533,1193.956
839,1.3962,1193.956
840,1.39785,1195.222
841,1.399533,1193.956
842,1.40125,1189.485
843,1.40285,1189.485
844,1.404517,1188.144
845,1.406183,1186.058
846,1.40785,1186.058
847,1.409517,1183.674
848,1.411183,1182.705
849,1.41285,1183.003
850,1.414517,1183.003
851,1.4162,1183.152
852,1.41795,1184.046
853,1.419517,1187.697
854,1.421183,1187.697
855,1.42285,1186.579
856,1.424517,1185.089
857,1.426183,1183.897
858,1.42785,1183.897
859,1.429517,1180.768
860,1.431183,1180.843
861,1.43285,1180.843
862,1.434617,1184.866
863,1.436183,1185.536
864,1.43785,1183.003
865,1.439517,1183.003
866,1.441183,1182.631
867,1.44285,1181.29
868,1.444517,1181.215
869,1.446183,1181.215
870,1.44785,1184.866
871,1.449517,1186.058
872,1.451183,1183.525
873,1.45285,1183.525
874,1.454517,1183.376
875,1.456183,1181.886
876,1.45785,1183.823
877,1.459517,1183.823
878,1.461167,1187.995
879,1.462833,1188.889
880,1.4645,1188.889
881,1.466167,1191.422
882,1.467833,1187.846
883,1.4695,1183.748
884,1.471167,1183.748
885,1.472833,1184.046
886,1.4745,1183.748
887,1.476167,1187.176
888,1.477833,1187.176
889,1.4795,1186.281
890,1.481167,1183.897
891,1.482833,1181.886
892,1.4845,1181.886
893,1.4862,1176.074
894,1.487867,1175.031
895,1.4895,1175.031
896,1.491167,1175.776
897,1.492833,1171.604
898,1.4945,1171.753
899,1.496167,1171.753
900,1.497833,1172.572
901,1.4995,1170.859
902,1.501167,1174.435
903,1.502833,1174.435
904,1.5045,1177.043
905,1.506167,1175.627
906,1.50785,1177.937
907,1.5095,1177.937
908,1.511167,1179.129
909,1.512833,1179.725
910,1.5145,1179.725
911,1.516167,1181.662
912,1.517817,1180.396
913,1.51955,1177.639
914,1.52115,1177.639
915,1.522817,1177.788
916,1.524483,1180.023
