"ID","sea_time","fid_signal"
1,0,1171.753
2,0.001667,1172.349
3,0.003333,1172.349
4,0.005,1170.784
5,0.006667,1166.835
6,0.008333,1161.099
7,0.010117,1161.099
8,0.011667,1163.408
9,0.013333,1164.302
10,0.015,1164.302
11,0.016667,1166.612
12,0.018333,1168.251
13,0.02,1165.867
14,0.021667,1165.867
15,0.02335,1167.804
16,0.025,1167.804
17,0.026667,1165.867
18,0.02835,1165.867
19,0.03,1167.506
20,0.031667,1165.122
21,0.033333,1166.165
22,0.035,1166.165
23,0.036667,1168.102
24,0.038333,1166.09
25,0.04,1166.09
26,0.041667,1165.494
27,0.043317,1163.259
28,0.044983,1165.792
29,0.04665,1165.792
30,0.048317,1167.729
31,0.049983,1167.357
32,0.05165,1168.251
33,0.053317,1168.251
34,0.054983,1166.388
35,0.05665,1164.153
36,0.0583,1166.91
37,0.059967,1166.91
38,0.06165,1169.145
39,0.0633,1168.177
40,0.064967,1165.42
41,0.066633,1165.42
42,0.0683,1163.483
43,0.069967,1159.31
44,0.071633,1159.31
45,0.0733,1157.82
46,0.07496700000000001,1163.334
47,0.07663300000000001,1163.483
48,0.07829999999999999,1163.483
49,0.079967,1167.208
50,0.081633,1168.698
51,0.0833,1167.059
52,0.084967,1167.059
53,0.086633,1167.208
54,0.0883,1164.749
55,0.08998299999999999,1164.377
56,0.09163300000000001,1164.377
57,0.09329999999999999,1163.185
58,0.095017,1166.016
59,0.096633,1166.016
60,0.0983,1168.624
61,0.099967,1168.773
62,0.101633,1169.592
63,0.103317,1169.592
64,0.105,1165.643
65,0.106617,1163.93
66,0.108283,1164.079
67,0.10995,1164.079
68,0.111617,1166.537
69,0.113283,1169.592
70,0.11495,1171.753
71,0.116617,1171.753
72,0.118283,1171.157
73,0.11995,1168.549
74,0.121617,1168.549
75,0.123283,1167.208
76,0.12495,1164.675
77,0.126617,1164.749
78,0.128283,1164.749
79,0.12995,1163.781
80,0.131617,1162.738
81,0.133283,1161.918
82,0.13495,1161.918
83,0.136617,1163.706
84,0.138283,1166.537
85,0.13995,1166.463
86,0.141617,1166.463
87,0.143283,1167.804
88,0.14495,1166.612
89,0.146617,1165.867
90,0.148283,1165.867
91,0.14995,1167.879
92,0.151617,1166.984
93,0.153283,1166.984
94,0.15495,1167.282
95,0.156617,1166.388
96,0.158283,1164.824
97,0.15995,1164.824
98,0.1616,1164.526
99,0.163267,1164.377
100,0.164933,1164.228
101,0.166617,1164.228
102,0.168333,1163.855
103,0.169933,1164.526
104,0.1716,1164.824
105,0.173267,1164.824
106,0.174933,1165.867
107,0.1766,1169.443
108,0.178267,1169.443
109,0.179933,1172.721
110,0.1816,1176.745
111,0.183267,1176.074
112,0.184933,1176.074
113,0.1866,1172.423
114,0.188267,1168.027
115,0.189933,1163.334
116,0.191617,1163.334
117,0.193267,1163.259
118,0.194933,1164.153
119,0.1966,1166.612
120,0.198267,1166.612
121,0.199933,1166.388
122,0.2016,1168.177
123,0.203267,1171.38
124,0.204933,1171.38
125,0.2066,1170.635
126,0.208267,1170.337
127,0.209933,1170.337
128,0.2116,1169.518
129,0.213333,1166.239
130,0.214933,1164.377
131,0.2166,1164.377
132,0.218267,1162.812
133,0.219933,1160.055
134,0.2216,1158.565
135,0.22325,1158.565
136,0.224917,1158.491
137,0.226583,1159.161
138,0.22825,1159.608
139,0.229917,1159.608
140,0.231583,1161.024
141,0.23325,1162.663
142,0.234917,1162.663
143,0.236583,1164.6
144,0.2383,1169.145
145,0.239917,1171.529
146,0.241583,1171.529
147,0.24325,1173.094
148,0.244917,1171.678
149,0.246683,1167.506
150,0.24825,1167.506
151,0.249917,1167.282
152,0.251583,1164.749
153,0.25325,1165.047
154,0.254917,1165.047
155,0.256583,1166.463
156,0.25825,1163.185
157,0.259917,1163.557
158,0.261583,1163.557
159,0.26325,1165.494
160,0.264917,1164.153
161,0.266583,1164.153
162,0.26825,1165.345
163,0.269917,1164.6
164,0.271583,1161.993
165,0.27325,1161.993
166,0.274917,1165.42
167,0.276583,1166.09
168,0.27825,1166.686
169,0.279917,1166.686
170,0.2816,1168.996
171,0.28325,1165.196
172,0.2849,1165.494
173,0.286567,1165.494
174,0.288233,1166.761
175,0.289917,1166.835
176,0.291567,1166.835
177,0.293233,1168.922
178,0.2949,1170.412
179,0.296567,1170.859
180,0.298233,1170.859
181,0.2999,1169.592
182,0.301567,1167.804
183,0.303233,1165.047
184,0.3049,1165.047
185,0.306567,1166.239
186,0.30825,1170.263
187,0.3099,1171.604
188,0.311567,1171.604
189,0.313233,1174.807
190,0.3149,1174.882
191,0.316567,1173.243
192,0.318233,1173.243
193,0.3199,1173.466
194,0.321567,1171.827
195,0.323233,1171.827
196,0.3249,1171.157
197,0.326567,1168.027
198,0.328233,1168.624
199,0.3299,1168.624
200,0.3316,1168.177
201,0.333233,1166.463
202,0.3349,1168.251
203,0.336567,1168.251
204,0.338233,1166.761
205,0.3399,1165.271
206,0.341567,1167.357
207,0.343217,1167.357
208,0.344883,1168.773
209,0.34655,1169.071
210,0.3483,1171.082
211,0.349867,1171.082
212,0.351533,1169.071
213,0.3532,1167.879
214,0.354867,1167.879
215,0.356533,1169.294
216,0.3582,1168.773
217,0.359867,1168.996
218,0.361533,1168.996
219,0.3632,1167.506
220,0.365,1163.632
221,0.366533,1163.855
222,0.3682,1163.855
223,0.369867,1165.867
224,0.371533,1168.922
225,0.3732,1168.922
226,0.374867,1172.051
227,0.376533,1171.38
228,0.3782,1170.412
229,0.379867,1170.412
230,0.381533,1171.529
231,0.3832,1171.008
232,0.384867,1172.2
233,0.38655,1172.2
234,0.3882,1171.008
235,0.389867,1168.773
236,0.391533,1171.082
237,0.3932,1171.082
238,0.394867,1172.572
239,0.396533,1174.957
240,0.3982,1175.627
241,0.399867,1175.627
242,0.401533,1174.137
243,0.403183,1173.615
244,0.40485,1173.615
245,0.406517,1171.827
246,0.408183,1169.145
247,0.40985,1170.486
248,0.411517,1170.486
249,0.413183,1167.506
250,0.41485,1168.251
251,0.416517,1170.561
252,0.418183,1170.561
253,0.41985,1170.412
254,0.421517,1170.635
255,0.423183,1169.294
256,0.42485,1169.294
257,0.426517,1168.027
258,0.428183,1166.388
259,0.42985,1166.388
260,0.431517,1167.208
261,0.433183,1166.686
262,0.43485,1166.91
263,0.436517,1166.91
264,0.438183,1168.251
265,0.43985,1167.729
266,0.441517,1169.667
267,0.443183,1169.667
268,0.4449,1172.796
269,0.446517,1173.317
270,0.448183,1176.521
271,0.449883,1176.521
272,0.451517,1176.968
273,0.453183,1177.49
274,0.45485,1177.788
275,0.45655,1177.788
276,0.458183,1176.894
277,0.45985,1176.745
278,0.461517,1176.745
279,0.463167,1175.627
280,0.46485,1176
281,0.466617,1176.67
282,0.468167,1176.67
283,0.469833,1176.968
284,0.4715,1177.415
285,0.473167,1179.352
286,0.474833,1179.352
287,0.4765,1181.066
288,0.478167,1182.631
289,0.479833,1181.215
290,0.4815,1181.215
291,0.483267,1179.278
292,0.484833,1178.384
293,0.4865,1178.384
294,0.488167,1177.192
295,0.489833,1176.372
296,0.4915,1176.745
297,0.493167,1176.745
298,0.494833,1176.149
299,0.4965,1175.106
300,0.498167,1179.874
301,0.499917,1179.874
302,0.5014999999999999,1180.097
303,0.503167,1178.533
304,0.504833,1180.545
305,0.5065,1180.545
306,0.508167,1177.862
307,0.509833,1178.235
308,0.5115,1178.98
309,0.513167,1178.98
310,0.514833,1179.352
311,0.5165,1179.427
312,0.518167,1179.427
313,0.519833,1177.862
314,0.5215,1177.415
315,0.52315,1174.882
316,0.524817,1174.882
317,0.526483,1173.765
318,0.52815,1174.286
319,0.529883,1176.447
320,0.531483,1176.447
321,0.53315,1176.894
322,0.534817,1174.36
323,0.536483,1176.074
324,0.53815,1176.074
325,0.539817,1173.988
326,0.541483,1174.286
327,0.54315,1174.286
328,0.544817,1177.788
329,0.5464830000000001,1175.553
330,0.54815,1175.627
331,0.549817,1175.627
332,0.5514829999999999,1172.572
333,0.55315,1172.125
334,0.554817,1172.349
335,0.5564829999999999,1172.349
336,0.55815,1169.22
337,0.559817,1173.392
338,0.561483,1173.094
339,0.56315,1173.094
340,0.564817,1173.317
341,0.566483,1173.69
342,0.56815,1173.69
343,0.569817,1172.796
344,0.571483,1173.094
345,0.57315,1174.212
346,0.574817,1174.212
347,0.576483,1174.584
348,0.5781500000000001,1174.807
349,0.579817,1174.435
350,0.581483,1174.435
351,0.583133,1171.529
352,0.584883,1171.455
353,0.586467,1170.859
354,0.588133,1170.859
355,0.5898,1170.188
356,0.591467,1169.145
357,0.593133,1172.2
358,0.5948,1172.2
359,0.596467,1171.678
360,0.598133,1170.486
361,0.5998,1170.486
362,0.601567,1170.561
363,0.603133,1168.326
364,0.6048,1166.91
365,0.606467,1166.91
366,0.608133,1166.09
367,0.6098,1165.718
368,0.611467,1165.941
369,0.613133,1165.941
370,0.6148,1165.569
371,0.616467,1169.89
372,0.61825,1171.678
373,0.6198,1171.678
374,0.621467,1172.349
375,0.623133,1174.212
376,0.6248,1174.212
377,0.626467,1172.423
378,0.6281330000000001,1171.231
379,0.6298,1168.996
380,0.631467,1168.996
381,0.6331329999999999,1167.357
382,0.6348,1167.282
383,0.636467,1169.89
384,0.638133,1169.89
385,0.6398,1172.423
386,0.64145,1174.137
387,0.6431,1171.231
388,0.644767,1171.231
389,0.646433,1170.412
390,0.6481,1169.592
391,0.649767,1170.263
392,0.651433,1170.263
393,0.6531,1172.423
394,0.654767,1173.615
395,0.656433,1173.615
396,0.6581,1174.807
397,0.659767,1171.753
398,0.661433,1170.71
399,0.6631,1170.71
400,0.664767,1166.239
401,0.6664330000000001,1164.302
402,0.6681,1167.953
403,0.669783,1167.953
404,0.6714329999999999,1168.475
405,0.6731,1170.561
406,0.674767,1169.667
407,0.676433,1169.667
408,0.6781,1168.177
409,0.679783,1169.518
410,0.681433,1169.518
411,0.6831,1169.071
412,0.684767,1171.306
413,0.686433,1169.741
414,0.6881,1169.741
415,0.689767,1169.667
416,0.691433,1169.518
417,0.693117,1168.177
418,0.694767,1168.177
419,0.696433,1170.561
420,0.6981000000000001,1168.698
421,0.699767,1170.188
422,0.701433,1170.188
423,0.7031500000000001,1169.071
424,0.70475,1165.196
425,0.706417,1165.196
426,0.708083,1167.133
427,0.70975,1165.196
428,0.711417,1168.624
429,0.713083,1168.624
430,0.71475,1170.039
431,0.716417,1168.4
432,0.718083,1171.082
433,0.719783,1171.082
434,0.721417,1171.529
435,0.723083,1171.827
436,0.72475,1171.082
437,0.726417,1171.082
438,0.728083,1170.412
439,0.72975,1169.592
440,0.731417,1172.274
441,0.733083,1172.274
442,0.73475,1175.553
443,0.736533,1175.851
444,0.738083,1175.851
445,0.73975,1173.541
446,0.741417,1171.157
447,0.743083,1169.965
448,0.74475,1169.965
449,0.746417,1167.208
450,0.748117,1167.506
451,0.74975,1168.922
452,0.751417,1168.922
453,0.7530829999999999,1166.761
454,0.75475,1167.059
455,0.756417,1167.953
456,0.758083,1167.953
457,0.75975,1164.898
458,0.761417,1167.506
459,0.7630670000000001,1167.506
460,0.764733,1167.655
461,0.7664,1166.314
462,0.7680670000000001,1167.729
463,0.769733,1167.729
464,0.7714,1165.271
465,0.7731,1165.494
466,0.774733,1168.624
467,0.7764,1168.624
468,0.778067,1170.412
469,0.779733,1169.667
470,0.7814,1171.008
471,0.783067,1171.008
472,0.784733,1169.518
473,0.7864,1168.698
474,0.788067,1168.773
475,0.789733,1168.773
476,0.7914,1167.282
477,0.793067,1165.494
478,0.794733,1165.494
479,0.7964,1164.302
480,0.798067,1164.153
481,0.799733,1166.09
482,0.8014,1166.09
483,0.803067,1169.369
484,0.804733,1173.913
485,0.8064,1178.384
486,0.808067,1178.384
487,0.809733,1180.47
488,0.8114,1179.948
489,0.813067,1177.043
490,0.81475,1177.043
491,0.8164,1176.223
492,0.818067,1172.349
493,0.819733,1172.349
494,0.821383,1171.231
495,0.8230499999999999,1169.89
496,0.824717,1166.984
497,0.826383,1166.984
498,0.82805,1165.867
499,0.829717,1167.655
500,0.831383,1169.22
501,0.83305,1169.22
502,0.834717,1171.082
503,0.836383,1174.063
504,0.83805,1171.529
505,0.839717,1171.529
506,0.841383,1168.027
507,0.84305,1168.996
508,0.8447170000000001,1169.816
509,0.846383,1169.816
510,0.84805,1170.188
511,0.8497169999999999,1171.678
512,0.851383,1171.678
513,0.85305,1171.306
514,0.8548,1168.177
515,0.856383,1166.314
516,0.85805,1166.314
517,0.859717,1169.071
518,0.861383,1168.624
519,0.863083,1169.22
520,0.864717,1169.22
521,0.866383,1169.071
522,0.86805,1165.792
523,0.869717,1163.036
524,0.871383,1163.036
525,0.87305,1162.663
526,0.874717,1162.887
527,0.876383,1162.887
528,0.87805,1163.632
529,0.879717,1164.153
530,0.881383,1163.334
531,0.883033,1163.334
532,0.8847,1165.792
533,0.886367,1166.612
534,0.888033,1167.729
535,0.8897,1167.729
536,0.891367,1168.847
537,0.8930670000000001,1167.655
538,0.8947000000000001,1168.773
539,0.896367,1168.773
540,0.898033,1167.953
541,0.8997000000000001,1167.432
542,0.901367,1168.251
543,0.903033,1168.251
544,0.9046999999999999,1166.686
545,0.906367,1167.655
546,0.908033,1167.655
547,0.9097,1167.953
548,0.911367,1165.792
549,0.913033,1167.879
550,0.9147,1167.879
551,0.916367,1167.879
552,0.918033,1167.953
553,0.9197,1171.008
554,0.921383,1171.008
555,0.923033,1169.667
556,0.9247,1171.455
557,0.9263670000000001,1171.231
558,0.928033,1171.231
559,0.9297,1168.475
560,0.93135,1167.953
561,0.933017,1167.953
562,0.934683,1165.345
563,0.9363669999999999,1166.016
564,0.938017,1166.314
565,0.9398,1166.314
566,0.941333,1167.804
567,0.9429999999999999,1169.518
568,0.944667,1167.729
569,0.946333,1167.729
570,0.948,1166.984
571,0.949667,1164.153
572,0.951333,1162.514
573,0.953,1162.514
574,0.954667,1165.867
575,0.956367,1168.698
576,0.958,1168.698
577,0.959667,1168.326
578,0.961333,1169.443
579,0.96305,1168.102
580,0.9646670000000001,1168.102
581,0.966333,1167.282
582,0.968,1168.549
583,0.9696669999999999,1168.847
584,0.971333,1168.847
585,0.9731,1169.741
586,0.974667,1171.753
587,0.976333,1171.604
588,0.978,1171.604
589,0.979667,1169.369
590,0.981333,1169.518
591,0.983,1167.208
592,0.984667,1167.208
593,0.986333,1167.58
594,0.988,1169.294
595,0.989667,1169.294
596,0.991333,1170.933
597,0.993,1171.604
598,0.994667,1174.882
599,0.996333,1174.882
600,0.998,1176.521
601,0.999667,1173.69
602,1.001333,1174.137
603,1.002983,1174.137
604,1.00465,1170.188
605,1.006317,1166.239
606,1.007983,1168.922
607,1.00965,1168.922
608,1.011317,1167.953
609,1.012983,1170.114
610,1.01465,1170.114
611,1.016317,1174.957
612,1.017983,1171.678
613,1.01965,1169.816
614,1.021317,1169.816
