"ID","sea_time","fid_signal"
1,0,140.175
2,0.001667,140.138
3,0.003333,140.25
4,0.005,140.25
5,0.006667,140.54
6,0.008333,140.831
7,0.01005,140.913
8,0.011667,140.913
9,0.013333,140.466
10,0.015,140.071
11,0.016667,140.071
12,0.018333,139.996
13,0.019983,140.034
14,0.02165,140.458
15,0.023317,140.458
16,0.024983,140.652
17,0.026733,140.89
18,0.028317,140.816
19,0.03,140.816
20,0.031717,140.786
21,0.03335,140.734
22,0.034983,140.443
23,0.03665,140.443
24,0.038317,140.421
25,0.039983,140.145
26,0.04165,140.145
27,0.043433,140.227
28,0.044983,140.205
29,0.04665,140.175
30,0.048317,140.175
31,0.049983,140.503
32,0.05165,140.391
33,0.053317,140.242
34,0.054983,140.242
35,0.05665,140.242
36,0.058317,140.496
37,0.059983,140.786
38,0.06165,140.786
39,0.063317,141.047
40,0.064983,141.077
41,0.06665,140.809
42,0.068317,140.809
43,0.069983,140.354
44,0.07165000000000001,140.265
45,0.07331699999999999,140.265
46,0.07498299999999999,140.22
47,0.07665,140.183
48,0.078317,140.287
49,0.079983,140.287
50,0.081633,140.123
51,0.0833,140.175
52,0.084967,140.257
53,0.086633,140.257
54,0.0883,140.615
55,0.08996700000000001,140.838
56,0.09163300000000001,140.876
57,0.09329999999999999,140.876
58,0.094967,140.801
59,0.096633,140.697
60,0.098317,140.697
61,0.099967,140.734
62,0.101633,140.771
63,0.1033,140.756
64,0.104967,140.756
65,0.106633,140.503
66,0.108317,140.503
67,0.109967,140.689
68,0.111633,140.689
69,0.1133,140.794
70,0.114967,141.203
71,0.116633,140.928
72,0.1183,140.928
73,0.119967,140.734
74,0.121633,140.66
75,0.1233,140.473
76,0.124967,140.473
77,0.126633,140.667
78,0.128333,140.727
79,0.129967,140.727
80,0.131633,140.741
81,0.1333,140.905
82,0.134967,140.913
83,0.136633,140.913
84,0.1383,140.578
85,0.13995,140.443
86,0.141617,140.227
87,0.143283,140.227
88,0.144967,140.019
89,0.146617,140.175
90,0.148283,140.242
91,0.14995,140.242
92,0.151617,140.265
93,0.153283,140.25
94,0.15495,140.25
95,0.156617,140.205
96,0.158267,140.25
97,0.159933,140.183
98,0.1617,140.183
99,0.163267,140.518
100,0.164933,140.637
101,0.1666,140.309
102,0.168267,140.309
103,0.169933,140.25
104,0.1716,140.332
105,0.173267,140.011
106,0.174967,140.011
107,0.1766,140.406
108,0.178267,140.63
109,0.179933,140.63
110,0.1816,140.689
111,0.183267,141.032
112,0.184933,141.039
113,0.1866,141.039
114,0.188267,140.779
115,0.189933,140.451
116,0.1916,140.51
117,0.193267,140.51
118,0.19495,140.429
119,0.1966,140.533
120,0.198267,140.466
121,0.199933,140.466
122,0.201583,140.205
123,0.20325,140.391
124,0.204917,140.227
125,0.206583,140.227
126,0.20825,140.19
127,0.209917,140.354
128,0.211583,140.354
129,0.21325,140.034
130,0.214917,140.399
131,0.216583,140.496
132,0.21825,140.496
133,0.219917,140.6
134,0.221583,140.928
135,0.22325,140.712
136,0.224917,140.712
137,0.226583,140.838
138,0.22825,140.734
139,0.229917,140.414
140,0.231583,140.414
141,0.23325,140.518
142,0.234917,140.592
143,0.236583,140.592
144,0.23825,140.868
145,0.239933,141.047
146,0.241583,141.181
147,0.24325,141.181
148,0.244917,141.159
149,0.246667,140.883
150,0.24825,140.727
151,0.249917,140.727
152,0.251583,140.54
153,0.25325,140.63
154,0.254917,140.801
155,0.256583,140.801
156,0.25825,140.92
157,0.2599,140.809
158,0.261567,140.592
159,0.26325,140.592
160,0.2649,140.421
161,0.266567,140.503
162,0.268233,140.503
163,0.2699,140.645
164,0.271567,140.846
165,0.273233,141.017
166,0.2749,141.017
167,0.276567,140.935
168,0.278233,141.092
169,0.280017,141.099
170,0.281567,141.099
171,0.283233,141.032
172,0.2849,141.054
173,0.286567,141.039
174,0.288267,141.039
175,0.2899,140.95
176,0.291567,140.622
177,0.293233,140.622
178,0.2949,140.652
179,0.296567,140.741
180,0.298233,140.794
181,0.2999,140.794
182,0.301567,141.092
183,0.303233,140.816
184,0.3049,140.674
185,0.306567,140.674
186,0.308233,140.846
187,0.3099,140.898
188,0.311567,141.189
189,0.313233,141.189
190,0.3149,141.121
191,0.316567,140.749
192,0.318267,140.697
193,0.319883,140.697
194,0.32155,140.719
195,0.323217,140.473
196,0.324883,140.473
197,0.32655,140.615
198,0.328217,140.563
199,0.329883,140.369
200,0.33155,140.369
201,0.333217,140.741
202,0.334883,140.637
203,0.33655,140.622
204,0.338217,140.622
205,0.339883,140.682
206,0.341567,140.764
207,0.343217,141.181
208,0.344883,141.181
209,0.34655,141.196
210,0.348217,141.308
211,0.349883,141.308
212,0.35155,141.509
213,0.353217,141.643
214,0.354883,142.254
215,0.35655,142.254
216,0.358217,143.275
217,0.359883,144.139
218,0.361567,145.16
219,0.363217,145.16
220,0.36495,146.903
221,0.36655,148.766
222,0.368217,151.649
223,0.369883,151.649
224,0.37155,155.024
225,0.373217,158.839
226,0.374883,158.839
227,0.37655,163.302
228,0.378217,168.547
229,0.379883,174.984
230,0.381567,174.984
231,0.3832,182.584
232,0.384867,191.48
233,0.386533,201.181
234,0.3882,201.181
235,0.389867,211.827
236,0.391567,223.264
237,0.3932,235.625
238,0.394867,235.625
239,0.396533,248.469
240,0.398317,262.082
241,0.399867,276.476
242,0.401533,276.476
243,0.4032,291.526
244,0.404867,307.098
245,0.406533,307.098
246,0.4082,323.34
247,0.409867,339.821
248,0.411533,356.652
249,0.4132,356.652
250,0.414867,373.825
251,0.416533,391.155
252,0.4182,408.985
253,0.419867,408.985
254,0.421533,427.06
255,0.4232,445.604
256,0.424867,464.581
257,0.426533,464.581
258,0.4282,484.139
259,0.429867,503.89
260,0.431533,503.89
261,0.4332,524.528
262,0.434867,545.748
263,0.436533,566.699
264,0.4382,566.699
265,0.43985,588.5359999999999
266,0.441517,610.508
267,0.443183,633.277
268,0.44485,633.277
269,0.446517,657.119
270,0.448183,681.795
271,0.449833,707.269
272,0.451517,707.269
273,0.4532,733.741
274,0.454833,761.576
275,0.4565,790.544
276,0.458167,790.544
277,0.45985,821.8440000000001
278,0.4615,855.476
279,0.463167,855.476
280,0.464833,892.341
281,0.4665,933.819
282,0.468167,980.712
283,0.469833,980.712
284,0.4715,1035.742
285,0.473167,1101.382
286,0.474833,1181.208
287,0.4765,1181.208
288,0.478167,1279.563
289,0.479833,1400.717
290,0.4815,1550.108
291,0.483217,1550.108
292,0.484833,1732.811
293,0.4865,1953.788
294,0.488167,1953.788
295,0.489833,2216.794
296,0.4915,2524.063
297,0.493167,2875.552
298,0.494833,2875.552
299,0.4965,3268.532
300,0.49815,3698.193
301,0.499817,4156.388
302,0.501483,4156.388
303,0.50315,4633.27
304,0.504817,5116.969
305,0.506483,5594.85
306,0.50815,5594.85
307,0.509817,6054.111
308,0.511483,6481.878
309,0.51315,6867.833
310,0.514817,6867.833
311,0.5165999999999999,7202.603
312,0.51815,7479.593
313,0.519817,7479.593
314,0.521483,7694.17
315,0.52315,7843.688
316,0.524817,7928.423
317,0.526483,7928.423
318,0.52815,7950.03
319,0.529817,7913.269
320,0.531483,7823.333
321,0.53315,7823.333
322,0.534817,7685.915
323,0.5365,7508.583
324,0.53815,7297.732
325,0.539867,7297.732
326,0.541483,7060.491
327,0.54315,6803.214
328,0.544817,6803.214
329,0.5464830000000001,6531.514
330,0.54815,6250.799
331,0.549817,5965.926
332,0.5514829999999999,5965.926
333,0.55315,5681.381
334,0.554817,5400.367
335,0.5564829999999999,5125.702
336,0.55815,5125.702
337,0.5598,4859.194
338,0.561467,4602.715
339,0.563133,4357.375
340,0.5648,4357.375
341,0.5664670000000001,4123.822
342,0.568133,3903.262
343,0.5698,3903.262
344,0.5714669999999999,3695.011
345,0.573133,3499.329
346,0.5748,3316.03
347,0.576467,3316.03
348,0.578133,3144.376
349,0.5798,2984.241
350,0.581467,2834.685
351,0.583133,2834.685
352,0.5848,2695.657
353,0.586467,2566.151
354,0.588133,2445.877
355,0.5898,2445.877
356,0.591467,2333.887
357,0.593133,2229.467
358,0.5948,2132.207
359,0.596467,2132.207
360,0.598133,2041.131
361,0.5998,1956.373
362,0.601517,1956.373
363,0.603133,1876.965
364,0.6048,1802.526
365,0.606467,1733.378
366,0.608167,1733.378
367,0.6098,1668.438
368,0.611467,1607.724
369,0.613167,1551.114
370,0.6148,1551.114
371,0.616467,1497.209
372,0.618117,1446.366
373,0.619783,1398.526
374,0.6214499999999999,1398.526
375,0.623117,1353.13
376,0.624783,1310.162
377,0.62645,1310.162
378,0.628117,1269.78
379,0.629783,1231.261
380,0.63145,1194.857
381,0.633117,1194.857
382,0.6349,1160.443
383,0.63645,1127.668
384,0.638117,1096.562
385,0.639783,1096.562
386,0.64145,1066.335
387,0.643117,1037.478
388,0.644783,1010.038
389,0.64645,1010.038
390,0.6481170000000001,983.6849999999999
391,0.649783,959.076
392,0.65145,935.592
393,0.6531169999999999,935.592
394,0.654783,912.838
395,0.65645,891.335
396,0.658117,891.335
397,0.659783,870.4589999999999
398,0.66145,850.551
399,0.663117,831.731
400,0.664783,831.731
401,0.66645,813.529
402,0.668117,795.804
403,0.669783,778.9880000000001
404,0.67145,778.9880000000001
405,0.673117,762.515
406,0.674783,746.72
407,0.67645,731.9450000000001
408,0.678117,731.9450000000001
409,0.679783,717.059
410,0.681433,702.806
411,0.6831,702.806
412,0.684767,688.896
413,0.686467,675.47
414,0.688133,662.938
415,0.689767,662.938
416,0.691433,650.607
417,0.6931,639.066
418,0.694767,627.793
419,0.696433,627.793
420,0.6981000000000001,617.027
421,0.699767,606.8200000000001
422,0.701433,596.553
423,0.7030999999999999,596.553
424,0.704767,586.51
425,0.706433,576.586
426,0.7081,567.146
427,0.709767,567.146
428,0.711433,557.974
429,0.7131,548.936
430,0.714767,548.936
431,0.716433,540.167
432,0.7181,531.912
433,0.719783,523.798
434,0.721433,523.798
435,0.7231,516.206
436,0.7247670000000001,508.673
437,0.726433,501.119
438,0.7281,501.119
439,0.7297670000000001,494.13
440,0.731433,487
441,0.7331,480.421
442,0.7347669999999999,480.421
443,0.7365,473.596
444,0.7381,467.055
445,0.73975,467.055
446,0.7413999999999999,460.736
447,0.743067,454.761
448,0.744733,449.21
449,0.7464,449.21
450,0.748067,443.585
451,0.749733,438.4
452,0.7514,432.797
453,0.753067,432.797
454,0.754733,427.306
455,0.7564,422.142
456,0.758067,416.853
457,0.759733,416.853
458,0.761433,411.779
459,0.7631,406.928
460,0.764733,406.928
461,0.7664,402.264
462,0.7680670000000001,397.921
463,0.769833,393.674
464,0.7714,393.674
465,0.7730669999999999,389.755
466,0.774733,385.784
467,0.7764,381.418
468,0.778067,381.418
469,0.779733,377.253
470,0.7814,373.08
471,0.783067,368.99
472,0.784733,368.99
473,0.7864,365.421
474,0.788067,361.644
475,0.789733,357.874
476,0.7914,357.874
477,0.793067,354.223
478,0.794733,350.572
479,0.7964,350.572
480,0.798067,347.152
481,0.799717,343.695
482,0.801383,340.201
483,0.80305,340.201
484,0.804717,336.915
485,0.806383,333.92
486,0.80805,331.253
487,0.809717,331.253
488,0.811383,328.504
489,0.8130500000000001,325.821
490,0.814717,323.303
491,0.816383,323.303
492,0.8180500000000001,320.509
493,0.819717,317.805
494,0.821383,317.805
495,0.8230499999999999,315.264
496,0.824717,312.634
497,0.8264,310.13
498,0.828067,310.13
499,0.82975,307.642
500,0.831383,305.086
501,0.83305,302.531
502,0.834717,302.531
503,0.836383,300.02
504,0.83805,297.964
505,0.839717,295.81
506,0.841383,295.81
507,0.84305,293.843
508,0.8447170000000001,291.787
509,0.846383,289.448
510,0.84805,289.448
511,0.8497169999999999,287.13
512,0.851383,284.977
513,0.85305,284.977
514,0.854783,282.98
515,0.856383,280.976
516,0.85805,278.957
517,0.8597,278.957
518,0.861367,276.797
519,0.8630330000000001,275.053
520,0.8647,273.168
521,0.866367,273.168
522,0.8680330000000001,271.454
523,0.8697,269.614
524,0.871433,267.603
525,0.8730329999999999,267.603
526,0.8747,265.993
527,0.876367,264.414
528,0.878033,264.414
529,0.8797,262.812
530,0.881367,261.396
531,0.883033,260.003
532,0.8847,260.003
533,0.886367,258.654
534,0.888133,257.306
535,0.8897,255.935
536,0.891367,255.935
537,0.893033,254.288
538,0.8947000000000001,252.709
539,0.896367,251.234
540,0.898033,251.234
541,0.8997000000000001,249.676
542,0.901367,248.387
543,0.903033,247.017
544,0.9046999999999999,247.017
545,0.9064,245.735
546,0.9081,244.424
547,0.9097,244.424
548,0.911367,242.844
549,0.913033,241.429
550,0.9147,239.931
551,0.916367,239.931
552,0.918017,238.374
553,0.9197,237.249
554,0.92135,236.243
555,0.923017,236.243
556,0.924683,235.2
557,0.92635,234.194
558,0.928017,232.846
559,0.929683,232.846
560,0.93135,231.84
561,0.933017,230.774
562,0.934683,230.774
563,0.93635,229.761
564,0.938017,228.956
565,0.939683,227.645
566,0.94135,227.645
567,0.943017,226.624
568,0.9446830000000001,225.499
569,0.94635,224.397
570,0.948017,224.397
571,0.9496830000000001,223.421
572,0.95135,222.258
573,0.953017,221.148
574,0.9546829999999999,221.148
575,0.95635,220.194
576,0.958017,219.338
577,0.959683,218.57
578,0.96135,218.57
579,0.963017,217.915
580,0.964683,216.939
581,0.96635,216.939
582,0.968017,215.687
583,0.969683,215.024
584,0.97135,213.861
585,0.973033,213.861
586,0.974683,213.057
587,0.9763500000000001,212.52
588,0.978017,211.515
589,0.9797,211.515
590,0.9813499999999999,211.068
591,0.98305,210.188
592,0.984667,209.182
593,0.986333,209.182
594,0.988,208.266
595,0.989683,207.156
596,0.991333,207.156
597,0.993,206.418
598,0.994667,205.688
599,0.996333,205.092
600,0.998,205.092
601,0.999667,204.332
602,1.001333,203.289
603,1.003,202.35
604,1.004667,202.35
605,1.00645,201.486
606,1.008,200.853
607,1.009667,200.346
608,1.011333,200.346
609,1.013,200.041
610,1.014667,199.281
611,1.016333,199.281
612,1.018,198.707
613,1.019667,198.402
614,1.021333,197.82
615,1.023,197.82
616,1.024667,197.239
617,1.026333,196.494
618,1.028,195.511
619,1.029667,195.511
620,1.031317,194.788
621,1.032983,194.006
622,1.03465,193.514
623,1.036317,193.514
624,1.037983,193.365
625,1.039633,192.881
626,1.0413,192.486
627,1.042967,192.486
628,1.044633,191.852
629,1.0463,191.264
630,1.047967,191.264
631,1.049633,190.735
632,1.0513,190.318
633,1.053,189.759
634,1.054633,189.759
635,1.0563,189.081
636,1.057967,188.604
637,1.059633,188.15
638,1.0613,188.15
639,1.062967,187.665
640,1.064667,187.129
641,1.0663,186.436
642,1.067967,186.436
643,1.069633,185.966
644,1.0713,185.333
645,1.072967,185.333
646,1.074633,184.752
647,1.0763,184.387
648,1.077967,183.932
649,1.079633,183.932
650,1.0813,183.754
651,1.082967,183.21
652,1.084633,182.45
653,1.0863,182.45
654,1.087967,181.913
655,1.089633,181.548
656,1.091383,181.362
657,1.092967,181.362
658,1.094633,181.392
659,1.0963,180.848
660,1.097967,180.453
661,1.099617,180.453
662,1.101283,180.073
663,1.10295,179.388
664,1.104617,179.388
665,1.106283,178.993
666,1.10795,178.24
667,1.109617,177.525
668,1.111283,177.525
669,1.11295,176.944
670,1.114617,176.467
671,1.116283,176.266
672,1.11795,176.266
673,1.119617,176.139
674,1.121283,176.206
675,1.12295,175.998
676,1.124733,175.998
677,1.126283,175.528
678,1.12795,175.253
679,1.129633,175.253
680,1.131283,174.917
681,1.13295,174.515
682,1.134617,174.545
683,1.136283,174.545
684,1.13795,174.128
685,1.139617,173.457
686,1.141283,173.055
687,1.14295,173.055
688,1.144617,172.578
689,1.146283,172.295
690,1.147967,172.049
691,1.149617,172.049
692,1.151283,171.922
693,1.152967,171.565
694,1.15465,171.289
695,1.156283,171.289
696,1.15795,171.214
697,1.159617,171.162
698,1.161267,171.162
699,1.162933,171.028
700,1.1646,170.678
701,1.166267,170.276
702,1.167933,170.276
703,1.1696,169.605
704,1.171267,168.949
705,1.172933,168.666
706,1.1746,168.666
707,1.176267,168.361
708,1.177933,168.331
709,1.1796,168.502
710,1.181267,168.502
711,1.182933,168.45
712,1.1846,168.167
713,1.186267,168.167
714,1.187933,167.869
715,1.1896,167.578
716,1.191267,167.154
717,1.192933,167.154
718,1.1946,166.766
719,1.196267,166.491
720,1.19795,166.044
721,1.1996,166.044
722,1.201267,165.82
723,1.202933,165.761
724,1.2046,165.455
725,1.206267,165.455
726,1.207933,165.5
727,1.2096,165.269
728,1.211267,165.269
729,1.212933,164.889
730,1.2146,164.725
731,1.216267,164.099
732,1.217933,164.099
733,1.219583,164.054
734,1.22125,163.786
735,1.222917,163.369
736,1.224583,163.369
737,1.22625,163.466
738,1.227917,162.981
739,1.229583,162.989
740,1.23125,162.989
741,1.232917,162.81
742,1.234583,162.318
743,1.23625,162.423
744,1.237933,162.423
745,1.239583,162.408
746,1.24125,162.251
747,1.243033,161.968
748,1.244583,161.968
749,1.24625,161.268
750,1.247917,160.933
751,1.249583,160.933
752,1.25125,160.992
753,1.252917,160.933
754,1.254583,160.851
755,1.25625,160.851
756,1.257917,160.344
757,1.259583,160.158
758,1.26125,159.889
759,1.262917,159.889
760,1.264583,159.822
761,1.26625,159.8
762,1.267917,159.8
763,1.269583,159.45
764,1.27125,159.264
765,1.272917,158.921
766,1.274583,158.921
767,1.27625,158.735
768,1.277933,158.526
769,1.279567,158.414
770,1.281233,158.414
771,1.2829,158.474
772,1.284567,158.198
773,1.286233,158.064
774,1.2879,158.064
775,1.289567,157.803
776,1.291233,157.565
777,1.2929,157.773
778,1.294567,157.773
779,1.296233,157.528
780,1.2979,157.826
781,1.299567,157.826
782,1.301233,157.811
783,1.3029,157.58
784,1.304567,157.796
785,1.306233,157.796
786,1.3079,157.557
787,1.309567,157.364
788,1.311233,157.125
789,1.3129,157.125
790,1.314567,156.581
791,1.316233,156.224
792,1.31795,156.142
793,1.319567,156.142
794,1.321233,156.283
795,1.3229,156.254
796,1.32455,156.254
797,1.326217,156.023
798,1.32795,155.866
799,1.32955,155.553
800,1.331217,155.553
801,1.332883,155.65
802,1.33455,155.799
803,1.336217,155.441
804,1.337867,155.441
805,1.339533,155.307
806,1.3412,155.158
807,1.342867,154.793
808,1.344567,154.793
809,1.3462,154.86
810,1.347867,154.965
811,1.349533,154.965
812,1.3512,154.778
813,1.352867,154.838
814,1.354533,154.644
815,1.3562,154.644
816,1.357867,154.22
817,1.359533,153.854
818,1.3613,153.609
819,1.362867,153.609
820,1.364533,153.743
821,1.3662,153.728
822,1.367867,153.832
823,1.369533,153.832
824,1.3712,153.78
825,1.372867,153.482
826,1.374533,153.117
827,1.3762,153.117
828,1.377867,152.975
829,1.379533,152.789
830,1.3812,152.789
831,1.382867,152.491
832,1.384533,152.789
833,1.3862,152.834
834,1.387867,152.834
835,1.389533,153.035
836,1.3912,153.4
837,1.392867,153.05
838,1.394533,153.05
839,1.3962,152.923
840,1.397867,152.633
841,1.399517,152.148
842,1.401183,152.148
843,1.40285,151.984
844,1.404517,152.051
845,1.406183,152.051
846,1.40785,152.022
847,1.409533,151.858
848,1.411217,151.888
849,1.41285,151.888
850,1.414517,151.575
851,1.416183,151.21
852,1.41785,151.157
853,1.41955,151.157
854,1.421183,150.852
855,1.42285,150.919
856,1.424517,151.224
857,1.426183,151.224
858,1.42785,151.597
859,1.429517,151.783
860,1.431183,151.53
861,1.43285,151.53
862,1.434517,151.336
863,1.436183,150.83
864,1.43785,150.83
865,1.439517,150.375
866,1.441183,150.301
867,1.44285,150.248
868,1.444517,150.248
869,1.446233,150.301
870,1.44785,150.606
871,1.449517,150.569
872,1.451183,150.569
873,1.45285,150.479
874,1.454517,150.137
875,1.456183,150.055
876,1.45785,150.055
877,1.4595,149.772
878,1.461167,149.712
879,1.46295,149.995
880,1.4645,149.995
881,1.466167,149.921
882,1.467833,150.211
883,1.4695,150.211
884,1.471167,149.988
885,1.472833,150.152
886,1.4745,150.174
887,1.476167,150.174
888,1.477833,150.04
889,1.479617,149.935
890,1.481167,149.392
891,1.482833,149.392
892,1.4845,149.116
893,1.486167,148.736
894,1.487833,148.632
895,1.4895,148.632
896,1.491167,148.728
897,1.492833,148.825
898,1.4945,148.825
899,1.496183,149.325
900,1.497833,149.347
901,1.499533,149.287
902,1.501167,149.287
903,1.502833,149.138
904,1.5045,148.699
905,1.506167,149.012
906,1.507833,149.012
907,1.5095,149.138
908,1.511167,149.056
909,1.512833,149.012
910,1.5145,149.012
911,1.516167,148.833
912,1.517833,148.594
913,1.519483,148.594
914,1.52115,148.855
915,1.522817,149.116
916,1.524483,149.205
917,1.52615,149.205
918,1.527817,149.265
919,1.529483,148.9
920,1.53115,148.49
921,1.532817,148.49
922,1.534483,148.065
923,1.53615,147.998
924,1.537817,148.17
925,1.539483,148.17
926,1.54115,148.177
927,1.542817,148.237
928,1.544483,148.244
929,1.54615,148.244
930,1.547817,148.311
931,1.549483,148.378
932,1.551167,148.378
933,1.552817,148.125
934,1.554483,147.812
935,1.55615,147.38
936,1.557817,147.38
937,1.559483,147.06
938,1.56115,147.156
939,1.562817,147.134
940,1.564533,147.134
941,1.56615,147.104
942,1.567833,147.216
943,1.569483,147.358
944,1.571167,147.358
945,1.572817,147.566
946,1.574483,147.641
947,1.57615,147.641
948,1.577817,147.507
949,1.579467,147.223
950,1.581233,146.888
951,1.5828,146.888
952,1.584467,146.829
953,1.586133,147.089
954,1.5878,147.149
955,1.589467,147.149
956,1.591133,147.209
