"ID","sea_time","fid_signal"
1,0,141.226
2,0.00165,141.39
3,0.003317,141.598
4,0.004983,141.636
5,0.00665,141.636
6,0.008317,141.956
7,0.01,141.181
8,0.011717,140.466
9,0.013317,140.466
10,0.014983,139.87
11,0.01665,139.505
12,0.018317,139.505
13,0.019983,140.063
14,0.02165,140.443
15,0.023317,140.667
16,0.024983,140.667
17,0.02665,140.853
18,0.028317,140.645
19,0.029983,140.816
20,0.03165,140.816
21,0.033317,140.987
22,0.034983,140.801
23,0.03665,140.972
24,0.038317,140.972
25,0.039983,140.876
26,0.04165,140.876
27,0.043317,140.876
28,0.044983,140.92
29,0.04665,140.734
30,0.048317,140.794
31,0.049983,140.794
32,0.05165,140.473
33,0.053317,140.324
34,0.054983,140.25
35,0.05665,140.25
36,0.058317,140.034
37,0.059983,139.914
38,0.061633,140.086
39,0.06335,140.086
40,0.064967,140.496
41,0.066633,140.674
42,0.0683,140.674
43,0.069967,141.27
44,0.071633,141.345
45,0.0733,141.256
46,0.075,141.256
47,0.07663300000000001,141.293
48,0.078317,140.987
49,0.080017,140.935
50,0.081633,140.935
51,0.0833,140.607
52,0.084967,140.667
53,0.086633,140.905
54,0.0883,140.905
55,0.08996700000000001,140.831
56,0.09163300000000001,140.995
57,0.09329999999999999,140.823
58,0.094967,140.823
59,0.096733,140.54
60,0.0983,140.54
61,0.099967,140.54
62,0.101633,140.309
63,0.1033,140.212
64,0.104967,140.071
65,0.106633,140.071
66,0.1083,140.183
67,0.109967,140.376
68,0.111633,140.756
69,0.113383,140.756
70,0.11495,140.876
71,0.116617,140.563
72,0.118283,140.652
73,0.11995,140.652
74,0.1216,140.57
75,0.123267,140.652
76,0.124933,140.652
77,0.1266,140.861
78,0.128267,140.704
79,0.129933,140.637
80,0.1316,140.637
81,0.133267,140.734
82,0.134933,140.801
83,0.1366,141.092
84,0.138267,141.092
85,0.139933,141.121
86,0.1416,141.054
87,0.143267,141.114
88,0.144933,141.114
89,0.1466,140.958
90,0.148283,140.92
91,0.14995,140.63
92,0.1516,140.63
93,0.153267,140.54
94,0.154933,140.436
95,0.1566,140.436
96,0.158267,140.54
97,0.159933,140.63
98,0.1616,140.712
99,0.163267,140.712
100,0.164933,140.727
101,0.1666,140.391
102,0.168267,140.615
103,0.169933,140.615
104,0.1716,140.756
105,0.173267,141.099
106,0.174933,141.218
107,0.1766,141.218
108,0.178267,141.248
109,0.179933,141.136
110,0.181583,141.136
111,0.18325,141.203
112,0.184917,141.36
113,0.1866,141.218
114,0.18825,141.218
115,0.189917,140.816
116,0.191583,140.183
117,0.19325,140.175
118,0.194917,140.175
119,0.196583,140.235
120,0.198333,140.578
121,0.199917,141.121
122,0.201583,141.121
123,0.20325,141.054
124,0.204917,140.92
125,0.206583,140.913
126,0.20825,140.913
127,0.209917,140.816
128,0.211583,140.898
129,0.21325,140.898
130,0.215017,140.965
131,0.216583,140.928
132,0.21825,140.995
133,0.219917,140.995
134,0.221583,141.181
135,0.22325,141.159
136,0.224917,140.95
137,0.226583,140.95
138,0.228267,140.704
139,0.229967,140.503
140,0.231683,140.496
141,0.23325,140.496
142,0.234917,140.801
143,0.236583,140.563
144,0.23825,140.563
145,0.239917,140.645
146,0.241567,140.898
147,0.243233,140.883
148,0.2449,140.883
149,0.246567,141.144
150,0.248233,141.017
151,0.2499,140.734
152,0.251567,140.734
153,0.253233,140.89
154,0.2549,140.965
155,0.256567,140.898
156,0.258233,140.898
157,0.2599,141.114
158,0.261567,140.861
159,0.263233,140.861
160,0.2649,140.712
161,0.266567,140.838
162,0.268233,140.898
163,0.2699,140.898
164,0.271567,141.069
165,0.273233,141.218
166,0.2749,141.151
167,0.276567,141.151
168,0.278233,141.062
169,0.2799,140.846
170,0.281567,140.794
171,0.283233,140.794
172,0.2849,140.943
173,0.286567,140.95
174,0.288233,140.972
175,0.2899,140.972
176,0.291567,140.943
177,0.293233,140.935
178,0.294933,140.935
179,0.2966,140.868
180,0.298233,140.995
181,0.299883,140.987
182,0.30155,140.987
183,0.303217,140.831
184,0.304883,140.898
185,0.30655,140.764
186,0.308217,140.764
187,0.309883,140.794
188,0.31155,140.704
189,0.313217,140.57
190,0.314883,140.57
191,0.316567,140.548
192,0.318217,140.563
193,0.319883,140.563
194,0.32155,140.823
195,0.323217,141.159
196,0.324883,141.658
197,0.32655,141.658
198,0.328217,141.628
199,0.329883,141.464
200,0.33155,141.442
201,0.33325,141.442
202,0.334883,140.972
203,0.33655,141.002
204,0.338217,141.062
205,0.339883,141.062
206,0.34155,140.928
207,0.343217,141.077
208,0.344883,140.98
209,0.34655,140.98
210,0.348217,140.786
211,0.3499,140.6
212,0.35155,140.6
213,0.353217,140.548
214,0.354883,140.674
215,0.35655,140.756
216,0.358217,140.756
217,0.359883,140.965
218,0.361533,141.27
219,0.3632,141.405
220,0.364867,141.405
221,0.366533,141.643
222,0.3682,141.554
223,0.369867,141.211
224,0.371533,141.211
225,0.3732,141.256
226,0.374933,141.047
227,0.376533,141.047
228,0.3782,141.054
229,0.379867,141.032
230,0.381533,140.972
231,0.3832,140.972
232,0.384867,140.913
233,0.386533,140.95
234,0.3882,141.099
235,0.389867,141.099
236,0.391533,141.203
237,0.3932,141.591
238,0.394867,141.747
239,0.396533,141.747
240,0.3982,142.09
241,0.399867,142.284
242,0.401533,142.15
243,0.4032,142.15
244,0.40485,142.425
245,0.406517,142.142
246,0.408183,142.142
247,0.40985,142.418
248,0.411517,142.872
249,0.413183,142.917
250,0.41485,142.917
251,0.416517,143.677
252,0.418183,143.848
253,0.41985,144.266
254,0.4215,144.266
255,0.423167,145.108
256,0.424833,145.964
257,0.4265,147.142
258,0.428167,147.142
259,0.429833,149.041
260,0.4315,151.09
261,0.433167,151.09
262,0.434833,153.407
263,0.4365,156.328
264,0.438167,159.197
265,0.439833,159.197
266,0.441517,162.743
267,0.443167,166.915
268,0.444833,171.416
269,0.446533,171.416
270,0.448167,176.303
271,0.449833,181.802
272,0.4515,187.799
273,0.453167,187.799
274,0.454833,194.602
275,0.4565,201.732
276,0.458167,201.732
277,0.459833,209.033
278,0.4615,216.715
279,0.463167,224.441
280,0.464833,224.441
281,0.4665,232.816
282,0.468167,241.265
283,0.469833,249.177
284,0.4715,249.177
285,0.473167,256.903
286,0.474833,264.525
287,0.4765,271.872
288,0.478167,271.872
289,0.479833,279.36
290,0.481483,286.207
291,0.48315,292.219
292,0.484817,292.219
293,0.486483,297.457
294,0.48815,302.136
295,0.489817,302.136
296,0.491483,306.197
297,0.49315,309.505
298,0.494817,312.127
299,0.496483,312.127
300,0.49815,313.938
301,0.499817,315.174
302,0.501483,315.793
303,0.50315,315.793
304,0.504817,315.949
305,0.506483,314.988
306,0.50815,313.386
307,0.509817,313.386
308,0.511483,311.173
309,0.5131829999999999,308.111
310,0.514817,308.111
311,0.516483,304.796
312,0.51815,300.981
313,0.519817,297.122
314,0.521483,297.122
315,0.52315,293.143
316,0.524817,289.045
317,0.5265,284.873
318,0.52815,284.873
319,0.529817,280.291
320,0.531483,275.999
321,0.53315,271.827
322,0.534817,271.827
323,0.536483,267.386
324,0.53815,263.087
325,0.539817,258.699
326,0.541467,258.699
327,0.543133,254.445
328,0.5448,250.712
329,0.546467,250.712
330,0.548133,247.486
331,0.5498,244.632
332,0.551467,241.928
333,0.5532,241.928
334,0.5548,239.551
335,0.556467,237.286
336,0.558133,234.962
337,0.5598,234.962
338,0.561467,232.898
339,0.563133,231.512
340,0.5648,230.104
341,0.5664670000000001,230.104
342,0.568133,229.172
343,0.5698,228.48
344,0.5714669999999999,228.48
345,0.573133,227.727
346,0.5748,227.697
347,0.576467,228.055
348,0.578133,228.055
349,0.5798,229.292
350,0.581467,230.789
351,0.583133,232.898
352,0.5848,232.898
353,0.5865669999999999,235.811
354,0.588133,239.372
355,0.5898,244.454
356,0.591467,244.454
357,0.593133,251.018
358,0.5948,259.534
359,0.596467,270.642
360,0.598133,270.642
361,0.5998,284.687
362,0.60145,302.538
363,0.603117,302.538
364,0.604783,324.942
365,0.60645,352.614
366,0.608117,387.058
367,0.609783,387.058
368,0.61145,428.662
369,0.613117,478.625
370,0.614783,537.9690000000001
371,0.6164500000000001,537.9690000000001
372,0.61815,606.835
373,0.619783,686.511
374,0.6214499999999999,777.572
375,0.623117,777.572
376,0.624783,879.698
377,0.62645,993.229
378,0.628117,993.229
379,0.629783,1117.632
380,0.63145,1252.227
381,0.633117,1396.596
382,0.634783,1396.596
383,0.63645,1549.862
384,0.638117,1710.765
385,0.639783,1878.291
386,0.64145,1878.291
387,0.643133,2051.137
388,0.644783,2227.709
389,0.64645,2407.126
390,0.6481170000000001,2407.126
391,0.649783,2587.78
392,0.65145,2768.36
393,0.6531169999999999,2768.36
394,0.6548,2948.366
395,0.65645,3126.279
396,0.658117,3301.33
397,0.659767,3301.33
398,0.661433,3472.85
399,0.6631,3639.08
400,0.664767,3799.513
401,0.6664330000000001,3799.513
402,0.6681,3952.883
403,0.669767,4098.296
404,0.67155,4235.35
405,0.6731,4235.35
406,0.674767,4363.38
407,0.676433,4481.71
408,0.6781,4589.855
409,0.679767,4589.855
410,0.681433,4686.959
411,0.6831,4772.723
412,0.684767,4772.723
413,0.686433,4846.334
414,0.6881,4907.623
415,0.689767,4956.663
416,0.691433,4956.663
417,0.6931,4992.366
418,0.69475,5015.544
419,0.696417,5025.938
420,0.698083,5025.938
421,0.69975,5023.375
422,0.701433,5008.437
423,0.703083,4981.414
424,0.704867,4981.414
425,0.706417,4942.79
426,0.708083,4893.437
427,0.70975,4893.437
428,0.711417,4834.354
429,0.713083,4766.367
430,0.71475,4689.977
431,0.716417,4689.977
432,0.718083,4606.552
433,0.719733,4516.885
434,0.7214,4421.949
435,0.723067,4421.949
436,0.724733,4323.274
437,0.7264,4221.447
438,0.728067,4117.765
439,0.729733,4117.765
440,0.7314000000000001,4012.741
441,0.7331,3906.928
442,0.734733,3801.301
443,0.7364000000000001,3801.301
444,0.738067,3696.032
445,0.739733,3591.94
446,0.7413999999999999,3591.94
447,0.743067,3489.688
448,0.744733,3389.187
449,0.7464,3290.594
450,0.748067,3290.594
451,0.749733,3194.228
452,0.7514,3100.254
453,0.753067,3008.619
454,0.754733,3008.619
455,0.7564,2919.614
456,0.758067,2833.113
457,0.759733,2749.227
458,0.7614,2749.227
459,0.7630670000000001,2668.202
460,0.764733,2589.703
461,0.7664,2589.703
462,0.7680670000000001,2513.871
463,0.769733,2440.177
464,0.7714,2369.031
465,0.7730669999999999,2369.031
466,0.774733,2300.583
467,0.776433,2234.332
468,0.778067,2170.146
469,0.779717,2170.146
470,0.781383,2108.045
471,0.78305,2047.881
472,0.784717,1989.856
473,0.7863830000000001,1989.856
474,0.78805,1934.357
475,0.789783,1880.638
476,0.7913829999999999,1829.162
477,0.79305,1829.162
478,0.794717,1779.549
479,0.796383,1731.582
480,0.79805,1731.582
481,0.79975,1685.426
482,0.801383,1640.469
483,0.80305,1596.972
484,0.804717,1596.972
485,0.806383,1554.884
486,0.80805,1514.137
487,0.809717,1475.081
488,0.811383,1475.081
489,0.8130500000000001,1437.292
490,0.814717,1401.149
491,0.816383,1366.161
492,0.818067,1366.161
493,0.819717,1332.313
494,0.821383,1299.65
495,0.823133,1267.932
496,0.824717,1267.932
497,0.826383,1237.795
498,0.82805,1208.454
499,0.829717,1208.454
500,0.831383,1180.291
501,0.83305,1152.925
502,0.834717,1126.036
503,0.836383,1126.036
504,0.83805,1100.153
505,0.839717,1075.015
506,0.841367,1050.919
507,0.843033,1050.919
508,0.8447,1027.83
509,0.846367,1005.538
510,0.848033,1005.538
511,0.8497,984.199
512,0.851367,963.2329999999999
513,0.853033,942.551
514,0.8547,942.551
515,0.856367,922.6799999999999
516,0.858033,903.271
517,0.8597,884.578
518,0.861367,884.578
519,0.8630330000000001,866.957
520,0.8647,849.776
521,0.866383,832.915
522,0.868067,832.915
523,0.8697,816.74
524,0.871367,800.915
525,0.8730329999999999,785.6559999999999
526,0.874717,785.6559999999999
527,0.876367,770.941
528,0.878033,756.785
529,0.8797,756.785
530,0.881367,743.292
531,0.883033,730.127
532,0.8847,717.521
533,0.886367,717.521
534,0.888033,705.0410000000001
535,0.8897,692.479
536,0.891367,680.506
537,0.893033,680.506
538,0.8947000000000001,668.675
539,0.896367,657.499
540,0.898033,646.703
541,0.899683,646.703
542,0.90135,635.825
543,0.903017,625.662
544,0.904683,625.662
545,0.90635,615.612
546,0.90805,606.179
547,0.909683,597.3579999999999
548,0.91135,597.3579999999999
549,0.913017,588.357
550,0.914683,579.521
551,0.91635,570.551
552,0.918017,570.551
553,0.919683,561.707
554,0.92135,553.489
555,0.923017,545.554
556,0.924767,545.554
557,0.92635,537.9690000000001
558,0.928017,530.399
559,0.929683,522.941
560,0.93135,522.941
561,0.933017,515.811
562,0.934683,508.912
563,0.93635,508.912
564,0.938017,502.557
565,0.939683,496.112
566,0.941433,489.667
567,0.943017,489.667
568,0.9446830000000001,483.423
569,0.94635,477.21
570,0.948017,471.57
571,0.9496830000000001,471.57
572,0.95135,466.138
573,0.953033,460.505
574,0.9547,455.141
575,0.95635,455.141
576,0.958117,449.665
577,0.959683,444.278
578,0.961333,444.278
579,0.963,439.331
580,0.9646670000000001,434.637
581,0.966333,429.802
582,0.968,429.802
583,0.9696669999999999,425.145
584,0.971333,420.481
585,0.973,415.556
586,0.974667,415.556
587,0.976333,411.183
588,0.978,406.973
589,0.979667,402.994
590,0.981333,402.994
591,0.983,399.083
592,0.984667,395
593,0.986317,391.088
594,0.9879829999999999,391.088
595,0.98965,387.236
596,0.991317,383.414
597,0.993,383.414
598,0.99465,379.689
599,0.996317,376.15
600,0.997983,372.663
601,0.99965,372.663
602,1.001317,369.333
603,1.002983,366.196
604,1.00465,362.672
605,1.006317,362.672
606,1.007983,359.751
607,1.00965,356.853
608,1.011317,354.134
609,1.012983,354.134
610,1.01465,351.205
611,1.016317,348.128
612,1.018,348.128
613,1.019633,345.312
614,1.0213,342.235
615,1.022967,339.687
616,1.024633,339.687
617,1.02635,337.049
618,1.027967,334.196
619,1.02965,331.722
620,1.031333,331.722
621,1.032967,329.055
622,1.034633,326.335
623,1.0363,324.212
624,1.037967,324.212
625,1.039633,321.791
626,1.0413,319.794
627,1.043067,317.857
628,1.044633,317.857
629,1.0463,315.152
630,1.047967,312.671
631,1.049633,312.671
632,1.0513,310.428
633,1.052967,307.918
634,1.054633,306.07
635,1.0563,306.07
636,1.057967,304.163
637,1.059717,302.24
638,1.0613,300.378
639,1.062967,300.378
640,1.064633,298.321
641,1.0663,296.615
642,1.067967,294.603
643,1.069633,294.603
644,1.0713,292.771
645,1.072967,291.169
646,1.074633,291.169
647,1.076417,289.224
648,1.077967,287.309
649,1.079633,285.409
650,1.081283,285.409
651,1.08295,283.882
652,1.084617,282.183
653,1.086283,280.634
654,1.08795,280.634
655,1.089617,279.114
656,1.091283,277.318
657,1.09295,276.074
658,1.094633,276.074
659,1.096283,274.569
660,1.09795,273.436
661,1.099617,273.436
662,1.101283,271.626
663,1.10295,270.188
664,1.104617,268.824
665,1.106283,268.824
666,1.10795,267.103
667,1.109617,266.314
668,1.111283,264.667
669,1.11295,264.667
670,1.114617,263.542
671,1.116283,262.693
672,1.11795,261.053
673,1.119617,261.053
674,1.121333,259.876
675,1.12295,258.669
676,1.124617,257.149
677,1.126283,257.149
678,1.12795,256.091
679,1.129617,254.832
680,1.131283,254.832
681,1.13295,253.424
682,1.134617,252.306
683,1.136283,251.01
684,1.13795,251.01
685,1.1396,249.781
686,1.141267,248.492
687,1.142933,247.121
688,1.1446,247.121
689,1.146267,246.07
690,1.147933,245.094
691,1.1496,244.148
692,1.151267,244.148
693,1.152933,243.664
694,1.1546,242.852
695,1.156267,242.852
696,1.157933,242.129
697,1.1596,241.011
698,1.161367,239.782
699,1.162933,239.782
700,1.1646,238.687
701,1.166267,237.383
702,1.167933,236.571
703,1.1696,236.571
704,1.171267,235.617
705,1.172933,234.768
706,1.1746,234.202
707,1.176267,234.202
708,1.177983,233.576
709,1.1796,232.86
710,1.181267,232.115
711,1.182933,232.115
712,1.1846,231.013
713,1.186267,229.813
714,1.187933,229.813
715,1.1896,228.867
716,1.191267,227.861
717,1.192933,227.347
718,1.1947,227.347
719,1.196267,226.676
720,1.197933,225.693
721,1.199583,224.777
722,1.20125,224.777
723,1.202917,223.845
724,1.204583,223.167
725,1.20625,222.34
726,1.207917,222.34
727,1.209583,221.431
728,1.21125,220.694
729,1.21295,220.694
730,1.214583,219.837
731,1.21625,219.159
732,1.217917,218.66
733,1.219583,218.66
734,1.221267,217.766
735,1.222917,217.08
736,1.224583,216.514
737,1.22625,216.514
738,1.227917,216
739,1.229583,215.59
740,1.23125,214.905
741,1.232917,214.905
742,1.234583,214.331
743,1.23625,213.772
744,1.237967,212.99
745,1.239583,212.99
746,1.24125,212.543
747,1.242917,211.649
748,1.244583,211.649
749,1.24625,210.933
750,1.247917,210.27
751,1.249583,209.697
752,1.25125,209.697
753,1.252917,209.346
754,1.254583,208.706
755,1.25625,208.266
756,1.257917,208.266
757,1.259567,207.476
758,1.261233,207.074
759,1.2629,206.545
760,1.264567,206.545
761,1.266233,205.718
762,1.2679,205.144
763,1.269567,205.144
764,1.271233,204.317
765,1.2729,203.684
766,1.274567,203.416
767,1.276233,203.416
768,1.277883,202.999
769,1.279567,202.514
770,1.281217,202.037
771,1.282883,202.037
772,1.28455,201.501
773,1.286217,200.92
774,1.287883,200.585
775,1.289583,200.585
776,1.291217,200.137
777,1.292883,199.519
778,1.29455,199.519
779,1.296233,199.176
780,1.297883,198.737
781,1.29955,198.29
782,1.301217,198.29
783,1.302883,198.141
784,1.30455,197.671
785,1.306217,197.046
786,1.307883,197.046
787,1.30955,196.755
788,1.311217,196.226
789,1.312967,195.898
790,1.31455,195.898
791,1.316217,195.526
792,1.317883,194.989
793,1.319533,194.624
794,1.3212,194.624
795,1.322867,194.214
796,1.324533,193.737
797,1.3262,193.737
798,1.327867,193.276
799,1.329533,192.761
800,1.3312,192.173
801,1.332867,192.173
802,1.334533,191.964
803,1.3362,191.554
804,1.337867,191.167
805,1.339533,191.167
806,1.3412,191.033
807,1.342867,190.414
808,1.344533,189.9
809,1.3462,189.9
810,1.347867,189.595
811,1.349533,188.805
812,1.3512,188.805
813,1.352867,188.589
814,1.354533,188.336
815,1.3562,187.799
816,1.357867,187.799
817,1.359533,187.822
818,1.3612,187.367
819,1.362867,187.039
820,1.364533,187.039
821,1.3662,186.63
822,1.367883,186.317
823,1.369533,185.914
824,1.3712,185.914
825,1.372867,185.572
826,1.374533,185.207
827,1.3762,184.529
828,1.377867,184.529
829,1.37955,184.223
830,1.381233,183.947
831,1.38285,183.947
832,1.384517,183.925
833,1.386183,183.865
834,1.38785,183.836
835,1.389517,183.836
836,1.391183,183.441
837,1.39285,182.733
838,1.394517,182.375
839,1.3962,182.375
840,1.3979,181.973
841,1.399517,181.846
842,1.401183,181.794
843,1.40285,181.794
844,1.404517,181.437
845,1.406183,180.922
846,1.40785,180.922
847,1.409517,180.617
848,1.411183,180.505
849,1.41285,180.215
850,1.414517,180.215
851,1.416183,179.924
852,1.41785,179.38
853,1.419517,178.933
854,1.421183,178.933
855,1.42285,178.68
856,1.424517,178.471
857,1.426183,178.464
858,1.42785,178.464
859,1.429517,178.508
860,1.431283,178.345
861,1.43285,178.345
862,1.434517,178.203
863,1.436183,177.801
864,1.437833,177.249
865,1.4395,177.249
866,1.441167,176.765
867,1.442833,176.46
868,1.4445,176.348
869,1.446167,176.348
870,1.447833,176.176
871,1.4495,176.34
872,1.451167,176.348
873,1.452833,176.348
874,1.4545,176.214
875,1.456183,176.199
876,1.45785,175.737
877,1.4595,175.737
878,1.461167,175.253
879,1.462833,175.014
880,1.4645,175.014
881,1.466167,174.627
882,1.467833,174.53
883,1.4695,174.552
884,1.471167,174.552
885,1.472833,174.299
886,1.4745,174.195
887,1.476167,173.897
888,1.477833,173.897
889,1.4795,173.345
890,1.481167,172.824
891,1.482833,172.295
892,1.4845,172.295
893,1.486167,172.019
894,1.487833,172.198
895,1.4895,172.198
896,1.491167,172.414
897,1.492833,172.198
898,1.4945,172.153
899,1.496167,172.153
900,1.497833,171.803
901,1.499483,171.497
902,1.50115,171.52
903,1.502817,171.52
904,1.504483,171.207
905,1.50615,170.812
906,1.507817,170.402
907,1.509483,170.402
908,1.51115,170.119
909,1.512817,169.94
910,1.514483,169.732
911,1.51615,169.732
912,1.517817,169.493
913,1.519483,169.545
914,1.52115,169.545
915,1.522817,169.68
916,1.524483,169.776
917,1.526167,169.978
918,1.527867,169.978
919,1.5295,169.389
920,1.53115,168.838
921,1.532817,168.48
922,1.534483,168.48
923,1.53615,167.951
924,1.537817,167.899
925,1.539483,167.601
926,1.54115,167.601
927,1.542817,167.638
928,1.544483,167.705
929,1.54615,167.705
930,1.547817,167.705
931,1.54955,167.973
932,1.55115,167.78
933,1.552817,167.78
934,1.554483,167.489
935,1.55615,167.385
936,1.557817,167.057
937,1.559467,167.057
938,1.561133,167.042
939,1.5628,167.154
940,1.564467,167.161
941,1.566133,167.161
942,1.5678,166.871
943,1.56945,166.751
944,1.571133,166.409
945,1.572783,166.409
946,1.57445,165.708
947,1.576117,165.418
948,1.577783,165.418
949,1.57945,165.001
950,1.581117,165.09
951,1.582783,165.097
952,1.58445,165.097
953,1.586117,165.09
954,1.587783,164.814
955,1.58945,164.635
956,1.591117,164.635
957,1.592783,164.777
958,1.59445,164.911
